11814334623
11814340543
11814345426
11814349882
11814355985
11814362333
11814367948
11814373319
11814379117
11814384122
11814389799
11814394620
11814399930
11814405668
11814411344
11814417447
11814423734
11814429654
11814435453
11814441739
11814447049
11814453275
11814458829
11814463773
11814470060
11814476041
11814484403
11814487638
11814490628
11814493558
11814496366
11814499356
11814502164
11814505521
11814508512
11814511075
11814515897
11814519498
11814522428
11814526090
11814529508
11814532926
11814536038
11814539517
11814543546
11814546842
11814549954
11814553189
11814556485
11814559354
11814562344
11814565152
11814568387
11814571561
11814574429
11814577237
11814579984
11814583341
11814586392
11814592374
11814596951
11814600919
11814604398
11814607816
11814611783
11814615445
11814620267
11814624600
11814628445
11814633328
11814638638
11814642606
11814646451
11814652676
11814658414
11814664029
11814668667
11814674100
11814679959
11814685208
11814691006
11814698208
11814704068
11814710598
11814716702
11814722378
11814728299
11814737149
11814743069
11814749722
11814756680
11814762661
11814769619
11814775662
11814782315
11814788418
11814795437
11814800259
11814806790
11814812283
11814818508
11814825344
11814832180
11814838833
11814845791
11814851162
11814858303
11814866238
11814872585
11814879971
11814887539
11814894497
11814902615
11814909939
11814916836
11814922451
11814927639
11814934475
11814940517
11814949367
11814956081
11814963344
11814971035
11814977932
11814985622
11814991237
11814998867
11815004421
11815013027
11815019375
11815028225
11815033962
11815041530
11815048549
11815056911
11815061794
11815070400
11815076137
11815083889
11815092067
11815097377
11815103481
11815111537
11815118801
11815126491
11815133327
11815141506
11815147975
11815154262
11815161037
11815167568
11815173305
11815182277
11815188319
11815195338
11815201503
11815210475
11815217006
11815224513
11815230983
11815239040
11815248256
11815252833
11815261867
11815268153
11815277125
11815282130
11815292262
11815297084
11815306849
11815312587
11815320216
11815329493
11815335292
11815343959
11815349879
11815357875
11815363673
11815373194
11815382167
11815388636
11815395350
11815404627
11815410426
11815419459
11815426539
11815434168
11815441187
11815449610
11815457545
11815465296
11815471522
11815479212
11815487330
11815492274
11815502467
11815508265
11815517176
11815524744
11815532191
11815539088
11815545862
11815553065
11815560999
11815570154
11815577662
11815584925
11815592676
11815599878
11815605494
11815613855
11815620020
11815628992
11815634424
11815640528
11815646936
11815651331
11815656214
11815662073
11815665796
11815673548
11815679407
11815684107
11815688867
11815693811
11815699671
11815704370
11815712732
11815717371
11815723718
11815729822
11815735376
11815740869
11815746607
11815751001
11815757288
11815765527
11815773462
11815780603
11815787805
11815793176
11815800928
11815804834
11815809900
11815814416
11815818567
11815823755
11815827722
11815832056
11815837183
11815841699
11815849328
11815853052
11815858911
11815862817
11815867334
11815871301
11815876062
11815879358
11815885156
11815891321
11815895288
11815900293
11815904626
11815909631
11815913110
11815918420
11815923974
11815928308
11815932214
11815936303
11815939355
11815945153
11815948816
11815952966
11815959741
11815964929
11815969873
11815974694
11815979394
11815984033
11815988549
11815991601
11815998193
11816003503
11816007897
11816014855
11816017846
11816023522
11816028344
11816033410
11816041345
11816046533
11816049279
11816055200
11816060326
11816065026
11816068688
11816072472
11816078332
11816083032
11816091149
11816098962
11816104638
11816109643
11816114098
11816120934
11816125939
11816133019
11816137353
11816143151
11816147729
11816153588
11816157677
11816163781
11816169396
11816173730
11816180016
11816183922
11816190453
11816195214
11816198876
11816204552
11816211083
11816217431
11816224266
11816230309
11816235802
11816240929
11816244713
11816252098
11816257836
11816262963
11816270958
11816275719
11816280419
11816284142
11816289635
11816296288
11816303124
11816307762
11816312401
11816317101
11816321434
11816326073
11816331200
11816340599
11816347984
11816354881
11816360069
11816365257
11816369957
11816374718
11816379906
11816386192
11816390831
11816396141
11816400780
11816406517
11816410850
11816415001
11816422081
11816427086
11816431663
11816436485
11816441063
11816446068
11816451622
11816456444
11816460960
11816466209
11816471153
11816475426
11816481529
11816486534
11816490928
11816495201
11816502952
11816506798
11816513511
11816517051
11816523094
11816526451
11816532615
11816536277
11816544029
11816550621
11816555870
11816560325
11816565574
11816570823
11816574913
11816579002
11816585166
11816591087
11816598045
11816602317
11816608726
11816612815
11816617881
11816623985
11816628196
11816634727
11816640708
11816645957
11816651634
11816656822
11816660301
11816666953
11816672263
11816677879
11816681052
11816688743
11816694175
11816699424
11816703757
11816709067
11816713157
11816717918
11816725852
11816731650
11816735801
11816742087
11816746177
11816751792
11816756675
11816762229
11816768577
11816774924
11816779868
11816785422
11816790122
11816793967
11816801413
11816805991
11816812095
11816815696
11816823813
11816826377
11816833640
11816839377
11816846091
11816851462
11816856284
11816862876
11816869590
11816873557
11816879904
11816884299
11816889853
11816894187
11816900656
11816907004
11816912192
11816916464
11816921103
11816927329
11816930991
11816937033
11816941672
11816949057
11816953391
11816959982
11816965353
11816970358
11816974509
11816979636
11816986166
11816991171
11816997519
11817001791
11817006491
11817010886
11817014914
11817019614
11817024618
11817028281
11817036459
11817042258
11817047568
11817052572
11817056601
11817061789
11817065756
11817070212
11817076681
11817082907
11817086813
11817093039
11817097494
11817102560
11817108481
11817115561
11817121359
11817127768
11817132284
11817139669
11817145163
11817150595
11817154989
11817160482
11817166952
11817170370
11817176779
11817180868
11817187521
11817192770
11817197470
11817202841
11817208761
11817215170
11817220419
11817225302
11817230001
11817235311
11817240621
11817245870
11817251425
11817256735
11817262289
11817267416
11817271444
11817277303
11817281271
11817286825
11817291036
11817299825
11817304525
11817310812
11817314474
11817321920
11817326314
11817332296
11817337606
11817343709
11817349752
11817356588
11817362935
11817369832
11817373800
11817378621
11817383626
11817389547
11817395711
11817403035
11817405965
11817411641
11817416036
11817421773
11817426778
11817432515
11817438253
11817441793
11817447774
11817451436
11817455709
11817461263
11817465474
11817472676
11817479940
11817483846
11817489034
11817492696
11817497640
11817503316
11817508809
11817513265
11817517781
11817523763
11817528951
11817532735
11817538106
11817542622
11817548299
11817553243
11817559224
11817564107
11817569234
11817574544
11817578938
11817584187
11817589009
11817594746
11817602498
11817606648
11817612080
11817617573
11817621785
11817627034
11817632466
11817636861
11817643513
11817649312
11817653950
11817658284
11817664692
11817671406
11817676045
11817681538
11817688984
11817693806
11817699482
11817704060
11817710347
11817716145
11817720234
11817727070
11817733662
11817740376
11817744954
11817751057
11817756184
11817761799
11817766499
11817770283
11817776448
11817782673
11817790608
11817796162
11817801533
11817805622
11817811543
11817817951
11817822163
11817831318
11817835713
11817840168
11817846577
11817852070
11817857014
11817862995
11817866535
11817873737
11817879108
11817886494
11817891682
11817898090
11817905048
11817910114
11817916889
11817922687
11817930134
11817934833
11817941608
11817946308
11817953815
11817959858
11817965717
11817971882
11817977863
11817981830
11817986530
11817991596
11817995624
11818001484
11818006061
11818013996
11818019550
11818027485
11818034748
11818041706
11818045917
11818049335
11818054157
11818061420
11818066669
11818071552
11818076496
11818081195
11818086139
11818088642
11818094867
11818102558
11818106525
11818112628
11818117450
11818121173
11818126544
11818131549
11818135455
11818143512
11818149066
11818153217
11818159747
11818164264
11818169208
11818175250
11818180194
11818187213
11818196185
11818203509
11818211261
11818217731
11818224200
11818229938
11818233172
11818239642
11818245196
11818250018
11818256183
11818260699
11818265826
11818270160
11818276080
11818281268
11818286700
11818291522
11818297625
11818302203
11818306964
11818311908
11818315692
11818322284
11818327472
11818332721
11818338397
11818341143
11818347735
11818353228
11818358844
11818365069
11818370379
11818374652
11818379534
11818385028
11818390032
11818392474
11818398516
11818405657
11818410723
11818416400
11818422137
11818427020
11818434283
11818439105
11818447100
11818451983
11818457720
11818465472
11818470965
11818476702
11818482012
11818485979
11818490557
11818495379
11818502825
11818509783
11818513262
11818520098
11818524493
11818530840
11818534563
11818540606
11818545244
11818551653
11818555498
11818561236
11818565996
11818570452
11818574968
11818580828
11818584185
11818589739
11818593645
11818598223
11818603167
11818608355
11818614336
11818618975
11818623186
11818628008
11818632463
11818637407
11818643267
11818647051
11818653521
11818658586
11818663225
11818668108
11818672014
11818676714
11818681780
11818687029
11818691179
11818697649
11818701799
11818708086
11818712297
11818716448
11818722612
11818727861
11818733232
11818738970
11818743913
11818749956
11818754839
11818759050
11818764238
11818769792
11818773698
11818781450
11818787187
11818792436
11818797807
11818801897
11818807634
11818811967
11818817949
11818827165
11818832963
11818836809
11818842424
11818847001
11818854082
11818858171
11818863786
11818869096
11818874101
11818880754
11818886308
11818891008
11818896196
11818900956
11818905778
11818912004
11818918107
11818923722
11818929582
11818934404
11818939347
11818943803
11818948808
11818956254
11818962663
11818967912
11818973893
11818978654
11818983232
11818988603
11818995255
11819001603
11819007157
11819012956
11819017533
11819022843
11819026933
11819033952
11819038834
11819045365
11819050675
11819055924
11819059647
11819065568
11819069291
11819074784
11819080033
11819083451
11819090653
11819095353
11819101395
11819105729
11819111832
11819116776
11819121598
11819126298
11819131913
11819138322
11819142838
11819147538
11819152482
11819157487
11819162736
11819168595
11819172440
11819180008
11819185502
11819188614
11819194779
11819200638
11819205826
11819210221
11819214127
11819222672
11819228226
11819233048
11819238968
11819243302
11819248551
11819253434
11819258622
11819263809
11819269730
11819274918
11819281021
11819285782
11819289994
11819296402
11819299881
11819307205
11819312149
11819317764
11819322830
11819328201
11819333023
11819338394
11819343826
11819347855
11819354508
11819360245
11819364273
11819369888
11819375443
11819379227
11819385147
11819389725
11819396011
11819402481
11819407059
11819411636
11819418594
11819421951
11819428543
11819432876
11819438431
11819443741
11819451919
11819457901
11819463089
11819467422
11819473221
11819479324
11819484634
11819491165
11819497146
11819502395
11819509720
11819514419
11819518997
11819525650
11819529922
11819538101
11819543533
11819548843
11819554580
11819560073
11819564712
11819570449
11819576187
11819581802
11819586685
11819592971
11819600234
11819606033
11819611343
11819615981
11819619888
11819625442
11819632583
11819637710
11819641494
11819647598
11819651382
11819656570
11819661758
11819668166
11819672256
11819677444
11819683547
11819692641
11819697524
11819702346
11819706802
11819710403
11819716811
11819721877
11819727065
11819731887
11819735732
11819740737
11819745864
11819750625
11819756179
11819761245
11819765212
11819770766
11819775100
11819779372
11819785476
11819790786
11819795730
11819801528
11819806838
11819812209
11819816909
11819821303
11819827834
11819832717
11819836684
11819843337
11819848952
11819854323
11819859633
11819863723
11819869033
11819874709
11819880019
11819885512
11819890029
11819896193
11819900893
11819905776
11819911696
11819916640
11819921217
11819927626
11819932631
11819939833
11819945204
11819950209
11819954604
11819959120
11819964858
11819970534
11819975417
11819981703
11819987746
11819994032
11819999403
11820005202
11820010145
11820016371
11820022352
11820027785
11820033278
11820039259
11820042311
11820048720
11820053419
11820059340
11820065748
11820073988
11820079237
11820084059
11820089064
11820094618
11820100355
11820106886
11820112562
11820118544
11820124525
11820128981
11820133497
11820138441
11820144545
11820150648
11820155226
11820161695
11820165846
11820170790
11820175245
11820180128
11820188490
11820193800
11820199171
11820203932
11820210645
11820215772
11820224500
11820233228
11820238966
11820246900
11820251234
11820256849
11820261915
11820268873
11820274793
11820279737
11820286390
11820290784
11820297071
11820302747
11820307874
11820313245
11820317945
11820322584
11820327772
11820333753
11820339185
11820343824
11820348646
11820352369
11820358289
11820362012
11820368116
11820374280
11820380079
11820385633
11820389722
11820395215
11820400647
11820406141
11820411329
11820416211
11820421582
11820428479
11820435010
11820439649
11820446363
11820451062
11820456433
11820463880
11820469190
11820476148
11820481030
11820486463
11820491590
11820499402
11820504834
11820511121
11820516675
11820520642
11820525098
11820531445
11820534131
11820541882
11820546277
11820552014
11820558484
11820563306
11820567944
11820573682
11820579419
11820584668
11820588635
11820595471
11820600110
11820607922
11820613415
11820619275
11820624951
11820631726
11820636670
11820641919
11820647534
11820654431
11820658825
11820665173
11820670483
11820677319
11820681897
11820687451
11820694531
11820705944
11820709912
11820716015
11820719738
11820723828
11820730786
11820736401
11820739941
11820746289
11820749951
11820754345
11820759228
11820763867
11820769604
11820774365
11820778698
11820783093
11820787976
11820792797
11820796704
11820803478
11820810192
11820815258
11820820141
11820825024
11820830090
11820835033
11820837719
11820843578
11820848644
11820854137
11820858288
11820863659
11820869396
11820874340
11820879528
11820883495
11820890453
11820895336
11820900585
11820904858
11820908581
11820914623
11820919506
11820925121
11820930492
11820935924
11820940929
11820946850
11820952404
11820962291
11820968517
11820977001
11820981090
11820987194
11820993175
11820997753
11821003307
11821007885
11821014537
11821022167
11821027965
11821033275
11821038707
11821044078
11821049510
11821053539
11821059032
11821065319
11821069896
11821074047
11821080455
11821084545
11821090648
11821096202
11821100170
11821106883
11821112743
11821117198
11821124706
11821131114
11821136730
11821142101
11821149242
11821155772
11821165477
11821174571
11821182506
11821189830
11821197887
11821206554
11821213573
11821219127
11821224437
11821229136
11821232738
11821237010
11821241588
11821247569
11821252086
11821256663
11821260814
11821265147
11821270152
11821274669
11821279246
11821283030
11821287669
11821291758
11821297252
11821300364
11821305430
11821308482
11821314708
11821320506
11821324656
11821329295
11821333384
11821339183
11821343516
11821348460
11821353648
11821358103
11821363108
11821367137
11821372691
11821376109
11821380808
11821386302
11821392039
11821396494
11821403208
11821407481
11821413462
11821417368
11821423289
11821427500
11821433665
11821438120
11821444773
11821449778
11821453745
11821458445
11821464243
11821469309
11821476145
11821481089
11821487376
11821490977
11821495737
11821501169
11821506418
11821511729
11821517039
11821524546
11821528696
11821534495
11821538828
11821543345
11821548350
11821553232
11821557932
11821564158
11821570383
11821574289
11821580149
11821584726
11821591379
11821596323
11821603037
11821609385
11821615061
11821620066
11821627207
11821631418
11821638498
11821643991
11821652048
11821659006
11821664926
11821669504
11821676401
11821682443
11821688974
11821699716
11821707285
11821715341
11821722055
11821726511
11821732065
11821742014
11821748850
11821758493
11821763315
11821772653
11821776865
11821781381
11821786142
11821791330
11821797861
11821803964
11821807443
11821813180
11821818796
11821823129
11821828317
11821832651
11821836984
11821842477
11821847055
11821852487
11821856820
11821861276
11821866647
11821871957
11821877939
11821882882
11821887826
11821892221
11821897592
11821902169
11821907296
11821912606
11821918344
11821923227
11821929696
11821934396
11821939645
11821944650
11821949227
11821954354
11821959725
11821964974
11821970101
11821976510
11821980966
11821986459
11821991708
11821997323
11822003976
11822009591
11822014962
11822020211
11822022897
11822029305
11822035165
11822038461
11822044808
11822049508
11822056344
11822060433
11822065621
11822070748
11822076424
11822081673
11822087899
11822094735
11822102303
11822106332
11822113106
11822117196
11822122323
11822127511
11822133248
11822137642
11822144417
11822149117
11822153695
11822158822
11822163826
11822169259
11822176156
11822180916
11822187325
11822193428
11822197457
11822202279
11822208565
11822212777
11822218819
11822225899
11822235237
11822240486
11822243660
11822250740
11822255562
11822261116
11822269295
11822274666
11822281990
11822287605
11822292000
11822296517
11822302864
11822309395
11822316109
11822321602
11822326973
11822331368
11822336800
11822341560
11822346748
11822351082
11822357918
11822362984
11822368904
11822373115
11822378609
11822385384
11822391365
11822395454
11822400276
11822407600
11822412300
11822417305
11822422371
11822428779
11822432686
11822438972
11822442634
11822448311
11822454597
11822459968
11822464912
11822470161
11822475349
11822480659
11822486702
11822492317
11822498726
11822504707
11822509224
11822514717
11822518745
11822524543
11822530036
11822535347
11822540535
11822546577
11822550605
11822556770
11822560859
11822566169
11822571357
11822576667
11822583869
11822589912
11822595222
11822600593
11822605659
11822611152
11822615485
11822621223
11822626716
11822634101
11822638557
11822643195
11822648322
11822653266
11822657905
11822662727
11822668952
11822674201
11822680061
11822685371
11822691230
11822695869
11822701118
11822707465
11822712958
11822722297
11822727302
11822734138
11822741706
11822748847
11822754157
11822759650
11822766669
11822777778
11822781989
11822788825
11822802558
11822808356
11822818549
11822823798
11822832038
11822844855
11822852240
11822860175
11822866156
11822876227
11822882025
11822889105
11822899664
11822904669
11822915839
11822922797
11822932745
11822939276
11822948004
11822957037
11822963385
11822971136
11822976813
11822983038
11822993353
11823000311
11823007818
11823013678
11823020941
11823026861
11823031744
11823040289
11823046393
11823055487
11823062994
11823067999
11823075689
11823081060
11823086981
11823093939
11823100714
11823106512
11823111944
11823118658
11823127813
11823133978
11823140814
11823148199
11823155401
11823161627
11823168402
11823176336
11823184637
11823191961
11823198675
11823205328
11823212530
11823220037
11823228277
11823234258
11823239385
11823248113
11823256353
11823265203
11823273443
11823279119
11823287969
11823293584
11823305852
11823312566
11823318670
11823327215
11823334661
11823340947
11823346868
11823357000
11823363714
11823370916
11823378484
11823385686
11823392339
11823399358
11823406804
11823414434
11823419927
11823428228
11823434941
11823440496
11823450383
11823452642
11823463872
11823471196
11823482427
11823489140
11823495671
11823503484
11823509282
11823517644
11823524297
11823531010
11823537419
11823547429
11823557622
11823562260
11823570622
11823578252
11823584294
11823593022
11823597478
11823606755
11823616582
11823624089
11823632023
11823638066
11823646367
11823654057
11823659367
11823667424
11823674260
11823683171
11823692570
11823702397
11823709294
11823716008
11823722966
11823728398
11823736576
11823744938
11823752506
11823761845
11823771855
11823778996
11823786076
11823793156
11823798466
11823806034
11823812687
11823820499
11823832340
11823838749
11823846073
11823853153
11823859379
11823867191
11823872501
11823878055
11823885075
11823890262
11823899784
11823906132
11823910953
11823915531
11823922306
11823927067
11823932743
11823938541
11823944889
11823949161
11823955082
11823959598
11823966068
11823970707
11823977237
11823982120
11823988285
11823993473
11824000797
11824006290
11824013736
11824021060
11824026920
11824034427
11824040470
11824046390
11824051029
11824055728
11824061527
11824065982
11824073245
11824078128
11824085880
11824090762
11824095767
11824101932
11824107120
11824111453
11824117557
11824125125
11824130618
11824135257
11824140689
11824146243
11824150760
11824158023
11824163760
11824170169
11824176273
11824181766
11824187259
11824192264
11824197818
11824202212
11824208194
11824213077
11824221316
11824225894
11824230838
11824235782
11824241275
11824244204
11824251956
11824257083
11824263308
11824269168
11824274783
11824279727
11824285830
11824291568
11824295718
11824300723
11824309085
11824312381
11824320742
11824325320
11824332583
11824337649
11824343936
11824350894
11824357241
11824364016
11824367312
11824374636
11824378909
11824385012
11824390261
11824395815
11824402529
11824407534
11824412600
11824419802
11824425723
11824430972
11824435061
11824440981
11824446658
11824453066
11824457461
11824462466
11824468630
11824473086
11824479433
11824484255
11824490725
11824495852
11824501406
11824505923
11824511172
11824515688
11824522524
11824525332
11824532229
11824535647
11824545107
11824549868
11824555178
11824560244
11824564333
11824569765
11824574953
11824580874
11824588015
11824592531
11824597292
11824604250
11824609743
11824614687
11824621096
11824626406
11824635134
11824642519
11824648500
11824658693
11824664125
11824674684
11824678652
11824683656
11824688661
11824696291
11824700807
11824705446
11824710146
11824714296
11824718874
11824723573
11824729372
11824734865
11824739687
11824745424
11824750551
11824757204
11824763551
11824769655
11824776735
11824778139
11824786378
11824791139
11824795412
11824800600
11824805910
11824812135
11824816774
11824822511
11824828004
11824833314
11824837343
11824842714
11824850221
11824856324
11824861329
11824866456
11824871339
11824876344
11824881776
11824885499
11824893800
11824900209
11824904420
11824911866
11824918092
11824923219
11824928346
11824932740
11824940309
11824946656
11824951478
11824958192
11824963014
11824969422
11824973573
11824981568
11824990357
11824994386
11825000306
11825005494
11825010621
11825015870
11825020142
11825025636
11825032227
11825038148
11825042298
11825047913
11825052247
11825057801
11825062562
11825068238
11825076417
11825082276
11825086610
11825092164
11825096863
11825103150
11825108033
11825112000
11825118836
11825122803
11825129700
11825134095
11825139283
11825142151
11825149109
11825153138
11825159119
11825166565
11825172181
11825176331
11825182618
11825188294
11825193421
11825197754
11825202820
11825208985
11825214600
11825219727
11825225281
11825230225
11825235779
11825241211
11825247071
11825253235
11825258911
11825264771
11825271240
11825276184
11825280762
11825285950
11825291077
11825295227
11825303650
11825309082
11825314392
11825318298
11825322937
11825330078
11825334167
11825338989
11825345398
11825350403
11825356811
11825361877
11825365723
11825371399
11825376831
11825381897
11825386352
11825393616
11825397766
11825403503
11825408081
11825415100
11825420349
11825425049
11825431030
11825438598
11825445068
11825450134
11825456054
11825464965
11825472290
11825476989
11825486633
11825494140
11825503540
11825507934
11825515808
11825524841
11825532958
11825540100
11825548461
11825557617
11825564941
11825572936
11825581115
11825587402
11825598937
11825605895
11825617858
11825626769
11825633544
11825641906
11825648559
11825656676
11825663634
11825671081
11825676696
11825684630
11825688964
11825698363
11825707580
11825715209
11825723083
11825728515
11825737487
11825742247
11825751342
11825759276
11825765258
11825771666
11825781249
11825788024
11825795958
11825802001
11825810546
11825817931
11825823180
11825831114
11825837340
11825847106
11825853148
11825864256
11825871092
11825876952
11825885008
11825892516
11825898680
11825905516
11825913939
11825919615
11825928893
11825938658
11825946776
11825953307
11825961302
11825966978
11825975828
11825980223
11825990843
11825998839
11826006285
11826011961
11826020628
11826026915
11826033934
11826040465
11826049131
11826057249
11826063536
11826071226
11826081541
11826088438
11826095762
11826103819
11826112974
11826120176
11826126463
11826132933
11826143125
11826151914
11826158628
11826166258
11826172361
11826179319
11826186033
11826194029
11826202329
11826208433
11826217527
11826222715
11826230344
11826237974
11826245176
11826251951
11826257871
11826264402
11826272275
11826280698
11826287168
11826295774
11826300352
11826308652
11826315366
11826323789
11826329404
11826334165
11826344541
11826353208
11826359189
11826368222
11826375058
11826383847
11826390012
11826396665
11826403745
11826411130
11826419919
11826427548
11826438657
11826447385
11826454099
11826459714
11826468198
11826472592
11826482358
11826490903
11826496335
11826504636
11826511960
11826518491
11826523801
11826531430
11826537839
11826545346
11826551633
11826559384
11826565304
11826571408
11826578244
11826584469
11826592038
11826595883
11826603634
11826611752
11826620053
11826624997
11826632626
11826637997
11826643857
11826651852
11826658383
11826665402
11826670773
11826679318
11826686703
11826693112
11826701901
11826707882
11826714535
11826723934
11826736691
11826744503
11826753536
11826758663
11826768185
11826777218
11826783199
11826789486
11826795956
11826803890
11826808102
11826820004
11826826290
11826838009
11826845394
11826850765
11826858517
11826862789
11826873104
11826880306
11826887081
11826896114
11826902706
11826909054
11826915340
11826921749
11826929195
11826935055
11826943844
11826951778
11826956417
11826967769
11826972957
11826981746
11826987789
11826993648
11826999507
11827006465
11827013179
11827018795
11827024105
11827031917
11827040340
11827046749
11827052486
11827058956
11827063960
11827070979
11827077693
11827081905
11827093807
11827100703
11827106563
11827112849
11827119930
11827128291
11827136592
11827143184
11827149226
11827156428
11827164058
11827172114
11827176936
11827186030
11827193110
11827197993
11827207393
11827215266
11827225337
11827236201
11827241938
11827251521
11827259333
11827266047
11827274775
11827281916
11827291133
11827297847
11827305110
11827311518
11827318232
11827330744
11827338313
11827343318
11827350581
11827356562
11827365168
11827375544
11827379145
11827387873
11827393366
11827399958
11827406550
11827412287
11827417841
11827429560
11827437250
11827440974
11827447382
11827456171
11827461909
11827467646
11827475031
11827481806
11827489741
11827497065
11827500727
11827508295
11827513971
11827523005
11827533014
11827540766
11827548456
11827554194
11827561579
11827569452
11827575434
11827583612
11827590204
11827596735
11827604181
11827611322
11827618891
11827627863
11827633112
11827643305
11827648737
11827657770
11827660028
11827671442
11827677057
11827689874
11827694818
11827701654
11827711664
11827719598
11827725092
11827729242
11827740289
11827748468
11827755365
11827761468
11827768548
11827778436
11827783929
11827791925
11827799737
11827805414
11827814203
11827822076
11827829644
11827832086
11827842889
11827849481
11827855035
11827864007
11827868097
11827878167
11827885064
11827908258
11827917962
11827928826
11827938226
11827950006
11827959710
11827968865
11827980401
11827993829
11828001702
11828013787
11828023492
11828032952
11828036248
11828053460
11828060296
11828074761
11828085137
11828095086
11828108208
11828121880
11828133660
11828141655
11828152092
11828163872
11828182793
11828196404
11828208672
11828220757
11828232475
11828241814
11828254265
11828260857
11828272331
11828286919
11828300102
11828309746
11828318779
11828330681
11828342400
11828349358
11828359306
11828365166
11828379997
11828386528
11828400688
11828410087
11828420646
11828428581
11828438469
11828450187
11828459465
11828468742
11828480461
11828491508
11828500175
11828509819
11828522514
11828532218
11828538444
11828550163
11828560478
11828572135
11828581046
11828589774
11828599723
11828609184
11828617423
11828626029
11828635062
11828644950
11828656974
11828668082
11828675529
11828686515
11828695060
11828703299
11828713370
11828723685
11828733695
11828739371
11828752677
11828762442
11828770133
11828782889
11828790396
11828801322
11828810294
11828821158
11828830008
11828836783
11828850028
11828857352
11828868399
11828878958
11828887320
11828895926
11828906973
11828914420
11828924796
11828936087
11828942862
11828953482
11828967276
11828973868
11828985464
11828992178
11829008536
11829017202
11829026236
11829037222
11829047415
11829059317
11829065542
11829076101
11829087088
11829097525
11829108633
11829117971
11829126638
11829139395
11829147329
11829158071
11829168081
11829176870
11829186514
11829199209
11829208974
11829217397
11829229482
11829240224
11829249197
11829258474
11829268117
11829279836
11829290212
11829299306
11829309194
11829320730
11829332753
11829345815
11829353749
11829364797
11829372487
11829384755
11829396230
11829408132
11829414723
11829428517
11829437917
11829446156
11829458180
11829466603
11829476064
11829485707
11829495473
11829499745
11829511342
11829517812
11829526601
11829532826
11829542531
11829548817
11829556508
11829563649
11829571828
11829582203
11829588917
11829598073
11829605641
11829612782
11829619679
11829627430
11829634388
11829642384
11829651539
11829657338
11829663746
11829673146
11829679249
11829686512
11829695607
11829701039
11829710438
11829716297
11829721668
11829727406
11829733387
11829739857
11829745289
11829750233
11829756153
11829761952
11829767811
11829770924
11829778065
11829784046
11829788380
11829795094
11829799305
11829806080
11829810963
11829817249
11829822620
11829827625
11829832935
11829838245
11829843250
11829849476
11829854786
11829860767
11829865284
11829871754
11829876636
11829882313
11829887562
11829893848
11829900623
11829908313
11829913685
11829917774
11829923633
11829929065
11829934986
11829939624
11829946460
11829952198
11829957264
11829962696
11829969654
11829975086
11829979847
11829985706
11829990528
11829998279
11830004138
11830008472
11830013355
11830020435
11830025318
11830030506
11830037403
11830042102
11830048450
11830054920
11830060657
11830067554
11830073657
11830076892
11830085254
11830090625
11830096118
11830101367
11830110156
11830116138
11830121448
11830125964
11830131152
11830137378
11830141589
11830148608
11830155994
11830159656
11830165576
11830169604
11830175525
11830179492
11830185779
11830191211
11830196460
11830200854
11830207324
11830211291
11830215747
11830221484
11830225818
11830232531
11830236926
11830242968
11830248339
11830254443
11830258654
11830265063
11830269274
11830274585
11830279834
11830286730
11830290576
11830297778
11830301867
11830307360
11830313037
11830318713
11830322985
11830331347
11830335314
11830342028
11830347155
11830352648
11830355578
11830362658
11830368884
11830374377
11830378954
11830385546
11830391100
11830395312
11830400927
11830406420
11830411364
11830417467
11830423266
11830427721
11830434008
11830437365
11830443529
11830447924
11830453783
11830460375
11830464953
11830470690
11830475573
11830480761
11830487353
11830491869
11830497484
11830503039
11830508593
11830513598
11830518847
11830524584
11830530077
11830535021
11830540453
11830545580
11830551256
11830556017
11830562487
11830566637
11830572496
11830578844
11830583116
11830590868
11830597338
11830604845
11830609423
11830618334
11830623094
11830631883
11830639818
11830649095
11830657335
11830669115
11830677110
11830683885
11830691515
11830700304
11830709703
11830717699
11830724779
11830734422
11830743150
11830747667
11830757616
11830767198
11830775010
11830785386
11830791978
11830801561
11830808763
11830816514
11830820787
11830827928
11830837816
11830842698
11830850389
11830856187
11830865281
11830872544
11830877793
11830884935
11830892625
11830896470
11830904466
11830910508
11830915391
11830924607
11830932176
11830940782
11830946763
11830954942
11830959214
11830969590
11830975510
11830981980
11830990281
11830998215
11831005479
11831012864
11831021104
11831027817
11831036240
11831040940
11831049729
11831056870
11831064194
11831073105
11831080613
11831088486
11831095444
11831101792
11831108689
11831116990
11831122788
11831127793
11831139450
11831146225
11831151657
11831159592
11831165940
11831174362
11831181137
11831186692
11831194809
11831201889
11831211472
11831215988
11831226364
11831233139
11831240036
11831247910
11831252548
11831259750
11831272141
11831277817
11831285507
11831292770
11831299606
11831306259
11831315231
11831322922
11831328781
11831338058
11831344467
11831354843
11831360519
11831366684
11831375290
11831380173
11831389694
11831397567
11831405563
11831415512
11831423752
11831430832
11831437423
11831443466
11831451522
11831459579
11831467514
11831474594
11831480697
11831490341
11831497055
11831505172
11831512985
11831522140
11831527328
11831534469
11831544174
11831549178
11831557967
11831565231
11831578841
11831584823
11831592208
11831597274
11831605086
11831611190
11831617599
11831626937
11831637008
11831644576
11831649703
11831656356
11831661788
11831668258
11831672774
11831679061
11831683333
11831691695
11831699813
11831711959
11831725264
11831733870
11831742965
11831751998
11831760482
11831768599
11831776961
11831783492
11831788314
11831793624
11831801558
11831810408
11831818282
11831824690
11831829817
11831834822
11831839522
11831845931
11831850997
11831857039
11831862715
11831867110
11831869551
11831876814
11831882674
11831888350
11831892928
11831898054
11831903242
11831907942
11831913740
11831921309
11831925764
11831931502
11831936201
11831940596
11831946699
11831951399
11831957869
11831962874
11831967817
11831970869
11831976729
11831983748
11831987715
11831993574
11831998579
11832002730
11832007368
11832010725
11832016096
11832020063
11832025190
11832031172
11832034895
11832039595
11832043928
11832048628
11832054121
11832059004
11832064985
11832070478
11832075361
11832082624
11832086897
11832091535
11832097944
11832102827
11832109114
11832113752
11832120588
11832125959
11832129804
11832136396
11832144026
11832150800
11832155927
11832161665
11832168134
11832172895
11832177778
11832182172
11832187177
11832191022
11832197004
11832204206
11832209638
11832214399
11832218610
11832223981
11832227338
11832232587
11832239057
11832243207
11832247480
11832252546
11832257062
11832260908
11832267255
11832272443
11832278058
11832283307
11832288251
11832293378
11832298139
11832303510
11832308515
11832312360
11832318219
11832322736
11832327924
11832332746
11832337201
11832342939
11832346906
11832352582
11832357526
11832362226
11832366803
11832371442
11832377179
11832382001
11832387616
11832392377
11832396283
11832401227
11832407269
11832413312
11832418134
11832422162
11832428388
11832431745
11832439740
11832445844
11832450360
11832457257
11832462140
11832466840
11832470990
11832476056
11832483868
11832488812
11832494000
11832499615
11832504498
11832509320
11832514386
11832522565
11832527936
11832532025
11832540387
11832545514
11832552716
11832556988
11832562726
11832569073
11832575116
11832581341
11832587323
11832591412
11832597760
11832603070
11832608380
11832619122
11832623883
11832629071
11832634137
11832639386
11832645123
11832650860
11832655987
11832661724
11832666729
11832672222
11832674969
11832681805
11832687359
11832692608
11832699871
11832705609
11832708599
11832715252
11832719402
11832725628
11832730023
11832736309
11832741131
11832747601
11832752239
11832756573
11832762859
11832768292
11832773052
11832777752
11832784039
11832791241
11832796429
11832801006
11832807903
11832812603
11832818279
11832824139
11832829998
11832836468
11832842205
11832847393
11832852825
11832858806
11832864544
11832870220
11832873760
11832880779
11832886150
11832890300
11832896709
11832901592
11832908306
11832913189
11832920025
11832925640
11832931194
11832938396
11832943401
11832948711
11832954998
11832960491
11832965190
11832971477
11832977825
11832982341
11832987102
11832993205
11832999248
11833004985
11833009807
11833015300
11833021221
11833027812
11833034526
11833040874
11833043804
11833051067
11833055522
11833062358
11833066936
11833073833
11833078288
11833082988
11833091045
11833095378
11833100200
11833105022
11833113261
11833118938
11833125285
11833131084
11833135417
11833141460
11833147807
11833152385
11833160319
11833164653
11833170329
11833175822
11833181498
11833186870
11833193828
11833200480
11833204448
11833209819
11833216716
11833220866
11833226298
11833232096
11833236125
11833242228
11833246440
11833254191
11833259379
11833264689
11833270121
11833274943
11833281108
11833285868
11833290873
11833297831
11833302592
11833307231
11833313334
11833318644
11833324748
11833329569
11833334452
11833339884
11833346720
11833351786
11833356608
11833362162
11833367228
11833373942
11833378214
11833384013
11833390421
11833395609
11833400004
11833405436
11833411845
11833416117
11833422221
11833426249
11833431010
11833438639
11833442911
11833448832
11833453348
11833459574
11833464701
11833471354
11833476847
11833482645
11833488077
11833493509
11833498636
11833504068
11833509806
11833515360
11833521280
11833528421
11833533304
11833538004
11833545267
11833549906
11833554483
11833561197
11833565775
11833571878
11833579141
11833586222
11833592874
11833597696
11833603494
11833608988
11833613443
11833621073
11833625284
11833631448
11833637491
11833643228
11833649210
11833653421
11833660257
11833664896
11833673929
11833679788
11833682718
11833690347
11833696695
11833702920
11833706338
11833713846
11833719217
11833727762
11833732645
11833739053
11833743509
11833748636
11833753518
11833759012
11833764322
11833771219
11833779825
11833784585
11833789590
11833794839
11833800027
11833805276
11833810891
11833815469
11833821328
11833827554
11833833108
11833835977
11833843301
11833847695
11833853189
11833859841
11833865762
11833869973
11833875650
11833881082
11833886453
11833890664
11833895242
11833901834
11833907449
11833912515
11833917336
11833922158
11833927285
11833932473
11833937844
11833943459
11833949624
11833956704
11833960732
11833966409
11833972451
11833977761
11833982644
11833987893
11833992409
11833999978
11834004739
11834011391
11834016335
11834023171
11834027749
11834034829
11834042519
11834046486
11834053506
11834060158
11834065774
11834073342
11834081154
11834089089
11834095864
11834101906
11834109597
11834116127
11834124245
11834128945
11834136330
11834143959
11834150063
11834158425
11834167702
11834174294
11834181313
11834187233
11834195900
11834202980
11834209633
11834216408
11834224159
11834230141
11834239967
11834246681
11834253395
11834260902
11834268959
11834275734
11834281837
11834289040
11834295692
11834304054
11834311012
11834320290
11834327919
11834333168
11834341286
11834348915
11834357582
11834362098
11834370033
11834379616
11834386268
11834398414
11834401161
11834413063
11834417701
11834430214
11834435951
11834445838
11834455543
11834458168
11834470069
11834478004
11834486610
11834491615
11834501991
11834515785
11834522559
11834530799
11834538612
11834544898
11834551124
11834559669
11834565833
11834572425
11834579810
11834584144
11834594154
11834603248
11834609046
11834615089
11834621436
11834628272
11834634070
11834641700
11834648963
11834654700
11834661231
11834668067
11834677222
11834683143
11834690223
11834697181
11834703833
11834709021
11834716407
11834724646
11834732947
11834738868
11834744544
11834751258
11834756934
11834764319
11834771216
11834775733
11834786536
11834795142
11834801184
11834808325
11834813391
11834819678
11834827124
11834833228
11834838110
11834847937
11834854712
11834862891
11834869238
11834876013
11834882788
11834891272
11834899023
11834904883
11834911475
11834920996
11834932532
11834939551
11834945410
11834953833
11834958288
11834965918
11834975500
11834983069
11834988928
11834995886
11835004370
11835008581
11835018164
11835024511
11835030554
11835038977
11835043310
11835052771
11835062048
11835069555
11835079016
11835085424
11835090551
11835098303
11835104223
11835112646
11835118261
11835126074
11835134069
11835140356
11835148779
11835154577
11835160864
11835168737
11835174108
11835181921
11835190160
11835200414
11835207311
11835214025
11835221105
11835229406
11835234472
11835244787
11835252599
11835257787
11835265416
11835274877
11835281957
11835292516
11835299474
11835305761
11835313146
11835319371
11835323949
11835331456
11835339818
11835348973
11835355931
11835363195
11835369054
11835376744
11835382726
11835389318
11835396337
11835401402
11835409459
11835416661
11835424046
11835430943
11835435765
11835442784
11835448644
11835456761
11835465733
11835470860
11835477269
11835484776
11835490636
11835496434
11835503148
11835510045
11835515416
11835524388
11835532445
11835536412
11835542882
11835551549
11835556126
11835563511
11835570469
11835576085
11835585728
11835592015
11835598362
11835604466
11835612584
11835617527
11835627598
11835633641
11835640110
11835649327
11835657994
11835665989
11835670262
11835678807
11835685398
11835691746
11835699314
11835705662
11835713841
11835721226
11835730442
11835737583
11835743809
11835750950
11835758030
11835764011
11835770603
11835777317
11835785313
11835794163
11835801304
11835806614
11835814365
11835820957
11835825962
11835833591
11835842197
11835849888
11835857639
11835865635
11835871128
11835878818
11835883152
11835889743
11835899387
11835901584
11835911960
11835920688
11835927219
11835933139
11835940097
11835947177
11835953952
11835961948
11835966403
11835975559
11835982334
11835989231
11835996494
11836005466
11836013767
11836020358
11836029208
11836034396
11836047031
11836052829
11836064853
11836072910
11836080905
11836089694
11836097262
11836104831
11836113803
11836123263
11836130710
11836138095
11836150302
11836157016
11836162082
11836171359
11836175754
11836185641
11836194369
11836202426
11836209750
11836216098
11836225131
11836229647
11836237399
11836244296
11836249484
11836258822
11836263400
11836271395
11836279513
11836287753
11836291598
11836300753
11836306918
11836314608
11836319674
11836327609
11836333773
11836342440
11836348360
11836354403
11836361605
11836368685
11836373751
11836381808
11836388460
11836395907
11836401949
11836410799
11836417879
11836424837
11836433993
11836440767
11836445833
11836454317
11836461153
11836468477
11836476717
11836482576
11836492708
11836499300
11836509127
11836519014
11836526033
11836531893
11836539766
11836545137
11836554964
11836563082
11836571260
11836577303
11836585909
11836595613
11836603182
11836610933
11836620882
11836629488
11836637788
11836646577
11836652132
11836660860
11836665376
11836673860
11836681856
11836688570
11836694917
11836702425
11836710298
11836719087
11836727083
11836734834
11836741975
11836748323
11836755220
11836762483
11836771760
11836779695
11836788911
11836796296
11836801362
11836808503
11836816804
11836822663
11836831025
11836837373
11836845002
11836852204
11836860993
11836868379
11836876740
11836884187
11836894013
11836903230
11836910066
11836919465
11836927522
11836936494
11836942597
11836952058
11836958283
11836968842
11836978120
11836980683
11836993928
11836998994
11837011750
11837020051
11837029267
11837033906
11837040314
11837049958
11837054169
11837062409
11837071503
11837078217
11837085968
11837093354
11837100068
11837106415
11837113861
11837120575
11837126068
11837132355
11837138825
11837147370
11837151642
11837159027
11837166596
11837172272
11837178253
11837185456
11837192475
11837198151
11837206574
11837210663
11837219879
11837225556
11837230682
11837237396
11837244720
11837253265
11837260712
11837269562
11837273834
11837281891
11837290069
11837295074
11837303741
11837314056
11837324982
11837333648
11837340912
11837350006
11837357696
11837363739
11837370453
11837378082
11837386200
11837392425
11837401031
11837409149
11837417755
11837424163
11837430145
11837437530
11837441864
11837452117
11837458587
11837464141
11837472137
11837480926
11837488555
11837494964
11837500579
11837509063
11837514617
11837521880
11837528167
11837536346
11837544952
11837551360
11837557586
11837565826
11837577239
11837587432
11837599456
11837607940
11837614471
11837622344
11837629119
11837637847
11837644072
11837652373
11837659881
11837666106
11837672393
11837677825
11837686187
11837690886
11837701873
11837708709
11837714385
11837722319
11837727935
11837735503
11837742217
11837748564
11837755339
11837762114
11837771453
11837777068
11837785002
11837790618
11837800993
11837808379
11837817107
11837825591
11837834074
11837846648
11837852812
11837863860
11837870146
11837879912
11837885344
11837896086
11837906218
11837917937
11837923491
11837929655
11837936308
11837940336
11837949186
11837956755
11837964995
11837972014
11837980558
11837988066
11837993864
11837999723
11838005461
11838013578
11838019316
11838025968
11838034086
11838042021
11838050444
11838054228
11838063932
11838069792
11838075651
11838082365
11838088835
11838096708
11838105558
11838111295
11838117155
11838122526
11838131254
11838136442
11838144132
11838148222
11838156950
11838164152
11838172208
11838180143
11838186613
11838192655
11838199369
11838207303
11838213712
11838221342
11838226957
11838235441
11838242399
11838248502
11838255765
11838263212
11838267972
11838276029
11838280668
11838290494
11838297330
11838304898
11838312955
11838318814
11838327420
11838332608
11838344205
11838353849
11838360440
11838368436
11838375577
11838383206
11838388333
11838397366
11838401761
11838412747
11838419766
11838426236
11838434659
11838442227
11838449490
11838456265
11838464078
11838472256
11838478848
11838485440
11838492215
11838500516
11838507168
11838518826
11838527310
11838533963
11838540616
11838547390
11838556057
11838564114
11838566433
11838578030
11838585965
11838592312
11838599026
11838605923
11838614590
11838619351
11838626309
11838636441
11838641140
11838650173
11838655789
11838667080
11838671536
11838678860
11838686855
11838696133
11838701931
11838709438
11838715542
11838723782
11838732204
11838742458
11838751492
11838761135
11838771267
11838778103
11838787929
11838794704
11838802761
11838823391
11838829677
11838837307
11838843837
11838854397
11838859096
11838868129
11838875881
11838881496
11838886989
11838894802
11838900112
11838906643
11838912075
11838916957
11838922756
11838928188
11838934169
11838939052
11838944423
11838949611
11838954982
11838959072
11838965114
11838970729
11838977321
11838981716
11838988429
11838992824
11838999172
11839003383
11839008510
11839013820
11839020107
11839025478
11839029750
11839035365
11839040614
11839046169
11839048976
11839056239
11839065211
11839069423
11839073634
11839079555
11839083827
11839090480
11839096034
11839100246
11839106166
11839111659
11839118312
11839122462
11839129237
11839133082
11839140407
11839144679
11839150416
11839156825
11839164210
11839167872
11839173304
11839179408
11839185267
11839189906
11839194667
11839201442
11839207789
11839212367
11839216822
11839223719
11839228663
11839234156
11839239466
11839245753
11839248927
11839256800
11839262599
11839268641
11839273280
11839278285
11839286280
11839290309
11839297267
11839301478
11839308131
11839313380
11839318263
11839323573
11839330409
11839333888
11839341334
11839346705
11839353114
11839359339
11839365321
11839370264
11839376246
11839383753
11839388880
11839396693
11839402674
11839407313
11839412440
11839418421
11839424341
11839430079
11839435389
11839442347
11839449061
11839453516
11839459192
11839463648
11839469019
11839474085
11839480310
11839486170
11839491541
11839496912
11839501490
11839508387
11839512476
11839517725
11839523401
11839529138
11839534082
11839539698
11839544275
11839549829
11839554102
11839560144
11839566248
11839570947
11839576624
11839582422
11839588281
11839593469
11839599451
11839605371
11839611108
11839616724
11839620996
11839629968
11839634973
11839639490
11839646448
11839651025
11839657190
11839662073
11839667078
11839673303
11839678491
11839683679
11839688989
11839693933
11839698755
11839704187
11839710412
11839714563
11839721155
11839727197
11839732507
11839738183
11839742761
11839748742
11839753564
11839759179
11839764978
11839770715
11839777795
11839783166
11839788537
11839794091
11839800317
11839803430
11839810388
11839817529
11839823205
11839826135
11839833215
11839839746
11839843347
11839850732
11839856591
11839868127
11839878747
11839888146
11839895410
11839902917
11839911889
11839918725
11839924767
11839931176
11839936486
11839942467
11839947961
11839952416
11839961449
11839967248
11839972924
11839977624
11839984582
11839989403
11839996850
11840001427
11840006554
11840012841
11840017480
11840024987
11840029076
11840037560
11840044457
11840050316
11840054406
11840058861
11840063805
11840068871
11840075646
11840081200
11840086327
11840091393
11840095726
11840102318
11840107445
11840111595
11840118309
11840124108
11840128929
11840134606
11840138695
11840145043
11840149376
11840155602
11840160668
11840165611
11840172508
11840178978
11840183617
11840191490
11840194542
11840201927
11840206993
11840214073
11840218590
11840225670
11840231529
11840237328
11840240623
11840247887
11840255516
11840261314
11840265770
11840271446
11840277916
11840283104
11840287804
11840295494
11840303978
11840308739
11840314598
11840322716
11840329979
11840334984
11840339561
11840345726
11840354149
11840360252
11840365440
11840371666
11840376487
11840381675
11840387107
11840393333
11840399009
11840403343
11840409507
11840415367
11840421165
11840425926
11840432579
11840437217
11840442527
11840448142
11840455284
11840460472
11840466331
11840471641
11840477928
11840482932
11840488853
11840494773
11840500510
11840507407
11840511314
11840516441
11840523399
11840528403
11840533286
11840539329
11840546775
11840553306
11840559287
11840564963
11840569358
11840575523
11840581931
11840589377
11840597068
11840603232
11840608237
11840613547
11840618125
11840623557
11840628867
11840637107
11840641990
11840648215
11840653037
11840659568
11840663779
11840669089
11840674094
11840679831
11840685508
11840691489
11840696616
11840702109
11840706809
11840713279
11840718039
11840722617
11840729331
11840734824
11840741355
11840746482
11840750205
11840754843
11840760459
11840764731
11840769431
11840775046
11840781333
11840785361
11840790854
11840795554
11840799887
11840802268
11840809836
11840814108
11840821494
11840826193
11840832541
11840837790
11840841513
11840845847
11840851706
11840856222
11840862570
11840868613
11840872519
11840879355
11840883322
11840889364
11840894186
11840901266
11840906454
11840912192
11840916952
11840923483
11840929220
11840934469
11840940451
11840945883
11840950155
11840955648
11840961142
11840966208
11840971579
11840977255
11840984884
11840990499
11840994711
11841000143
11841004660
11841010031
11841014181
11841020468
11841027182
11841032186
11841036764
11841042379
11841046530
11841052816
11841057394
11841063497
11841069296
11841077169
11841081930
11841087972
11841093221
11841097250
11841105856
11841110983
11841116476
11841121725
11841129049
11841135519
11841141134
11841147054
11841151937
11841157003
11841162679
11841169393
11841175374
11841181844
11841188802
11841193258
11841198202
11841203512
11841208516
11841213155
11841218648
11841223897
11841229452
11841234151
11841239339
11841243612
11841249532
11841255269
11841259603
11841266561
11841271932
11841275960
11841280965
11841286031
11841291524
11841296651
11841303914
11841308553
11841313436
11841318013
11841322286
11841327657
11841332662
11841337850
11841345540
11841350972
11841356587
11841362447
11841367757
11841371968
11841377095
11841384053
11841389851
11841395467
11841402486
11841408284
11841413533
11841417806
11841423787
11841430257
11841436726
11841442952
11841450764
11841455586
11841461446
11841466450
11841472432
11841477070
11841481953
11841489522
11841493977
11841500630
11841504719
11841511555
11841516743
11841522114
11841527180
11841533406
11841539509
11841545186
11841551411
11841556782
11841561482
11841567036
11841571919
11841577717
11841582661
11841590107
11841595478
11841600544
11841605305
11841610249
11841615071
11841621357
11841628193
11841634785
11841640949
11841647053
11841656086
11841660542
11841667683
11841674397
11841682209
11841690510
11841703999
11841709553
11841717426
11841723225
11841732258
11841737080
11841749653
11841759968
11841767658
11841776081
11841782368
11841790912
11841797687
11841804340
11841810261
11841821430
11841829609
11841837360
11841846759
11841852497
11841857807
11841865131
11841871845
11841879474
11841885578
11841890338
11841900714
11841906574
11841915607
11841921588
11841928791
11841933002
11841942157
11841948688
11841955768
11841965473
11841973041
11841982135
11841986102
11841996051
11842002887
11842010638
11842016498
11842023273
11842032611
11842039935
11842045795
11842053790
11842062762
11842071185
11842077899
11842088214
11842093158
11842101886
11842110431
11842120135
11842126666
11842134295
11842142230
11842152423
11842160418
11842169757
11842175128
11842182513
11842191546
11842200640
11842209063
11842216693
11842223101
11842229876
11842234942
11842243731
11842248309
11842257952
11842266619
11842274188
11842282305
11842289752
11842296038
11842303729
11842310442
11842318194
11842322894
11842332659
11842339678
11842349932
11842356707
11842364458
11842369890
11842378435
11842385210
11842391985
11842397234
11842406634
11842416887
11842423784
11842430437
11842437883
11842445574
11842451433
11842460405
11842467424
11842472551
11842481279
11842486589
11842498369
11842502886
11842513323
11842520220
11842528093
11842535417
11842541643
11842548479
11842556230
11842565202
11842572649
11842578813
11842587785
11842592363
11842602983
11842609758
11842615434
11842624528
11842632829
11842639177
11842645891
11842653825
11842662797
11842668230
11842676469
11842683305
11842687883
11842697526
11842704118
11842711503
11842720170
11842728959
11842732927
11842740495
11842748124
11842753801
11842761125
11842766801
11842774614
11842778581
11842787004
11842792863
11842799638
11842806657
11842813615
11842819108
11842828324
11842834794
11842840531
11842847550
11842854264
11842859696
11842867021
11842870927
11842880326
11842887101
11842893388
11842900956
11842907243
11842915055
11842922562
11842929032
11842936234
11842943986
11842950028
11842954606
11842965836
11842969987
11842977738
11842985062
11842991898
11843000138
11843004349
11843014176
11843022477
11843028336
11843036576
11843042618
11843050858
11843057389
11843062210
11843071610
11843076065
11843084549
11843095841
11843102066
11843108963
11843115616
11843123123
11843129288
11843137528
11843141739
11843148758
11843157059
11843166031
11843171646
11843179642
11843185562
11843191849
11843198868
11843206253
11843211441
11843222244
11843229080
11843237625
11843242203
11843248611
11843258072
11843260330
11843270645
11843277359
11843282547
11843290420
11843299209
11843307388
11843313553
11843319778
11843326004
11843332473
11843340042
11843346817
11843353164
11843360916
11843370559
11843376846
11843384597
11843390579
11843395156
11843406021
11843413101
11843419692
11843428237
11843435378
11843446487
11843454482
11843460586
11843466873
11843472549
11843480666
11843485061
11843496475
11843505813
11843511428
11843521499
11843527724
11843532973
11843540481
11843546584
11843553481
11843564529
11843571975
11843579116
11843586684
11843594314
11843599380
11843604201
11843611220
11843615859
11843621596
11843628798
11843633437
11843640273
11843645217
11843650039
11843655349
11843660415
11843664321
11843669875
11843678481
11843683852
11843686782
11843693740
11843698317
11843705519
11843710219
11843714919
11843722792
11843732680
11843739211
11843750929
11843755995
11843768446
11843777113
11843785658
11843789748
11843800490
11843807387
11843817519
11843824293
11843832228
11843839918
11843846937
11843857741
11843865004
11843873549
11843878248
11843889052
11843895704
11843905409
11843910902
11843919569
11843926527
11843935255
11843942518
11843948561
11843958509
11843964491
11843972425
11843980604
11843988600
11843995253
11844002943
11844009046
11844018324
11844024488
11844030470
11844040113
11844048719
11844056776
11844064466
11844072157
11844080335
11844088819
11844098158
11844104200
11844113782
11844120069
11844127943
11844137830
11844144849
11844154981
11844161512
11844168775
11844178480
11844185682
11844193616
11844203687
11844210462
11844216810
11844226026
11844236036
11844245130
11844249830
11844260694
11844267774
11844275037
11844285169
11844292859
11844303968
11844309461
11844320264
11844325574
11844335523
11844342053
11844349927
11844357251
11844366773
11844376355
11844382031
11844390332
11844398267
11844406873
11844414685
11844422742
11844428601
11844436841
11844444836
11844451001
11844458752
11844465832
11844473889
11844481091
11844489575
11844496777
11844504223
11844512158
11844519238
11844544506
11844552929
11844560742
11844567028
11844573376
11844582653
11844589550
11844597180
11844605236
11844614392
11844619152
11844629040
11844635937
11844643749
11844650097
11844658032
11844666638
11844674450
11844680676
11844689098
11844695934
11844704174
11844711864
11844719006
11844727734
11844736034
11844744823
11844754345
11844760631
11844767528
11844776684
11844785595
11844792309
11844801586
11844810070
11844816234
11844823131
11844832409
11844840343
11844847484
11844853710
11844861583
11844868663
11844878612
11844884899
11844893016
11844899242
11844908458
11844915172
11844923839
11844931713
11844938060
11844945262
11844953502
11844961315
11844970043
11844977184
11844983836
11844991771
11845000865
11845008556
11845015453
11845023326
11845030772
11845039378
11845048106
11845054332
11845060252
11845070201
11845080028
11845087413
11845095530
11845104747
11845112071
11845119395
11845130565
11845137706
11845146190
11845155223
11845163035
11845169505
11845177378
11845184458
11845190135
11845198374
11845203074
11845209788
11845214244
11845221141
11845226390
11845231761
11845236704
11845242869
11845247996
11845253306
11845259165
11845264414
11845269480
11845274790
11845278819
11845284678
11845289805
11845295969
11845301402
11845306895
11845311167
11845315745
11845321909
11845325754
11845331309
11845337046
11845342539
11845347422
11845352793
11845358347
11845363901
11845368052
11845373728
11845381663
11845387461
11845393442
11845398752
11845402964
11845409678
11845414072
11845420176
11845425119
11845430552
11845437632
11845441660
11845448679
11845453867
11845459360
11845463999
11845470102
11845477732
11845482126
11845487009
11845493906
11845498667
11845504282
11845509592
11845515329
11845521189
11845526377
11845532358
11845538706
11845543039
11845549509
11845554086
11845560129
11845564401
11845572275
11845576547
11845583505
11845588876
11845594431
11845598825
11845607187
11845611948
11845617746
11845625253
11845630502
11845635202
11845640756
11845647531
11845653390
11845657785
11845662057
11845668893
11845674753
11845681039
11845686715
11845690500
11845698373
11845703256
11845711129
11845717843
11845721811
11845730600
11845736642
11845740609
11845747934
11845753610
11845758493
11845764901
11845771981
11845778451
11845784066
11845788461
11845794931
11845799752
11845805368
11845811227
11845816598
11845821786
11845825753
11845831307
11845836678
11845841622
11845847054
11845850289
11845856149
11845861703
11845865853
11845871774
11845877694
11845883431
11845888497
11845893868
11845899361
11845904488
11845909798
11845914742
11845920357
11845927071
11845933114
11845937447
11845942757
11845946969
11845953499
11845957772
11845963631
11845968575
11845974007
11845980477
11845986397
11845990731
11845995736
11846002083
11846005990
11846013924
11846017891
11846025032
11846032052
11846036812
11846041878
11846047310
11846052071
11846058602
11846065499
11846071724
11846076241
11846082527
11846088448
11846093209
11846096810
11846104622
11846109810
11846115792
11846121712
11846126900
11846132332
11846136360
11846140511
11846147164
11846151924
11846158150
11846163277
11846169563
11846175545
11846179878
11846185127
11846191902
11846198311
11846202950
