11767762538
11767767542
11767772730
11767777003
11767781703
11767786829
11767792078
11767797327
11767801600
11767807032
11767812830
11767817896
11767822718
11767828577
11767834681
11767840174
11767846827
11767851466
11767857264
11767862391
11767867457
11767873316
11767878931
11767883997
11767891566
11767898829
11767904383
11767910059
11767915247
11767921595
11767928187
11767933924
11767940638
11767946680
11767953028
11767959436
11767968225
11767975672
11767981165
11767985865
11767993006
11767999109
11768005640
11768012049
11768016626
11768022547
11768028772
11768033838
11768038721
11768043970
11768049341
11768055322
11768061182
11768069360
11768075525
11768081384
11768085474
11768093469
11768099756
11768106592
11768112573
11768118677
11768123376
11768130823
11768136987
11768143762
11768149072
11768156274
11768163171
11768167810
11768175195
11768182214
11768188013
11768195154
11768201867
11768206750
11768211572
11768220666
11768226342
11768233300
11768240136
11768244470
11768252710
11768261560
11768268274
11768275537
11768282739
11768288232
11768294091
11768300622
11768306359
11768312890
11768319238
11768324060
11768331445
11768337792
11768343163
11768347375
11768355676
11768360681
11768367516
11768373681
11768378869
11768384606
11768391015
11768398217
11768404076
11768410973
11768415429
11768421227
11768426904
11768433495
11768438012
11768446679
11768453088
11768458337
11768463708
11768470055
11768475670
11768482018
11768489770
11768495446
11768501000
11768507653
11768513268
11768519066
11768524498
11768531334
11768538842
11768543724
11768550316
11768556542
11768562218
11768569481
11768575402
11768582726
11768587853
11768594689
11768601525
11768606468
11768615441
11768621666
11768636009
11768643883
11768650414
11768655968
11768662010
11768669945
11768676354
11768682701
11768688438
11768695152
11768702538
11768707481
11768714439
11768721275
11768729088
11768735313
11768740501
11768748436
11768753319
11768761864
11768768883
11768776146
11768782738
11768789696
11768797142
11768803856
11768810508
11768818504
11768826500
11768834739
11768841697
11768848838
11768855674
11768863182
11768870933
11768878135
11768886680
11768892967
11768900657
11768909324
11768916343
11768925559
11768933738
11768940574
11768949302
11768955283
11768963584
11768970298
11768980247
11768988548
11768995506
11769004417
11769012046
11769017783
11769025474
11769030784
11769038718
11769044578
11769053123
11769059104
11769066367
11769072166
11769081016
11769085105
11769096824
11769103782
11769110801
11769116721
11769122641
11769126365
11769132895
11769135520
11769142295
11769146628
11769152243
11769155967
11769162009
11769167197
11769170371
11769175986
11769181052
11769186911
11769190818
11769197226
11769201132
11769205893
11769210654
11769215781
11769219992
11769228415
11769233847
11769239462
11769244040
11769250449
11769254904
11769260458
11769264731
11769273764
11769278037
11769283957
11769287558
11769291953
11769295676
11769300009
11769305136
11769309164
11769313437
11769316489
11769321127
11769325339
11769329123
11769333395
11769339255
11769344382
11769348349
11769352194
11769356589
11769358786
11769363791
11769368857
11769374533
11769379355
11769383505
11769387655
11769391684
11769395895
11769400290
11769403891
11769410727
11769415487
11769420248
11769424704
11769429098
11769432211
11769437338
11769442221
11769446920
11769452353
11769456503
11769459738
11769465292
11769469503
11769474569
11769478292
11769483908
11769490072
11769494955
11769498739
11769503317
11769508383
11769512167
11769517904
11769521993
11769528097
11769532858
11769538900
11769542867
11769547140
11769552633
11769556905
11769562582
11769566915
11769571859
11769577108
11769583334
11769588339
11769592855
11769597555
11769602132
11769609579
11769614217
11769619344
11769624349
11769629598
11769632040
11769637960
11769643026
11769647970
11769653646
11769658773
11769663900
11769667501
11769673238
11769676717
11769682454
11769685689
11769693563
11769697896
11769704061
11769709005
11769714254
11769720357
11769725423
11769729574
11769739034
11769744649
11769752462
11769758626
11769764058
11769768209
11769774678
11769779622
11769785421
11769790547
11769794637
11769799398
11769804830
11769808919
11769813069
11769818013
11769823384
11769828084
11769833882
11769837666
11769842854
11769846700
11769851827
11769855428
11769860982
11769866597
11769870320
11769874165
11769879292
11769883321
11769888814
11769893941
11769898824
11769905049
11769910298
11769915364
11769919087
11769923299
11769927998
11769933369
11769938924
11769943867
11769949300
11769954671
11769959309
11769964009
11769967488
11769972676
11769980061
11769984578
11769990620
11769994649
11769999653
11770004658
11770009419
11770014424
11770019612
11770025471
11770031208
11770035481
11770040120
11770045735
11770050679
11770055012
11770060444
11770066365
11770072041
11770076924
11770081868
11770086750
11770091389
11770101216
11770105366
11770112324
11770118550
11770123799
11770127400
11770133564
11770137226
11770143269
11770146870
11770153706
11770159077
11770164204
11770169514
11770173725
11770178547
11770183308
11770187153
11770194050
11770199055
11770204609
11770209187
11770213520
11770219685
11770224567
11770228229
11770234394
11770238911
11770247150
11770252643
11770258808
11770263691
11770268268
11770270954
11770280536
11770286335
11770291706
11770296772
11770299885
11770304828
11770309223
11770315510
11770320514
11770325763
11770330890
11770334919
11770339374
11770343280
11770346759
11770352863
11770358295
11770362690
11770366962
11770371234
11770375507
11770380573
11770384662
11770391681
11770396381
11770401020
11770405414
11770410053
11770414813
11770419208
11770422687
11770429157
11770433795
11770438739
11770443378
11770448078
11770451984
11770457599
11770461261
11770466449
11770471576
11770476398
11770480548
11770487445
11770493304
11770499103
11770502460
11770510089
11770515826
11770520831
11770526080
11770531085
11770536090
11770541034
11770545245
11770550799
11770556171
11770561481
11770566241
11770571368
11770575519
11770579913
11770586627
11770590289
11770595965
11770600543
11770606952
11770611529
11770615741
11770620257
11770624591
11770627154
11770637103
11770641742
11770647235
11770652606
11770657000
11770659503
11770665667
11770669451
11770676837
11770682452
11770687640
11770691973
11770697772
11770701373
11770705828
11770711383
11770716998
11770721575
11770728045
11770732867
11770737505
11770742755
11770748614
11770754168
11770760821
11770768511
11770774249
11770780169
11770786028
11770793047
11770798235
11770804766
11770808794
11770813982
11770820147
11770824419
11770828936
11770834307
11770838885
11770843096
11770847979
11770852923
11770857805
11770862261
11770867815
11770871172
11770876543
11770880205
11770884600
11770889055
11770894854
11770898882
11770904925
11770908892
11770913714
11770917742
11770925676
11770929827
11770934771
11770938555
11770943316
11770947222
11770952044
11770957476
11770961077
11770966936
11770973040
11770977312
11770982683
11770986650
11770990557
11770995745
11771000261
11771008257
11771013567
11771018938
11771023454
11771028276
11771032182
11771037065
11771042436
11771049028
11771054765
11771058672
11771062578
11771069109
11771072771
11771077837
11771082780
11771087358
11771095537
11771103654
11771108598
11771113115
11771118608
11771123308
11771127641
11771134355
11771140642
11771145341
11771151933
11771155534
11771161272
11771165910
11771170244
11771175676
11771180436
11771186906
11771192094
11771195878
11771201555
11771205339
11771210222
11771215104
11771220842
11771225419
11771230729
11771236161
11771241716
11771246171
11771251725
11771256791
11771262223
11771270036
11771276872
11771284196
11771289689
11771298783
11771306474
11771312455
11771321488
11771327897
11771336930
11771344499
11771354447
11771362382
11771370011
11771373673
11771382157
11771388322
11771393754
11771403214
11771407487
11771414811
11771422257
11771429032
11771434159
11771440934
11771446000
11771453141
11771462357
11771468278
11771475113
11771480485
11771485795
11771491654
11771497025
11771504960
11771510636
11771521561
11771526017
11771533585
11771540482
11771547928
11771555008
11771559769
11771567643
11771573563
11771581314
11771588578
11771590897
11771602249
11771606522
11771615738
11771621903
11771628250
11771635880
11771640091
11771653336
11771659866
11771664688
11771672379
11771680069
11771685501
11771691605
11771697647
11771704605
11771709732
11771718643
11771726272
11771730850
11771737869
11771743301
11771750503
11771756241
11771763260
11771768875
11771774673
11771784622
11771791336
11771798294
11771804458
11771810440
11771816299
11771822647
11771828872
11771833816
11771843399
11771852310
11771857986
11771864517
11771870803
11771877822
11771882949
11771890823
11771897232
11771903274
11771912246
11771919692
11771928054
11771931960
11771939834
11771945815
11771952834
11771959914
11771964065
11771974624
11771981521
11771986587
11771993606
11772000503
11772007278
11772013320
11772020339
11772027785
11772032851
11772042312
11772050735
11772056594
11772062942
11772069167
11772077407
11772081679
11772089004
11772095717
11772108657
11772115676
11772123305
11772130690
11772136916
11772144484
11772148635
11772157912
11772164138
11772172011
11772178603
11772185378
11772192519
11772199172
11772204909
11772210219
11772217482
11772222792
11772228774
11772234938
11772241469
11772248549
11772252455
11772261061
11772267287
11772273329
11772279799
11772285414
11772293288
11772300307
11772307814
11772313795
11772319655
11772326674
11772331740
11772339247
11772344618
11772354506
11772360731
11772365126
11772374037
11772382704
11772388075
11772396010
11772404738
11772409132
11772420363
11772425673
11772432447
11772440199
11772447035
11772452528
11772458876
11772465040
11772471937
11772478468
11772487745
11772494703
11772503858
11772509657
11772514845
11772521986
11772526014
11772532789
11772539747
11772545179
11772555921
11772564588
11772570570
11772576795
11772582471
11772589429
11772596876
11772602430
11772608533
11772616956
11772624830
11772631605
11772639539
11772648694
11772654127
11772658887
11772669629
11772676160
11772685193
11772693189
11772695569
11772707959
11772712354
11772722059
11772728833
11772736036
11772741468
11772750013
11772757154
11772763990
11772770581
11772777295
11772782910
11772790906
11772794812
11772801282
11772810315
11772812329
11772823804
11772831616
11772838330
11772844617
11772851819
11772857617
11772865064
11772870679
11772877087
11772884167
11772892468
11772897900
11772906445
11772913830
11772920911
11772928784
11772934765
11772943432
11772948559
11772961682
11772970227
11772975842
11772984448
11772992993
11772997509
11773004956
11773010083
11773015759
11773023999
11773030468
11773037487
11773044018
11773049572
11773056652
11773062329
11773067150
11773073925
11773081249
11773090954
11773096081
11773102429
11773109997
11773118908
11773124035
11773128063
11773139843
11773145825
11773156506
11773164806
11773173290
11773179699
11773185986
11773193676
11773199657
11773203625
11773211437
11773218639
11773226147
11773230663
11773238293
11773243786
11773249462
11773256542
11773262584
11773271557
11773275707
11773284191
11773295055
11773302196
11773308056
11773315258
11773321239
11773327709
11773333812
11773340831
11773345226
11773354564
11773361339
11773369823
11773380016
11773387950
11773393077
11773399303
11773409252
11773415538
11773420970
11773431651
11773439098
11773446849
11773451427
11773459239
11773465160
11773469920
11773477061
11773480907
11773492198
11773500011
11773505931
11773511973
11773518870
11773523692
11773530284
11773538463
11773544383
11773548472
11773561900
11773568309
11773576732
11773580882
11773588267
11773595103
11773600230
11773608165
11773612132
11773624034
11773630687
11773637400
11773644542
11773650889
11773656810
11773663218
11773668040
11773676951
11773679576
11773691538
11773700877
11773707102
11773713328
11773718943
11773726084
11773732981
11773741831
11773750864
11773758921
11773766367
11773774851
11773782053
11773793711
11773801951
11773810007
11773818186
11773824595
11773834299
11773842356
11773849070
11773855295
11773861338
11773868479
11773876230
11773883921
11773887949
11773897837
11773904917
11773912790
11773919260
11773925608
11773933115
11773939829
11773946299
11773953623
11773961740
11773967050
11773976694
11773983103
11773989267
11773995920
11774002512
11774007578
11774014780
11774018503
11774029489
11774035288
11774043527
11774049936
11774051950
11774061472
11774066965
11774074594
11774080820
11774086069
11774094858
11774102731
11774108957
11774115488
11774122201
11774129281
11774135141
11774140756
11774146982
11774155893
11774164377
11774171884
11774179818
11774185800
11774194589
11774199167
11774210214
11774217233
11774224618
11774235055
11774243295
11774248727
11774255563
11774264291
11774271005
11774277963
11774283517
11774287789
11774299142
11774305551
11774313485
11774319650
11774321664
11774331551
11774337716
11774344308
11774351327
11774353524
11774368478
11774375863
11774381478
11774388314
11774393868
11774401864
11774407784
11774415475
11774421822
11774426034
11774436532
11774441842
11774449776
11774455941
11774461068
11774468514
11774477181
11774482125
11774488228
11774497078
11774503853
11774511177
11774518197
11774524239
11774530770
11774536812
11774542855
11774549813
11774554879
11774563607
11774572151
11774579232
11774586006
11774593514
11774601204
11774607613
11774616829
11774623360
11774631600
11774641914
11774650765
11774660469
11774668037
11774673897
11774679512
11774687386
11774692451
11774696907
11774706489
11774711311
11774718758
11774722542
11774730293
11774737312
11774742561
11774748604
11774754524
11774763679
11774769844
11774775337
11774780891
11774789375
11774795295
11774800544
11774808479
11774812385
11774822517
11774831977
11774838447
11774845588
11774850654
11774858284
11774864326
11774870491
11774877449
11774883369
11774891975
11774896675
11774903388
11774912055
11774917732
11774924995
11774931159
11774938911
11774945258
11774952766
11774962531
11774968208
11774974799
11774982795
11774990424
11774995307
11775002998
11775007087
11775018500
11775025397
11775031013
11775039863
11775043830
11775051581
11775057807
11775064216
11775071052
11775076972
11775085151
11775093451
11775100043
11775105903
11775112128
11775119147
11775125068
11775130561
11775136969
11775145331
11775153083
11775159369
11775168158
11775176520
11775182868
11775189826
11775196417
11775203314
11775209845
11775218756
11775226019
11775232489
11775241156
11775245978
11775253241
11775261115
11775266425
11775272345
11775283392
11775289557
11775297369
11775305304
11775312933
11775320624
11775327399
11775336615
11775342352
11775351751
11775358587
11775365057
11775371771
11775375799
11775385504
11775392096
11775400885
11775407232
11775418402
11775429754
11775439703
11775447821
11775458624
11775466986
11775474981
11775484014
11775491888
11775502142
11775507452
11775515814
11775521063
11775530706
11775538458
11775546453
11775553533
11775560125
11775567999
11775574529
11775580267
11775586248
11775592779
11775599615
11775607122
11775612554
11775616338
11775626897
11775635686
11775641912
11775651311
11775656499
11775665410
11775671026
11775677251
11775684453
11775693242
11775702886
11775710393
11775718450
11775726445
11775734380
11775742986
11775751531
11775758855
11775768132
11775772344
11775782598
11775789067
11775795232
11775803105
11775809514
11775819280
11775825749
11775836369
11775841618
11775849614
11775857610
11775864140
11775872990
11775877385
11775886723
11775893498
11775902348
11775912785
11775920048
11775926762
11775933598
11775938969
11775947636
11775952153
11775963505
11775970646
11775978215
11775986027
11775992314
11776000248
11776007817
11776013615
11776020024
11776027043
11776034611
11776039006
11776048405
11776054875
11776064091
11776070317
11776072331
11776082035
11776088017
11776093388
11776100285
11776107487
11776115971
11776120854
11776130314
11776136478
11776142094
11776149174
11776153263
11776159977
11776166813
11776174686
11776182194
11776187687
11776195927
11776202091
11776207584
11776214359
11776220096
11776228092
11776232059
11776239261
11776248478
11776256107
11776264225
11776272342
11776283207
11776292728
11776299442
11776307438
11776317936
11776328434
11776334598
11776342289
11776348636
11776357608
11776361698
11776371768
11776377445
11776387027
11776393924
11776401309
11776408756
11776415286
11776423465
11776427738
11776435855
11776443057
11776449710
11776458621
11776462772
11776471317
11776477664
11776484866
11776491824
11776497378
11776504825
11776511416
11776521487
11776525699
11776531802
11776540469
11776544925
11776552310
11776556582
11776565738
11776571780
11776577273
11776586429
11776591800
11776599124
11776606509
11776612368
11776618655
11776624270
11776633975
11776638186
11776651858
11776658938
11776664553
11776673037
11776678591
11776687441
11776694460
11776699893
11776709109
11776711306
11776723940
11776730715
11776736636
11776743411
11776749819
11776758181
11776766360
11776772219
11776778567
11776787356
11776795534
11776803530
11776811098
11776817507
11776823977
11776832461
11776837343
11776844851
11776851320
11776860842
11776865419
11776871889
11776881289
11776888002
11776893496
11776897646
11776908266
11776914553
11776922487
11776931032
11776937197
11776945436
11776952455
11776957826
11776964784
11776972353
11776977785
11776984011
11776995119
11777001894
11777007326
11777014711
11777021852
11777029726
11777036073
11777042604
11777050172
11777058595
11777065919
11777072267
11777078432
11777084535
11777091859
11777100099
11777105287
11777114931
11777122133
11777132448
11777140748
11777148927
11777158021
11777160402
11777172609
11777179750
11777186464
11777193055
11777199220
11777209230
11777214112
11777220887
11777227052
11777231752
11777238587
11777242616
11777248780
11777252809
11777259217
11777264283
11777269227
11777274232
11777279481
11777284791
11777289674
11777295411
11777300477
11777305421
11777310548
11777316407
11777322083
11777326844
11777332093
11777336732
11777343751
11777349366
11777355286
11777360169
11777364930
11777371094
11777376282
11777381104
11777385316
11777393555
11777399049
11777404481
11777408997
11777414673
11777421204
11777425355
11777429566
11777437012
11777441468
11777446900
11777452698
11777457032
11777463318
11777468323
11777473084
11777479859
11777485657
11777491272
11777496705
11777501038
11777507630
11777512024
11777517517
11777522095
11777527832
11777532227
11777538758
11777543091
11777547303
11777553406
11777557495
11777563599
11777569397
11777574280
11777579407
11777584656
11777589783
11777596802
11777600342
11777606995
11777610046
11777618225
11777623291
11777628662
11777631775
11777639160
11777644226
11777650452
11777656189
11777661804
11777671509
11777676269
11777683288
11777690124
11777695068
11777705078
11777712036
11777717651
11777725769
11777735534
11777743225
11777751404
11777759155
11777764221
11777773315
11777778564
11777790344
11777796997
11777803161
11777813171
11777823120
11777830566
11777837463
11777846923
11777854248
11777860656
11777868408
11777877563
11777885681
11777889587
11777897277
11777903442
11777910339
11777916747
11777922363
11777928344
11777934020
11777939697
11777944946
11777947692
11777954284
11777958434
11777964904
11777969115
11777975402
11777980346
11777985839
11777989684
11777995910
11778000060
11778006286
11778010741
11778015746
11778022948
11778028747
11778033935
11778039428
11778045287
11778048034
11778055663
11778061278
11778068725
11778074340
11778079711
11778083800
11778088073
11778094481
11778098754
11778105162
11778109496
11778116027
11778120543
11778127196
11778132567
11778137511
11778142211
11778147582
11778152220
11778159056
11778167479
11778174986
11778182189
11778188353
11778194518
11778201415
11778206419
11778212828
11778217772
11778222105
11778226927
11778231078
11778235655
11778239928
11778245909
11778251280
11778256468
11778260435
11778265623
11778269591
11778274535
11778279112
11778285155
11778288939
11778293883
11778299071
11778303770
11778308043
11778313597
11778319334
11778325621
11778331968
11778337095
11778341429
11778345762
11778353148
11778357115
11778364927
11778370604
11778375670
11778380919
11778385191
11778389952
11778394468
11778399961
11778405272
11778409544
11778414610
11778419310
11778423582
11778426634
11778431394
11778436705
11778441587
11778445982
11778451780
11778456480
11778461729
11778465879
11778471067
11778476499
11778480345
11778485777
11778491392
11778496397
11778499876
11778505613
11778510252
11778516477
11778521726
11778526853
11778531980
11778535764
11778540220
11778546018
11778551939
11778558408
11778563291
11778568174
11778574155
11778578916
11778583311
11778588987
11778594480
11778601133
11778606260
11778611143
11778615720
11778621091
11778624998
11778630979
11778635312
11778643430
11778648374
11778654538
11778658750
11778664731
11778669065
11778674253
11778679013
11778684995
11778690183
11778695920
11778701108
11778705625
11778712217
11778716672
11778721860
11778727780
11778734006
11778737729
11778744626
11778749692
11778756467
11778762509
11778766965
11778772336
11778778562
11778785642
11778790158
11778797482
11778801206
11778809079
11778813962
11778819333
11778822263
11778829892
11778836850
11778841672
11778845212
11778852719
11778858090
11778862790
11778867062
11778874142
11778884152
11778887326
11778895505
11778900632
11778908078
11778912839
11778918332
11778926877
11778934140
11778940243
11778944211
11778951108
11778956479
11778960629
11778967709
11778974423
11778979245
11778984005
11778989743
11778994748
11779000302
11779005062
11779010495
11779016232
11779021664
11779025692
11779029843
11779036129
11779040280
11779046688
11779050839
11779057430
11779064083
11779070004
11779074276
11779078610
11779084896
11779089962
11779095028
11779098751
11779105709
11779110836
11779116268
11779119381
11779126705
11779132748
11779137630
11779142330
11779149593
11779154049
11779160763
11779164913
11779169369
11779175960
11779182247
11779187130
11779190792
11779198177
11779202694
11779208492
11779214596
11779218807
11779223324
11779230404
11779234310
11779242489
11779246761
11779253048
11779257503
11779264583
11779269405
11779276546
11779282283
11779288875
11779297847
11779304439
11779310787
11779316219
11779323665
11779328060
11779334407
11779342098
11779351497
11779361751
11779364376
11779375667
11779382442
11779389644
11779395076
11779399593
11779410884
11779417598
11779421993
11779432368
11779441951
11779448116
11779455074
11779461238
11779468928
11779473384
11779484187
11779490779
11779496882
11779506038
11779513179
11779520198
11779527034
11779533015
11779541011
11779548396
11779555903
11779563228
11779571833
11779581111
11779590632
11779600032
11779607905
11779617610
11779624629
11779633296
11779637629
11779650508
11779658015
11779663508
11779670527
11779675776
11779683405
11779687129
11779697749
11779703608
11779710322
11779718256
11779726496
11779733332
11779739375
11779745112
11779752924
11779758784
11779765864
11779770563
11779779230
11779785395
11779793024
11779798762
11779805964
11779810602
11779818537
11779824457
11779831537
11779839045
11779851130
11779855768
11779864496
11779869257
11779879511
11779886347
11779893122
11779900507
11779907038
11779916376
11779923578
11779930841
11779938471
11779945551
11779950800
11779957514
11779965692
11779972284
11779981073
11779988825
11779994989
11780002863
11780009699
11780014764
11780022394
11780030023
11780035516
11780041803
11780052545
11780059259
11780063959
11780071161
11780078668
11780084650
11780090936
11780098016
11780105462
11780111505
11780120294
11780128167
11780134088
11780142938
11780147882
11780155206
11780162835
11780169122
11780175470
11780182183
11780192010
11780198663
11780204278
11780213128
11780219354
11780225518
11780231866
11780239434
11780243707
11780254083
11780258721
11780268975
11780275262
11780279962
11780288323
11780292474
11780300164
11780309686
11780314751
11780323052
11780331109
11780336236
11780342706
11780349602
11780358453
11780363213
11780371392
11780375603
11780387444
11780394402
11780400567
11780408928
11780417107
11780424431
11780432122
11780439019
11780446587
11780455132
11780463433
11780474968
11780481621
11780490715
11780498345
11780505364
11780510674
11780516106
11780525078
11780530632
11780537712
11780543083
11780549065
11780554314
11780559807
11780564629
11780569145
11780574944
11780582817
11780587944
11780593010
11780598991
11780602715
11780607597
11780611992
11780618889
11780622551
11780628777
11780633537
11780638969
11780643852
11780649284
11780653496
11780659782
11780664238
11780670341
11780676079
11780681145
11780685356
11780690605
11780696159
11780701835
11780707023
11780712578
11780719047
11780722465
11780729240
11780733513
11780738884
11780744621
11780750358
11780755180
11780760795
11780767326
11780773185
11780778129
11780783378
11780787651
11780793327
11780800224
11780804496
11780809318
11780814811
11780819511
11780824089
11780829643
11780835990
11780842948
11780848014
11780853507
11780859245
11780864860
11780869865
11780875236
11780879569
11780884208
11780890922
11780896903
11780902458
11780905936
11780912223
11780917167
11780922721
11780929130
11780935538
11780940482
11780947623
11780951957
11780957633
11780963065
11780968375
11780973441
11780979056
11780982352
11780989188
11780993339
11780999930
11781004020
11781008292
11781016837
11781023429
11781028373
11781036063
11781041984
11781046988
11781053580
11781059317
11781063468
11781070731
11781076651
11781082267
11781086173
11781092337
11781095755
11781102469
11781107840
11781112906
11781118766
11781123587
11781128653
11781134024
11781138602
11781144095
11781148184
11781154593
11781160819
11781166861
11781171683
11781176688
11781181632
11781187552
11781192374
11781197928
11781205496
11781210013
11781216299
11781221182
11781226309
11781231070
11781236319
11781240958
11781247671
11781253897
11781257925
11781262076
11781268729
11781272940
11781277823
11781283865
11781289541
11781294607
11781300223
11781305777
11781312185
11781317373
11781321768
11781327017
11781332266
11781338858
11781344351
11781349722
11781354361
11781360220
11781364370
11781368826
11781374990
11781378958
11781385122
11781390676
11781397146
11781401419
11781407888
11781412771
11781417715
11781420523
11781429067
11781433645
11781439138
11781444815
11781450064
11781455435
11781460867
11781465139
11781471365
11781475759
11781483083
11781487966
11781494863
11781499685
11781507131
11781511465
11781516958
11781521352
11781528616
11781535207
11781541006
11781546133
11781551382
11781557790
11781563772
11781570669
11781576101
11781583913
11781591543
11781596792
11781602651
11781609670
11781615163
11781623037
11781630666
11781636525
11781641897
11781646840
11781653493
11781658315
11781665090
11781671926
11781676625
11781680593
11781687001
11781691091
11781696218
11781701223
11781706777
11781712148
11781717702
11781722646
11781727956
11781732228
11781738454
11781742604
11781749562
11781754140
11781759694
11781766225
11781772267
11781777272
11781784474
11781789052
11781797047
11781802419
11781809010
11781815053
11781820851
11781825734
11781831471
11781838063
11781843007
11781850758
11781855153
11781861745
11781865895
11781873158
11781877736
11781885060
11781888722
11781893788
11781900014
11781904164
11781910328
11781914174
11781920399
11781926075
11781931080
11781934803
11781942128
11781947926
11781952992
11781957203
11781962819
11781968312
11781973683
11781978382
11781985279
11781989491
11781996571
11782001026
11782007313
11782012013
11782018238
11782023121
11782028248
11782033558
11782038197
11782045338
11782049916
11782055653
11782060352
11782066273
11782070912
11782079762
11782085804
11782089710
11782096790
11782104847
11782109974
11782116077
11782120960
11782127308
11782132435
11782138477
11782143116
11782147755
11782152882
11782159229
11782163563
11782167957
11782175770
11782185535
11782190662
11782194813
11782202320
11782206226
11782212391
11782217029
11782224964
11782231800
11782236927
11782241749
11782247730
11782252491
11782257190
11782262256
11782267688
11782272449
11782277820
11782283680
11782289112
11782293628
11782298938
11782303211
11782309741
11782313953
11782320667
11782324695
11782331348
11782335559
11782340076
11782346362
11782351489
11782358142
11782363635
11782368579
11782372058
11782378650
11782383350
11782388599
11782394214
11782401172
11782405689
11782411304
11782416003
11782421985
11782428088
11782431628
11782437427
11782441394
11782448657
11782453845
11782458728
11782462939
11782468371
11782473865
11782479175
11782484180
11782491260
11782496997
11782500964
11782507800
11782511340
11782517871
11782522510
11782527392
11782532946
11782539233
11782544665
11782549853
11782555590
11782560656
11782565234
11782571887
11782574878
11782582263
11782587573
11782593737
11782598803
11782604296
11782610156
11782619738
11782626452
11782634997
11782641955
11782652575
11782656725
11782666491
11782672656
11782678881
11782687914
11782695300
11782702624
11782709094
11782716784
11782725634
11782731799
11782742480
11782750597
11782757067
11782768297
11782775866
11782781969
11782790941
11782799303
11782806750
11782815111
11782821825
11782830980
11782837877
11782850817
11782857164
11782864183
11782871935
11782878527
11782885790
11782894518
11782900682
11782908983
11782915270
11782921862
11782929308
11782935716
11782942674
11782951036
11782957628
11782964403
11782972154
11782979479
11782986925
11782994188
11783002611
11783009569
11783016527
11783024156
11783030870
11783038621
11783045579
11783054246
11783062303
11783070360
11783078905
11783084886
11783093370
11783101121
11783108446
11783114488
11783125535
11783134202
11783140977
11783148729
11783157701
11783163560
11783172105
11783179979
11783186326
11783194688
11783203477
11783208360
11783217698
11783224168
11783231370
11783238267
11783248155
11783252915
11783262864
11783269395
11783277329
11783284470
11783292283
11783298570
11783306565
11783315415
11783321091
11783331712
11783339097
11783346909
11783353928
11783362351
11783369248
11783377793
11783384812
11783392991
11783402878
11783408494
11783418564
11783423691
11783432480
11783441575
11783447922
11783458054
11783467331
11783474045
11783483261
11783490219
11783499070
11783507004
11783515976
11783523728
11783531967
11783539292
11783549729
11783556259
11783563034
11783571213
11783581406
11783586899
11783598007
11783603745
11783617050
11783625046
11783635178
11783641037
11783651230
11783659347
11783666916
11783674362
11783681503
11783692062
11783699447
11783706161
11783714035
11783720443
11783728500
11783734726
11783743515
11783752182
11783760421
11783766647
11783772506
11783781723
11783788803
11783795944
11783802780
11783812667
11783818099
11783825912
11783833358
11783841232
11783847579
11783855941
11783864303
11783869918
11783879134
11783885055
11783894271
11783901778
11783908920
11783915878
11783923995
11783930709
11783941634
11783948226
11783956039
11783962508
11783970321
11783976668
11783984176
11783994063
11784000655
11784008590
11784015853
11784024764
11784032393
11784041304
11784046737
11784052840
11784057357
11784066085
11784070235
11784075057
11784081588
11784085555
11784092452
11784096541
11784102278
11784107772
11784114607
11784119551
11784125533
11784130171
11784136336
11784141219
11784146346
11784151595
11784159041
11784164717
11784170271
11784175642
11784180403
11784186263
11784190962
11784197432
11784202681
11784208784
11784214766
11784219893
11784225813
11784231367
11784237288
11784242659
11784248579
11784253462
11784260420
11784265059
11784270613
11784275923
11784281050
11784287153
11784292769
11784296980
11784301558
11784308638
11784314558
11784323042
11784326521
11784337996
11784342146
11784349043
11784357588
11784363203
11784368635
11784373945
11784381453
11784385908
11784390119
11784396711
11784400862
11784406477
11784411360
11784414961
11784420393
11784424543
11784428999
11784433637
11784438337
11784443342
11784446516
11784451765
11784455854
11784459028
11784466047
11784470869
11784475202
11784479109
11784483381
11784486921
11784492414
11784497175
11784503400
11784508405
11784513105
11784516584
11784522260
11784525739
11784530134
11784535688
11784541181
11784546186
11784550703
11784556013
11784562360
11784566144
11784572187
11784578168
11784583173
11784589094
11784593976
11784598310
11784604047
11784608320
11784614301
11784619306
11784624067
11784629926
11784635602
11784640668
11784646161
11784651105
11784656293
11784660505
11784667218
11784672956
11784679242
11784684491
11784689374
11784693830
11784698896
11784704755
11784709821
11784714887
11784720197
11784725446
11784731854
11784738141
11784744550
11784750287
11784756879
11784760663
11784767499
11784772321
11784778119
11784783734
11784787762
11784794232
11784798077
11784804974
11784809735
11784815717
11784820172
11784826703
11784833417
11784841473
11784847638
11784854474
11784860760
11784866498
11784871747
11784879620
11784884625
11784891949
11784899334
11784903241
11784907696
11784913434
11784917218
11784923321
11784927472
11784933026
11784937176
11784942791
11784948712
11784952801
11784959027
11784963177
11784968548
11784974957
11784981182
11784985516
11784991070
11784996075
11785001446
11785006207
11785010784
11785016339
11785023174
11785028362
11785033001
11785038433
11785043682
11785047527
11785053753
11785059124
11785064434
11785070660
11785075481
11785081341
11785086895
11785090618
11785096966
11785102642
11785107464
11785113018
11785118389
11785124065
11785129314
11785133953
11785139202
11785143719
11785150860
11785156536
11785162029
11785167217
11785172405
11785177959
11785183330
11785187969
11785194072
11785198040
11785205486
11785210491
11785215923
11785220501
11785225872
11785230022
11785237041
11785241741
11785249675
11785255291
11785261333
11785268718
11785275432
11785280803
11785284771
11785293865
11785299175
11785305583
11785309062
11785316814
11785321575
11785326946
11785333721
11785339336
11785344646
11785350200
11785357646
11785363078
11785368388
11785373149
11785379741
11785385661
11785391948
11785397807
11785403545
11785407207
11785415080
11785420573
11785428325
11785434001
11785440288
11785448649
11785455424
11785461528
11785466899
11785470378
11785477397
11785480754
11785488383
11785492717
11785498637
11785504619
11785508525
11785512797
11785518168
11785524577
11785528727
11785535197
11785540568
11785547038
11785551493
11785556437
11785562114
11785567179
11785571818
11785578593
11785583232
11785588359
11785592570
11785599101
11785603434
11785607829
11785614054
11785620951
11785626750
11785632426
11785636820
11785641032
11785647135
11785652567
11785658000
11785664042
11785669657
11785674662
11785680766
11785687663
11785692179
11785698100
11785701762
11785709208
11785714213
11785721964
11785727457
11785733073
11785739298
11785744608
11785747843
11785754984
11785759562
11785766947
11785771036
11785776957
11785782938
11785788248
11785792887
11785798502
11785803019
11785809549
11785813761
11785820780
11785825113
11785829874
11785836588
11785842020
11785847452
11785851908
11785859720
11785863993
11785869791
11785875589
11785881876
11785886759
11785892740
11785897257
11785903360
11785911112
11785916056
11785921915
11785927225
11785933695
11785940775
11785945902
11785951578
11785957437
11785967020
11785972757
11785980631
11785986856
11785996011
11786003213
11786009988
11786017679
11786019937
11786036111
11786045877
11786057596
11786064554
11786074014
11786079263
11786089456
11786097024
11786099527
11786112100
11786123513
11786130105
11786136392
11786144387
11786151101
11786158609
11786164956
11786170571
11786180032
11786185769
11786192483
11786198220
11786206094
11786211953
11786217690
11786224343
11786233132
11786240762
11786246621
11786254311
11786261086
11786266030
11786275185
11786280312
11786287453
11786294534
11786300637
11786306924
11786312356
11786321633
11786326089
11786334084
11786341286
11786347451
11786356484
11786364358
11786372902
11786379006
11786387368
11786391884
11786399941
11786407570
11786414467
11786421303
11786427956
11786435585
11786443886
11786453286
11786459023
11786467202
11786473915
11786480629
11786487038
11786495888
11786500344
11786512673
11786519020
11786525978
11786533363
11786539162
11786547646
11786554482
11786560463
11786568642
11786576210
11786585060
11786591774
11786598122
11786604774
11786612648
11786618568
11786625648
11786631019
11786639259
11786644813
11786657875
11786663673
11786669777
11786676918
11786684791
11786692116
11786698890
11786704872
11786711525
11786719642
11786728187
11786734596
11786743019
11786751197
11786757728
11786764686
11786769325
11786778297
11786782936
11786794960
11786802406
11786810707
11786817420
11786822059
11786831275
11786838966
11786845985
11786854102
11786861671
11786868995
11786876930
11786885352
11786892432
11786900489
11786906470
11786911964
11786924659
11786931312
11786938148
11786947059
11786954871
11786965430
11786972388
11786980933
11786985328
11786997046
11787004004
11787010047
11787017554
11787022071
11787031043
11787037452
11787044776
11787048865
11787055945
11787063086
11787069068
11787078894
11787081275
11787090979
11787098303
11787104041
11787110755
11787117041
11787125525
11787129370
11787140601
11787147925
11787154212
11787160742
11787168677
11787175330
11787180640
11787188574
11787192419
11787203467
11787209448
11787215613
11787224524
11787230566
11787238257
11787242163
11787250769
11787256811
11787262488
11787272192
11787277380
11787284460
11787291540
11787297644
11787303503
11787310644
11787319494
11787326635
11787336157
11787341528
11787349524
11787357702
11787365576
11787369970
11787380468
11787388159
11787396520
11787405493
11787412329
11787418615
11787425756
11787432836
11787440466
11787446020
11787452673
11787459387
11787467626
11787475866
11787482580
11787491064
11787498754
11787506261
11787513891
11787520605
11787529150
11787533666
11787560277
11787569188
11787575902
11787584997
11787593358
11787600316
11787607579
11787614476
11787623143
11787629186
11787637365
11787646154
11787652196
11787659398
11787666295
11787674230
11787680028
11787689488
11787697545
11787702977
11787711278
11787719457
11787727513
11787731969
11787740636
11787747777
11787754796
11787764562
11787772618
11787782567
11787791539
11787798009
11787806737
11787813573
11787820286
11787826634
11787835789
11787846104
11787857213
11787860875
11787871373
11787877537
11787884556
11787891331
11787896153
11787903843
11787910801
11787916783
11787919835
11787927708
11787932042
11787938389
11787942173
11787949009
11787954625
11787960118
11787963902
11787969517
11787974644
11787979710
11787983921
11787990940
11787995274
11788001011
11788005772
11788011509
11788016392
11788020847
11788026341
11788033543
11788039158
11788044163
11788049412
11788055271
11788062901
11788067661
11788072971
11788078403
11788084324
11788089573
11788093540
11788097935
11788104649
11788108860
11788114292
11788119114
11788124668
11788131260
11788137363
11788141697
11788146091
11788152439
11788157017
11788161960
11788167209
11788173435
11788178867
11788184177
11788189121
11788194431
11788198765
11788204380
11788208652
11788215427
11788219700
11788226352
11788231052
11788235874
11788242466
11788247531
11788252414
11788258579
11788264926
11788269992
11788275424
11788281162
11788286777
11788292209
11788296237
11788302097
11788307590
11788312290
11788319370
11788323337
11788330051
11788333957
11788339267
11788344028
11788351840
11788356113
11788361728
11788367221
11788374545
11788380710
11788385837
11788392856
11788399997
11788405490
11788411533
11788418552
11788424716
11788429721
11788435702
11788441562
11788447543
11788451327
11788457675
11788463290
11788468417
11788472995
11788477755
11788483249
11788490207
11788494784
11788501010
11788504916
11788511935
11788516818
11788521823
11788526400
11788533908
11788538119
11788543490
11788548190
11788553439
11788557528
11788564059
11788568331
11788575411
11788579684
11788586703
11788590975
11788597628
11788602328
11788608370
11788613803
11788621432
11788625826
11788631869
11788637789
11788642184
11788649142
11788654635
11788660006
11788664523
11788672152
11788678255
11788683993
11788689547
11788695711
11788700106
11788706881
11788711031
11788715914
11788722933
11788728304
11788736117
11788741549
11788746981
11788751131
11788758578
11788763399
11788770785
11788775301
11788780550
11788786226
11788791597
11788797640
11788803499
11788809053
11788813875
11788821688
11788826509
11788830477
11788837618
11788842501
11788848299
11788853914
11788858553
11788866304
11788871553
11788877352
11788883882
11788889009
11788893770
11788899446
11788903536
11788911714
11788916658
11788922579
11788928438
11788934419
11788939180
11788945223
11788950655
11788957796
11788964815
11788971285
11788978059
11788983614
11788988924
11788995760
11789001741
11789008760
11789015108
11789022798
11789027925
11789034395
11789039155
11789043733
11789049531
11789055391
11789060212
11789065034
11789071077
11789075898
11789080354
11789085786
11789091218
11789100129
11789105623
11789110566
11789114778
11789120149
11789125337
11789130647
11789134736
11789141877
11789147309
11789152681
11789156770
11789161225
11789167634
11789173493
11789177644
11789182649
11789189912
11789194489
11789200898
11789205842
11789210603
11789216462
11789221223
11789226228
11789232270
11789237153
11789243867
11789248444
11789253877
11789258210
11789263459
11789267609
11789274018
11789278413
11789285737
11789290192
11789295563
11789301423
11789306367
11789311188
11789316743
11789321686
11789327851
11789332917
11789337433
11789342682
11789349091
11789355012
11789358063
11789366059
11789371186
11789377594
11789381989
11789386628
11789391388
11789396454
11789401886
11789408661
11789414521
11789421601
11789426545
11789431855
11789436798
11789443207
11789448639
11789453766
11789461335
11789466095
11789471405
11789477936
11789482208
11789489166
11789494782
11789502106
11789508087
11789512726
11789519379
11789524994
11789530609
11789537750
11789543488
11789551117
11789556915
11789562470
11789568817
11789574860
11789580048
11789586029
11789591461
11789599823
11789604889
11789610382
11789613251
11789620270
11789624420
11789631134
11789635467
11789641876
11789646148
11789652740
11789657257
11789664703
11789669586
11789677032
11789681854
11789688995
11789694732
11789698578
11789704925
11789710479
11789715973
11789721222
11789725982
11789734893
11789740387
11789746368
11789750152
11789756561
11789762420
11789768646
11789773529
11789780242
11789784515
11789791656
11789795745
11789801849
11789806182
11789812103
11789816802
11789824004
11789830962
11789836822
11789841827
11789846832
11789852020
11789857330
11789862640
11789867339
11789873626
11789878814
11789884490
11789889312
11789895904
11789900115
11789905425
11789913543
11789921111
11789928924
11789937774
11789944304
11789952666
11789961150
11789965301
11789970183
11789977019
11789983672
11789988494
11789998870
11790003325
11790009673
11790013823
11790020171
11790024504
11790032134
11790036834
11790042937
11790048491
11790055266
11790060027
11790066619
11790072356
11790077178
11790084380
11790090300
11790095854
11790100066
11790104643
11790111357
11790116118
11790124602
11790132170
11790136443
11790144316
11790148894
11790155852
11790160063
11790167876
11790172209
11790181609
11790187285
11790193327
11790199309
11790203398
11790210234
11790214690
11790220183
11790225615
11790232390
11790236479
11790241789
11790246062
11790255278
11790258269
11790264433
11790272184
11790276884
11790282621
11790287626
11790291533
11790297819
11790301970
11790307890
11790312773
11790317228
11790323027
11790327360
11790331694
11790337309
11790344023
11790349211
11790353727
11790358610
11790363188
11790369352
11790373991
11790378446
11790387297
11790392546
11790397367
11790400114
11790407499
11790412138
11790417387
11790421598
11790428434
11790434721
11790438688
11790444914
11790451933
11790456937
11790464017
11790468839
11790475919
11790480619
11790488248
11790492826
11790498258
11790504545
11790511075
11790515958
11790522428
11790526517
11790530668
11790536405
11790543180
11790548124
11790555814
11790561063
11790566495
11790575345
11790580411
11790586881
11790593168
11790597501
11790604398
11790609098
11790614225
11790623014
11790646634
11790652799
11790660428
11790668363
11790675809
11790683255
11790689481
11790695950
11790705777
11790712247
11790721097
11790726346
11790731839
11790740384
11790744290
11790751553
11790756680
11790764005
11790769376
11790774380
11790778226
11790783597
11790788968
11790792081
11790798856
11790806058
11790809964
11790813687
11790818814
11790822049
11790827359
11790831753
11790835965
11790841275
11790845364
11790849820
11790855008
11790858853
11790862942
11790868680
11790873990
11790877285
11790882351
11790886807
11790890957
11790896328
11790900723
11790904629
11790911038
11790916287
11790920742
11790925991
11790930386
11790934903
11790939907
11790944790
11790950405
11790955410
11790961331
11790965847
11790970730
11790974819
11790979763
11790983547
11790990689
11790996182
11791001125
11791005703
11791011013
11791015164
11791021206
11791025601
11791031887
11791039272
11791042873
11791049282
11791054531
11791059719
11791065456
11791070461
11791075771
11791081753
11791086330
11791091640
11791096645
11791102077
11791106228
11791111904
11791117641
11791121303
11791127895
11791132900
11791139309
11791143154
11791149441
11791154018
11791159023
11791164028
11791173305
11791177944
11791183681
11791187099
11791195034
11791199611
11791206325
11791211147
11791216457
11791224208
11791229580
11791237514
11791243190
11791248500
11791255092
11791259120
11791268215
11791273891
11791279811
11791285182
11791291530
11791296047
11791300441
11791303127
11791311061
11791315517
11791320644
11791326564
11791331447
11791335414
11791340419
11791344203
11791352992
11791357082
11791362086
11791368007
11791372951
11791377406
11791382472
11791386928
11791394679
11791398097
11791404872
11791412196
11791418300
11791424464
11791430324
11791436488
11791443507
11791449122
11791453273
11791457484
11791464198
11791468470
11791473353
11791479579
11791483912
11791491114
11791496058
11791502223
11791507167
11791512111
11791515956
11791521266
11791526637
11791532740
11791539210
11791544947
11791550318
11791554469
11791561183
11791566126
11791571437
11791575526
11791584864
11791589259
11791595423
11791602259
11791606837
11791611353
11791618983
11791623560
11791629176
11791636195
11791641871
11791647120
11791653040
11791658595
11791663477
11791669337
11791674647
11791682032
11791687586
11791693751
11791698633
11791706019
11791710169
11791715723
11791721888
11791725855
11791733240
11791739954
11791745203
11791749354
11791756983
11791760950
11791766688
11791773340
11791782190
11791787867
11791794458
11791799952
11791804407
11791812281
11791817102
11791824915
11791831568
11791838648
11791845972
11791851404
11791857935
11791865137
11791869165
11791874719
11791879541
11791887415
11791892053
11791897424
11791902185
11791907312
11791913416
11791917383
11791922937
11791929773
11791935754
11791940271
11791946985
11791951013
11791956934
11791962122
11791967187
11791973047
11791979700
11791985071
11791990015
11791995019
11792000635
11792003320
11792010705
11792014795
11792022729
11792027734
11792032922
11792037500
11792044946
11792048181
11792056054
11792061364
11792069177
11792074731
11792080896
11792089196
11792096338
11792104150
11792111718
11792119470
11792125878
11792136071
11792143396
11792148950
11792160607
11792166101
11792175744
11792180566
11792191247
11792198876
11792201196
11792213525
11792220971
11792229577
11792236108
11792242455
11792250695
11792255090
11792262170
11792272424
11792278405
11792289330
11792296715
11792305382
11792310082
11792317773
11792326073
11792334008
11792340355
11792349022
11792357628
11792373742
11792385399
11792393639
11792406273
11792414147
11792421166
11792427269
11792436364
11792443016
11792453209
11792461022
11792469872
11792473961
11792483116
11792489037
11792495751
11792503258
11792505638
11792521751
11792530357
11792535729
11792544701
11792550682
11792556847
11792563499
11792571617
11792577843
11792587852
11792597008
11792605186
11792612388
11792618736
11792627220
11792632652
11792641319
11792648338
11792655235
11792666954
11792674827
11792680137
11792688377
11792696434
11792700340
11792707908
11792714805
11792720787
11792729332
11792736045
11792742637
11792745811
11792753868
11792758323
11792764793
11792769309
11792775291
11792780723
11792786399
11792791587
11792797447
11792802268
11792805869
11792812705
11792817893
11792823753
11792829856
11792834800
11792837547
11792844260
11792850059
11792855674
11792860068
11792865318
11792872520
11792876853
11792883262
11792889426
11792894797
11792903159
11792909324
11792916404
11792923606
11792929648
11792937522
11792944907
11792953452
11792958396
11792966452
11792974753
11792983786
11792992698
11792995322
11793007163
11793013877
11793021262
11793027121
11793031455
11793039633
11793050009
11793053916
11793065329
11793074118
11793080832
11793087607
11793095114
11793102927
11793108664
11793115317
11793122275
11793130576
11793139182
11793147482
11793153159
11793159811
11793165732
11793173971
11793180502
11793189047
11793195822
11793201803
11793213705
11793221396
11793228903
11793238058
11793244528
11793251425
11793257773
11793266195
11793270895
11793279257
11793289938
11793297384
11793302938
11793311422
11793317709
11793324545
11793332296
11793340048
11793342306
11793355123
11793362387
11793374777
11793382040
11793384237
11793394430
11793401998
11793410116
11793419393
11793426962
11793437154
11793445760
11793453085
11793457784
11793470052
11793477132
11793484151
11793491659
11793493673
11793509237
11793515890
11793521383
11793527486
11793534566
11793542196
11793548482
11793553426
11793559285
11793569600
11793576619
11793583211
11793591939
11793595845
11793603719
11793610860
11793616292
11793622090
11793631124
11793637105
11793644673
11793651570
11793656819
11793663838
11793669881
11793675252
11793683980
11793687947
11793696980
11793704183
11793711934
11793716206
11793723164
11793729268
11793735371
11793742696
11793749959
11793757649
11793762044
11793770039
11793776265
11793781819
11793790547
11793795552
11793805989
11793812764
11793820820
11793830769
11793838337
11793845051
11793851887
11793859211
11793872578
11793877644
11793885640
11793892048
11793899922
11793906636
11793914204
11793920430
11793925373
11793933918
11793940998
11793947712
11793956806
11793965351
11793973042
11793979939
11793988545
11793992817
11794001728
11794008320
11794015644
11794021137
11794027424
11794037861
11794045307
11794051716
11794059406
11794067341
11794075519
11794083698
11794093769
11794099323
11794111347
11794118915
11794126667
11794132648
11794137592
11794149677
11794157062
11794164997
11794173359
11794180195
11794190387
11794198200
11794204670
11794214435
11794227924
11794236286
11794246051
11794259479
11794268634
11794270893
11794287250
11794300983
11794310443
11794319721
11794331928
11794338702
11794344745
11794353168
11794359637
11794369952
11794376849
11794385943
11794392169
11794399615
11794402972
11794410602
11794415484
11794421893
11794426166
11794431781
11794437335
11794441241
11794447101
11794450885
11794456622
11794461810
11794467791
11794472674
11794479022
11794482745
11794488543
11794494098
11794498614
11794503436
11794509356
11794514239
11794518817
11794523272
11794529437
11794533892
11794538775
11794544207
11794550067
11794554705
11794561541
11794565447
11794570696
11794576678
11794580828
11794586871
11794591082
11794597674
11794602496
11794609026
11794615069
11794621233
11794628313
11794633013
11794640337
11794646014
11794652056
11794656573
11794663470
11794668291
11794674578
11794679522
11794687823
11794692766
11794697771
11794704851
11794710222
11794715960
11794721026
11794728716
11794734270
11794740984
11794746538
11794752459
11794758074
11794763750
11794768267
11794774614
11794779314
11794784380
11794791094
11794798174
11794803301
11794810991
11794815447
11794820330
11794825579
11794831682
11794837175
11794842790
11794847734
11794854692
11794858660
11794864763
11794868852
11794875200
11794880449
11794887712
11794892656
11794898943
11794904253
11794909319
11794915788
11794922136
11794931169
11794935564
11794941667
11794949052
11794953996
11794959917
11794967363
11794972124
11794977495
11794984209
11794988298
11794994401
11795000810
11795005327
11795010454
11795015275
11795019426
11795027604
11795032243
11795037797
11795042497
11795048051
11795053727
11795059221
11795064225
11795069963
11795075456
11795080888
11795085038
11795091081
11795095048
11795101518
11795105790
11795111100
11795118730
11795122514
11795128251
11795132768
11795139543
11795144914
11795150407
11795155290
11795163651
11795169084
11795175248
11795180863
11795186967
11795190324
11795197526
11795202165
11795208939
11795214982
11795221024
11795225846
11795233353
11795239213
11795248063
11795253800
11795261735
11795267960
11795275407
11795282304
11795290299
11795296281
11795301224
11795313126
11795320695
11795327653
11795336075
11795338700
11795350419
11795357132
11795362442
11795370499
11795376786
11795385270
11795390030
11795397965
11795408829
11795414261
11795423111
11795427567
11795434342
11795444901
11795448807
11795457413
11795465470
11795471451
11795479569
11795487564
11795495133
11795499710
11795508682
11795515518
11795523270
11795531326
11795535782
11795550735
11795555862
11795563492
11795571793
11795579056
11795585708
11795592483
11795599686
11795607681
11795614761
11795622513
11795633133
11795641800
11795647110
11795655410
11795663894
11795671463
11795677749
11795685257
11795693985
11795708511
11795716690
11795724685
11795733535
11795742691
11795747085
11795756423
11795761489
11795768081
11795776077
11795781448
11795789016
11795793350
11795803970
11795810073
11795814895
11795821792
11795825454
11795836868
11795841384
11795851089
11795857741
11795863845
11795870742
11795877212
11795884719
11795888503
11795895339
11795904128
11795910476
11795917556
11795923903
11795934890
11795942763
11795949355
11795958632
11795966933
11795974624
11795983962
11795990310
11795999282
11796006240
11796013747
11796022109
11796030593
11796037734
11796046706
11796054030
11796060805
11796068373
11796076186
11796082839
11796089613
11796095717
11796103590
11796111220
11796118117
11796125929
11796131544
11796141798
11796144301
11796155104
11796162062
11796167677
11796175490
11796184645
11796193251
11796201918
11796207228
11796215162
11796221632
11796230116
11796234633
11796242079
11796250013
11796256910
11796267653
11796277906
11796284071
11796289076
11796299940
11796307020
11796314344
11796320082
11796328810
11796335523
11796342726
11796351942
11796360792
11796365675
11796373976
11796381056
11796386060
11796393507
11796398328
11796409559
11796415662
11796424085
11796430494
11796435377
11796443677
11796449110
11796460706
11796468030
11796473829
11796484876
11796493360
11796503004
11796509839
11796517408
11796522901
11796531141
11796537549
11796543775
11796554334
11796560987
11796566541
11796576001
11796581800
11796589246
11796597669
11796603528
11796610974
11796617627
11796624829
11796633130
11796639783
11796645276
11796650037
11796656079
11796662183
11796667432
11796672376
11796678357
11796682630
11796688550
11796691846
11796698804
11796704907
11796710339
11796716077
11796721326
11796727063
11796732312
11796738782
11796743726
11796750012
11796756726
11796762402
11796768262
11796774548
11796779675
11796785107
11796789868
11796793713
11796802258
11796806103
11796813061
11796818066
11796822888
11796826855
11796834057
11796839245
11796844738
11796850476
11796857556
11796861462
11796868298
11796872326
11796878430
11796884106
11796890576
11796894909
11796900585
11796905957
11796909802
11796917248
11796921276
11796928845
11796934948
11796940258
11796946606
11796953869
11796958264
11796963635
11796966808
11796976940
11796981518
11796987316
11796994030
11797000073
11797004833
11797010937
11797015514
11797021740
11797027477
11797033459
11797039257
11797046276
11797051952
11797056347
11797062633
11797068920
11797076855
11797082287
11797088634
11797094921
11797099926
11797104259
11797111583
11797116710
11797122875
11797128429
11797136547
11797141369
11797149791
11797155040
11797161205
11797167186
11797174755
11797181224
11797187938
11797193370
11797204174
11797210582
11797215343
11797221874
11797225902
11797234386
11797237804
11797244335
11797249950
11797256420
11797261546
11797266551
11797271861
11797277049
11797282787
11797287608
11797290599
11797297435
11797301585
11797307628
11797313060
11797319652
11797324046
11797330577
11797334850
11797341258
11797345531
11797351085
11797356334
11797361400
11797368846
11797373729
11797380321
11797384410
11797390452
11797396434
11797400706
11797406871
11797411876
11797415965
11797422007
11797426280
11797433848
11797442027
11797450633
11797457652
11797466319
11797473277
11797486155
11797491893
11797504405
11797513804
11797524913
11797534007
11797545481
11797553782
11797560435
11797574778
11797584666
11797594065
11797605662
11797612254
11797627756
11797637827
11797645762
11797657908
11797668955
11797681345
11797687998
11797699717
11797711252
11797719858
11797732676
11797744394
11797752573
11797764109
11797773325
11797786203
11797797434
11797805612
11797817209
11797827402
11797837168
11797847116
11797856455
11797868540
11797877756
11797890451
11797900766
11797911325
11797923044
11797931223
11797943430
11797954477
11797964303
11797977792
11797987680
11798001047
11798009714
11798023019
11798033944
11798043588
11798052865
11798064157
11798076486
11798090585
11798099862
11798108651
11798119271
11798128060
11798140023
11798149606
11798158761
11798172738
11798180489
11798190499
11798200631
11798211617
11798221871
11798228585
11798238961
11798250191
11798261117
11798270089
11798280953
11798290413
11798297371
11798310311
11798317513
11798327462
11798337594
11798345772
11798354805
11798363289
11798376412
11798382759
11798393990
11798403389
11798414498
11798423043
11798430794
11798441292
11798451546
11798459602
11798468208
11798480049
11798488655
11798498787
11798505989
11798516121
11798529121
11798537910
11798548714
11798557381
11798563972
11798574898
11798583504
11798594490
11798603157
11798613228
11798623298
11798633979
11798641060
11798652900
11798660896
11798669685
11798680122
11798690193
11798698982
11798707954
11798716621
11798728401
11798737068
11798746833
11798756843
11798764900
11798776923
11798786567
11798796272
11798807807
11798815437
11798828315
11798837592
11798847297
11798858893
11798868354
11798881476
11798888190
11798902228
11798912360
11798919623
11798932441
11798942695
11798951056
11798965888
11798972785
11798985846
11798992560
11799009284
11799018378
11799028082
11799038886
11799048285
11799056952
11799066901
11799079779
11799089545
11799092841
11799112006
11799118964
11799128241
11799139288
11799148566
11799160895
11799166998
11799179388
11799188666
11799196356
11799209112
11799294317
11799302069
11799314520
11799319158
11799329046
11799339483
11799345159
11799351812
11799359014
11799369878
11799377020
11799384039
11799389349
11799396124
11799399603
11799408514
11799413091
11799418462
11799425726
11799430975
11799435796
11799441778
11799446661
11799449346
11799456487
11799461492
11799467718
11799472356
11799477544
11799483648
11799487737
11799492010
11799498968
11799503118
11799508245
11799514470
11799518438
11799524907
11799530095
11799534856
11799539922
11799545537
11799553228
11799561467
11799570867
11799576909
11799586125
11799592656
11799598088
11799602971
11799607060
11799612248
11799617559
11799624455
11799629704
11799634587
11799640325
11799645818
11799650701
11799656011
11799662114
11799667241
11799672002
11799675725
11799679875
11799685490
11799689153
11799696172
11799700566
11799706487
11799710149
11799715337
11799719548
11799724309
11799730595
11799736699
11799740849
11799747258
11799753850
11799758122
11799764897
11799770939
11799777348
11799782658
11799786564
11799790715
11799796940
11799801274
11799807072
11799811467
11799816594
11799822148
11799826848
11799831242
11799837223
11799840825
11799846806
11799852116
11799859379
11799863224
11799870549
11799877385
11799883549
11799890019
