11675943009
11675950944
11675960649
11675969315
11675974992
11675983354
11675991044
11675998368
11676006425
11676012528
11676020402
11676028703
11676036820
11676045365
11676051652
11676060868
11676067399
11676075761
11676082535
11676091202
11676097794
11676105607
11676111710
11676121842
11676129044
11676138260
11676145585
11676153702
11676159440
11676168961
11676176957
11676184891
11676192093
11676197953
11676207169
11676216690
11676226517
11676234207
11676241898
11676248001
11676256119
11676263199
11676269791
11676276749
11676284073
11676291031
11676295303
11676303970
11676310196
11676317215
11676323196
11676328812
11676334793
11676341385
11676347244
11676353043
11676360184
11676367447
11676371597
11676380874
11676386429
11676392776
11676398514
11676404495
11676411392
11676418655
11676425003
11676431656
11676437393
11676442947
11676448990
11676456680
11676462967
11676469741
11676476211
11676482498
11676488906
11676494888
11676500869
11676505874
11676512954
11676518386
11676524368
11676527908
11676535720
11676541519
11676548782
11676554580
11676561355
11676567520
11676572769
11676580276
11676585586
11676593154
11676600112
11676606765
11676610366
11676619094
11676623244
11676631423
11676638381
11676646316
11676653274
11676659927
11676665725
11676673110
11676679458
11676684646
11676690993
11676698684
11676704482
11676712661
11676719558
11676724807
11676731826
11676739394
11676745009
11676752639
11676759719
11676766555
11676773879
11676780410
11676786086
11676793044
11676799575
11676807997
11676814284
11676819777
11676825453
11676833998
11676840407
11676847182
11676855239
11676862624
11676867690
11676875807
11676880629
11676888197
11676892836
11676903456
11676911818
11676919508
11676926039
11676931715
11676939894
11676945631
11676952589
11676961073
11676970961
11676977064
11676985060
11676991224
11676999342
11677007704
11677010939
11677022047
11677030348
11677036024
11677044447
11677053053
11677061781
11677068922
11677078199
11677083265
11677093092
11677100599
11677107435
11677112989
11677120130
11677125440
11677134046
11677141737
11677147230
11677155409
11677160963
11677169264
11677178907
11677184583
11677191114
11677200575
11677207594
11677214063
11677220594
11677228284
11677234876
11677242017
11677248670
11677256788
11677263196
11677270338
11677277540
11677285718
11677292249
11677299756
11677307447
11677315259
11677322156
11677330701
11677337415
11677345716
11677351941
11677358472
11677368421
11677375196
11677382215
11677388806
11677395032
11677403394
11677407666
11677416455
11677424451
11677432752
11677439282
11677447705
11677454114
11677461072
11677467297
11677475781
11677482434
11677489636
11677492749
11677499280
11677503491
11677509839
11677514478
11677520337
11677525281
11677529675
11677535168
11677538159
11677544568
11677549634
11677553723
11677559582
11677563672
11677568188
11677573926
11677578686
11677582959
11677589551
11677594128
11677599499
11677604382
11677609082
11677615246
11677620190
11677627087
11677633435
11677639904
11677646557
11677651257
11677656018
11677662243
11677666577
11677673291
11677677990
11677684033
11677692028
11677697522
11677701916
11677708142
11677712597
11677720593
11677723828
11677730419
11677734020
11677741467
11677747936
11677752148
11677757763
11677763256
11677766369
11677773815
11677779308
11677783520
11677790417
11677794994
11677800243
11677806347
11677810314
11677816113
11677821667
11677827587
11677832165
11677837597
11677842480
11677848644
11677854198
11677858532
11677865673
11677870006
11677875988
11677880871
11677887096
11677891857
11677898205
11677904003
11677909618
11677912914
11677920177
11677923900
11677930370
11677935863
11677941478
11677946178
11677951122
11677955639
11677961132
11677965282
11677972240
11677977977
11677982921
11677988597
11677994213
11677998241
11678004650
11678009166
11678015331
11678021495
11678026622
11678031627
11678036815
11678040172
11678046337
11678050975
11678056712
11678061900
11678066173
11678071239
11678076671
11678083080
11678086742
11678092967
11678100047
11678105602
11678110667
11678115672
11678121104
11678125804
11678131786
11678139476
11678144969
11678152537
11678158336
11678163035
11678167003
11678174693
11678179942
11678184031
11678191478
11678196971
11678201365
11678207347
11678211863
11678217906
11678222606
11678229014
11678233287
11678237498
11678243968
11678249034
11678254405
11678259288
11678263743
11678269053
11678273265
11678278086
11678282115
11678288707
11678292063
11678298899
11678302195
11678308604
11678313914
11678319224
11678322276
11678328257
11678333933
11678339305
11678343150
11678348643
11678354014
11678357676
11678362803
11678370982
11678377024
11678381541
11678385264
11678392344
11678396922
11678402476
11678407725
11678413645
11678419505
11678422984
11678428294
11678433237
11678438975
11678443674
11678449778
11678455820
11678460642
11678466929
11678469797
11678475901
11678480112
11678487375
11678493479
11678497935
11678504343
11678509043
11678513743
11678518808
11678523447
11678529368
11678536264
11678541269
11678547129
11678553537
11678561289
11678567698
11678572153
11678578562
11678583506
11678588266
11678594980
11678598581
11678606211
11678609384
11678616831
11678622019
11678628122
11678634836
11678642160
11678647714
11678655710
11678662607
11678672617
11678684335
11678692026
11678697763
11678705637
11678716257
11678723642
11678732309
11678738901
11678748361
11678755807
11678759469
11678769601
11678773080
11678782602
11678792978
11678801278
11678807626
11678816720
11678822519
11678830392
11678836984
11678842416
11678849191
11678856576
11678864328
11678870370
11678876229
11678883859
11678888375
11678897348
11678904244
11678909738
11678920846
11678924264
11678934701
11678940255
11678950570
11678957772
11678965890
11678974435
11678980355
11678990182
11678993539
11679005563
11679010323
11679020455
11679027779
11679031258
11679042184
11679051217
11679058846
11679066598
11679069893
11679080575
11679086129
11679095833
11679103158
11679109139
11679116280
11679121346
11679131234
11679139290
11679147835
11679154488
11679157540
11679169320
11679174507
11679181588
11679188240
11679193550
11679203499
11679211312
11679218575
11679225350
11679233406
11679239510
11679244454
11679253609
11679258125
11679267281
11679275276
11679280708
11679289925
11679297005
11679307442
11679315559
11679323921
11679331856
11679335518
11679348946
11679356087
11679363655
11679372322
11679378731
11679386055
11679392219
11679402412
11679407295
11679417305
11679424995
11679430671
11679440376
11679444831
11679454414
11679461250
11679468025
11679475349
11679482917
11679489448
11679496955
11679506965
11679515205
11679524848
11679531684
11679537361
11679547248
11679552070
11679558296
11679569343
11679579475
11679586555
11679597541
11679603034
11679607551
11679616401
11679623542
11679629279
11679638984
11679644538
11679650580
11679656135
11679665107
11679669684
11679677253
11679683784
11679690497
11679696906
11679704841
11679710822
11679715339
11679724616
11679729194
11679735846
11679743415
11679745978
11679755622
11679763739
11679771796
11679776252
11679783942
11679790351
11679795355
11679803961
11679811103
11679819953
11679827399
11679834296
11679840827
11679846747
11679854132
11679861212
11679868048
11679874640
11679880499
11679889105
11679895636
11679904669
11679911017
11679918280
11679924811
11679929510
11679938666
11679943121
11679950995
11679960394
11679967657
11679974920
11679979803
11679988653
11679994879
11680000982
11680007635
11680014532
11680021551
11680029303
11680037481
11680043707
11680048651
11680056890
11680064032
11680070745
11680077093
11680081976
11680091619
11680098394
11680105780
11680112005
11680119207
11680125982
11680133917
11680139410
11680145818
11680153204
11680160345
11680165472
11680175420
11680182501
11680189886
11680196905
11680199957
11680209844
11680217474
11680224432
11680232000
11680240850
11680247564
11680256658
11680262700
11680269903
11680272832
11680283391
11680291387
11680297796
11680305791
11680314458
11680321599
11680326970
11680337163
11680341985
11680349858
11680357671
11680367681
11680375371
11680384954
11680394719
11680401860
11680408696
11680413152
11680419499
11680428166
11680432805
11680443120
11680450871
11680458379
11680466985
11680474980
11680481572
11680487431
11680492986
11680498418
11680505437
11680512456
11680516911
11680522526
11680527226
11680532170
11680536565
11680542363
11680547673
11680553471
11680557805
11680563176
11680567387
11680572575
11680578740
11680584172
11680589909
11680595952
11680600773
11680605351
11680611943
11680616765
11680622624
11680626530
11680633000
11680639042
11680643559
11680648869
11680654850
11680658696
11680664738
11680669621
11680676030
11680680790
11680686405
11680692509
11680696781
11680700932
11680707340
11680711796
11680717655
11680722111
11680728214
11680732792
11680742008
11680746220
11680752140
11680756291
11680761662
11680767643
11680771061
11680778812
11680782291
11680789005
11680793583
11680798344
11680804508
11680808720
11680816898
11680821232
11680825504
11680832218
11680836368
11680842472
11680846683
11680852665
11680857426
11680863041
11680868412
11680873050
11680879642
11680882877
11680889286
11680894352
11680899235
11680906986
11680912052
11680916324
11680921329
11680927250
11680931888
11680936283
11680941898
11680949344
11680952823
11680963321
11680969120
11680974613
11680981327
11680986576
11680992313
11680999149
11681005557
11681009769
11681014835
11681020816
11681025455
11681031497
11681036014
11681042056
11681048099
11681055484
11681061282
11681065555
11681072208
11681077640
11681082828
11681088443
11681093204
11681098758
11681103275
11681108829
11681112674
11681118777
11681122073
11681130252
11681136600
11681141421
11681146731
11681152530
11681155948
11681162478
11681167056
11681171390
11681178042
11681184085
11681188785
11681193240
11681199038
11681203494
11681208987
11681212954
11681221072
11681227481
11681232241
11681235537
11681242923
11681247622
11681253115
11681257632
11681264956
11681270266
11681275454
11681280276
11681285769
11681290103
11681295718
11681301394
11681305606
11681312258
11681318667
11681323062
11681330203
11681335574
11681340701
11681349429
11681357180
11681364077
11681369753
11681378848
11681383913
11681393984
11681398623
11681407351
11681416872
11681420168
11681431521
11681439455
11681445376
11681454409
11681457522
11681466555
11681474001
11681482302
11681488772
11681491762
11681502138
11681509462
11681516970
11681524172
11681527163
11681541079
11681546389
11681554079
11681561098
11681567995
11681575380
11681586122
11681593325
11681600954
11681608095
11681615175
11681620424
11681630861
11681639284
11681646730
11681655519
11681663759
11681676149
11681683534
11681694460
11681698122
11681711427
11681718019
11681726747
11681735353
11681744813
11681751649
11681761049
11681769288
11681775514
11681783754
11681790712
11681799196
11681806520
11681812013
11681821290
11681828004
11681833863
11681839967
11681845277
11681853456
11681858338
11681868104
11681875672
11681882630
11681888795
11681895692
11681901429
11681906007
11681914186
11681920716
11681926637
11681933289
11681940186
11681946046
11681952454
11681960572
11681964906
11681973206
11681980347
11681985535
11681992982
11682005433
11682012269
11682018555
11682021790
11682032349
11682037537
11682045899
11682052552
11682055909
11682065064
11682074586
11682082337
11682089539
11682096497
11682104249
11682110474
11682116944
11682124390
11682127442
11682139099
11682146302
11682152893
11682160157
11682167542
11682174134
11682181153
11682187500
11682192749
11682201538
11682206299
11682215393
11682221741
11682227478
11682234558
11682241150
11682248962
11682254944
11682260437
11682267212
11682275635
11682284241
11682288086
11682296936
11682302612
11682308166
11682315796
11682322754
11682329224
11682336365
11682345215
11682351135
11682355957
11682363769
11682370361
11682375793
11682384277
11682387512
11682397705
11682407653
11682413269
11682419006
11682426452
11682433166
11682440979
11682447204
11682454223
11682458984
11682471008
11682481384
11682488403
11682495300
11682502319
11682509155
11682519653
11682525268
11682533264
11682541992
11682551269
11682557922
11682564697
11682570922
11682578918
11682584716
11682589965
11682599059
11682605529
11682609801
11682615172
11682620299
11682624938
11682631225
11682636046
11682642821
11682648376
11682654296
11682657653
11682663573
11682667907
11682672912
11682677367
11682683471
11682688781
11682695189
11682699401
11682704650
11682708556
11682713622
11682719298
11682724730
11682729552
11682736266
11682740355
11682746581
11682752318
11682758971
11682764952
11682770385
11682777404
11682784789
11682788695
11682794371
11682799925
11682804381
11682810423
11682814574
11682821593
11682825438
11682833861
11682837096
11682843504
11682848326
11682853636
11682857726
11682863036
11682870848
11682876707
11682880980
11682885802
11682891417
11682897215
11682901488
11682905028
11682913817
11682920286
11682925291
11682931090
11682936705
11682941893
11682946470
11682950865
11682957091
11682964415
11682969542
11682973997
11682978514
11682985655
11682989927
11682996458
11683000670
11683007200
11683012693
11683019835
11683024534
11683029234
11683035460
11683040159
11683044310
11683050291
11683055723
11683061766
11683067991
11683071958
11683078306
11683084226
11683089170
11683094053
11683103025
11683106748
11683117979
11683124021
11683129698
11683135862
11683141538
11683147276
11683154112
11683159361
11683164549
11683172788
11683178709
11683182432
11683187864
11683193113
11683199522
11683205442
11683209898
11683214902
11683218809
11683224729
11683230161
11683235288
11683241514
11683246030
11683249082
11683255430
11683260312
11683265378
11683270505
11683276792
11683280759
11683288266
11683291623
11683296567
11683300901
11683307309
11683312192
11683317014
11683325071
11683329831
11683333738
11683339780
11683343747
11683349485
11683353635
11683359983
11683364682
11683370725
11683375058
11683380918
11683385129
11683390622
11683395566
11683400510
11683406857
11683412106
11683417661
11683423337
11683427548
11683432797
11683436948
11683441770
11683448239
11683453732
11683458310
11683462949
11683468320
11683472531
11683478452
11683484006
11683489255
11683496701
11683501462
11683507382
11683512265
11683519162
11683526852
11683532529
11683538815
11683546383
11683552121
11683557736
11683563107
11683568966
11683572323
11683579220
11683584469
11683589291
11683596188
11683603085
11683606625
11683614621
11683618344
11683625485
11683629147
11683635617
11683641781
11683650936
11683657589
11683663143
11683669064
11683673947
11683678646
11683685910
11683691097
11683696957
11683701534
11683708981
11683714108
11683718807
11683725338
11683733578
11683737179
11683742794
11683747860
11683752132
11683758297
11683762569
11683768002
11683772152
11683778255
11683782589
11683787289
11683793453
11683798153
11683801998
11683807247
11683813839
11683818478
11683822323
11683828487
11683832821
11683836605
11683842769
11683847774
11683852169
11683858944
11683863338
11683869076
11683872921
11683877926
11683883175
11683888424
11683893795
11683900081
11683905880
11683910701
11683916561
11683921505
11683927120
11683931636
11683937496
11683944576
11683950374
11683954830
11683960994
11683967342
11683973751
11683980648
11683982967
11683992488
11683999385
11684005123
11684012447
11684017391
11684023738
11684030208
11684035945
11684042171
11684048213
11684053645
11684057735
11684064632
11684068904
11684074275
11684079707
11684081660
11684089595
11684092891
11684101070
11684105220
11684110957
11684116267
11684121821
11684126460
11684133113
11684137874
11684143001
11684149470
11684154231
11684158870
11684164668
11684169002
11684172236
11684180110
11684187434
11684191707
11684197322
11684202815
11684207942
11684214412
11684220271
11684224788
11684238093
11684245539
11684252681
11684258357
11684262751
11684267329
11684272700
11684278376
11684285517
11684288447
11684295832
11684301081
11684305659
11684310114
11684316340
11684322321
11684328242
11684331355
11684337885
11684342890
11684347956
11684352290
11684359614
11684363032
11684369502
11684373957
11684379145
11684384516
11684390131
11684395686
11684400385
11684406855
11684411860
11684416315
11684421198
11684427058
11684431147
11684440363
11684444636
11684450861
11684454767
11684459467
11684462946
11684467890
11684471491
11684476069
11684480585
11684486078
11684490534
11684496027
11684502375
11684506342
11684512079
11684517572
11684522089
11684528437
11684533136
11684537104
11684543024
11684548151
11684553705
11684558527
11684563043
11684567377
11684573175
11684577631
11684582392
11684586908
11684593134
11684597833
11684603082
11684611322
11684616815
11684621454
11684626459
11684632684
11684637201
11684643182
11684646967
11684653741
11684659174
11684665155
11684669733
11684674799
11684680902
11684686090
11684690912
11684695306
11684702569
11684709344
11684713373
11684718439
11684724054
11684729120
11684734857
11684738946
11684745050
11684751031
11684756219
11684762750
11684769342
11684774652
11684779718
11684785211
11684791559
11684799371
11684804742
11684810174
11684815789
11684821466
11684828668
11684835260
11684842523
11684846307
11684852960
11684857598
11684863580
11684868096
11684872857
11684874505
11684882134
11684887994
11684892816
11684898370
11684902642
11684908624
11684913018
11684917474
11684924188
11684929925
11684935296
11684940240
11684944756
11684949151
11684953973
11684958489
11684965264
11684970330
11684975213
11684979607
11684985345
11684989556
11684994073
11684999627
11685004510
11685010674
11685017632
11685021844
11685028374
11685033257
11685037408
11685044243
11685049920
11685056267
11685062859
11685067742
11685073418
11685078362
11685083733
11685089348
11685093926
11685101128
11685106621
11685113152
11685117302
11685122857
11685127190
11685131035
11685139275
11685142937
11685150322
11685156731
11685162468
11685167107
11685172722
11685177849
11685183769
11685188408
11685195427
11685200066
11685206474
11685211235
11685216179
11685220329
11685226860
11685231072
11685236137
11685242790
11685248955
11685253349
11685256706
11685264091
11685267570
11685275078
11685278496
11685285210
11685290092
11685296013
11685300712
11685307121
11685311882
11685317619
11685322380
11685328728
11685335563
11685342583
11685348076
11685354912
11685359977
11685365593
11685370414
11685376030
11685383232
11685388908
11685393486
11685400932
11685405815
11685410942
11685415763
11685421257
11685429191
11685434379
11685439201
11685443962
11685448600
11685454765
11685459342
11685464958
11685470756
11685475761
11685481193
11685486686
11685490959
11685495719
11685502189
11685507255
11685512260
11685518668
11685522941
11685528861
11685534721
11685539726
11685545951
11685551017
11685557182
11685564079
11685568168
11685573783
11685579520
11685584708
11685589103
11685592277
11685600761
11685604484
11685612296
11685616202
11685622733
11685628226
11685632194
11685636893
11685643668
11685649039
11685656058
11685660148
11685666312
11685671988
11685676932
11685681205
11685684562
11685692191
11685697684
11685702567
11685708243
11685713858
11685718741
11685724784
11685729728
11685734915
11685741080
11685747245
11685751639
11685757804
11685762198
11685768241
11685772391
11685775809
11685783438
11685786734
11685793326
11685798087
11685805045
11685808890
11685814200
11685820242
11685826041
11685832449
11685839591
11685844534
11685851431
11685856741
11685864859
11685870657
11685875235
11685884878
11685894400
11685901846
11685909842
11685917593
11685924734
11685928457
11685946707
11685955069
11685962271
11685971121
11685981497
11685988272
11685996450
11686002554
11686007803
11686014334
11686020254
11686028555
11686036306
11686045156
11686051138
11686055960
11686063162
11686069143
11686076589
11686082510
11686087026
11686095876
11686102957
11686109853
11686115591
11686123037
11686128835
11686136282
11686141287
11686147146
11686155019
11686162038
11686167959
11686174917
11686181448
11686187795
11686193532
11686200490
11686206838
11686215139
11686222463
11686229177
11686236318
11686243032
11686252675
11686258352
11686263173
11686270986
11686277944
11686285085
11686293752
11686300161
11686307668
11686310353
11686319265
11686326467
11686334035
11686340749
11686346547
11686354543
11686362783
11686370656
11686377614
11686384694
11686390920
11686395925
11686404653
11686408803
11686416554
11686425832
11686432362
11686439198
11686446400
11686457509
11686463185
11686473744
11686478383
11686487721
11686496205
11686502186
11686511708
11686519276
11686528737
11686536000
11686541737
11686550465
11686557728
11686567677
11686575306
11686578602
11686589711
11686596974
11686605763
11686613758
11686622547
11686632435
11686635731
11686647877
11686654408
11686663441
11686671437
11686679798
11686687306
11686693409
11686704029
11686711414
11686714893
11686728993
11686735951
11686743336
11686751270
11686758839
11686765614
11686771351
11686779407
11686784046
11686793629
11686803882
11686811939
11686822437
11686828602
11686838306
11686843555
11686852344
11686859485
11686864795
11686873584
11686881458
11686888721
11686894886
11686901538
11686907093
11686915027
11686919788
11686923633
11686933521
11686938282
11686944934
11686949390
11686954822
11686960315
11686964832
11686969470
11686975757
11686981983
11686987476
11686991870
11686997608
11687002063
11687007129
11687012012
11687019519
11687025806
11687031604
11687036182
11687042896
11687047900
11687053210
11687057361
11687062976
11687070850
11687076160
11687080249
11687086291
11687090442
11687096362
11687101977
11687106799
11687112720
11687118335
11687122973
11687129504
11687135425
11687141040
11687145862
11687153064
11687158923
11687165881
11687170642
11687177050
11687181628
11687185107
11687194079
11687198169
11687205432
11687210498
11687217395
11687222583
11687227710
11687232409
11687237841
11687242480
11687247241
11687255175
11687260852
11687265307
11687269885
11687277453
11687281970
11687288378
11687291674
11687299304
11687305651
11687310290
11687315600
11687322070
11687326891
11687331652
11687336596
11687343310
11687348376
11687354357
11687358630
11687361864
11687369128
11687372424
11687380236
11687385485
11687391405
11687398241
11687404223
11687409594
11687415270
11687420946
11687431444
11687437731
11687445604
11687455248
11687461840
11687467272
11687474718
11687480333
11687486620
11687491198
11687497179
11687506090
11687512438
11687516405
11687523790
11687527574
11687533434
11687537218
11687542833
11687549120
11687553758
11687557604
11687563280
11687568163
11687573717
11687579210
11687584276
11687589464
11687594591
11687600267
11687604784
11687610033
11687615282
11687619188
11687624559
11687630479
11687634691
11687641649
11687645860
11687651292
11687656541
11687662401
11687666002
11687671190
11687678758
11687683397
11687689622
11687694017
11687698228
11687704393
11687710008
11687714281
11687721422
11687726854
11687732774
11687737901
11687742112
11687747423
11687752244
11687757066
11687764268
11687768724
11687775804
11687782640
11687787339
11687792039
11687797715
11687802354
11687807298
11687814561
11687819444
11687824266
11687829332
11687835801
11687840257
11687845811
11687850267
11687856126
11687861802
11687867661
11687869920
11687877976
11687883958
11687887681
11687892442
11687899156
11687904221
11687909104
11687913865
11687920152
11687924973
11687930344
11687934617
11687940903
11687946214
11687952378
11687958360
11687963547
11687967698
11687973862
11687978562
11687985032
11687991440
11687999253
11688005479
11688010178
11688016526
11688022629
11688027695
11688034043
11688039841
11688045456
11688052475
11688059189
11688066269
11688072495
11688079636
11688085007
11688091355
11688097092
11688102829
11688108628
11688114182
11688119187
11688125473
11688130234
11688134751
11688142014
11688147629
11688151779
11688157700
11688161850
11688167649
11688173386
11688175278
11688183396
11688186997
11688194870
11688198227
11688204331
11688208969
11688214829
11688219406
11688224594
11688230698
11688237045
11688241318
11688246994
11688252609
11688257004
11688262741
11688266586
11688272201
11688278122
11688285080
11688288864
11688295212
11688300461
11688306198
11688310715
11688317673
11688322738
11688329513
11688333664
11688337875
11688344589
11688348800
11688355758
11688359604
11688365890
11688371322
11688376632
11688381271
11688386703
11688391342
11688397445
11688401962
11688408248
11688414779
11688421371
11688425888
11688429550
11688438400
11688444320
11688451461
11688458724
11688465804
11688470626
11688479110
11688485092
11688491561
11688497421
11688502792
11688507308
11688512985
11688521285
11688526962
11688533492
11688539535
11688546737
11688553695
11688559005
11688565719
11688571334
11688575545
11688582320
11688587752
11688595565
11688599837
11688607039
11688610396
11688616500
11688622664
11688631698
11688636825
11688642013
11688646590
11688654097
11688658736
11688664595
11688672713
11688679671
11688686019
11688691451
11688697982
11688702742
11688709273
11688714278
11688718917
11688725753
11688730147
11688735335
11688740889
11688744857
11688751937
11688762801
11688778853
11688788924
11688795577
11688805525
11688813765
11688819563
11688827071
11688836348
11688842268
11688846785
11688852766
11688856551
11688861800
11688865340
11688871321
11688877180
11688882307
11688887617
11688892561
11688897200
11688901594
11688904280
11688909895
11688915877
11688920515
11688925581
11688929121
11688934065
11688939619
11688943953
11688948042
11688953047
11688957136
11688962812
11688966719
11688972090
11688977095
11688983748
11688989058
11688995405
11688999678
11689004988
11689008711
11689013655
11689020002
11689025373
11689029707
11689035993
11689040998
11689044966
11689050093
11689055036
11689059248
11689065229
11689075178
11689079939
11689085432
11689089460
11689095930
11689100752
11689105756
11689111555
11689116316
11689120588
11689126508
11689137495
11689144575
11689151472
11689155988
11689163190
11689167890
11689176557
11689180891
11689190107
11689195966
11689201581
11689206647
11689212690
11689218610
11689222761
11689228254
11689234235
11689240095
11689245893
11689252424
11689256574
11689261884
11689265912
11689273359
11689278913
11689283002
11689288739
11689292829
11689298810
11689302961
11689308210
11689313947
11689319867
11689323835
11689330243
11689334821
11689340253
11689344770
11689349896
11689358136
11689363141
11689366498
11689373029
11689377423
11689381085
11689386456
11689392011
11689397260
11689404096
11689409284
11689414410
11689421002
11689426312
11689431500
11689436505
11689442670
11689449017
11689452985
11689458722
11689463483
11689469098
11689474042
11689481061
11689486005
11689491009
11689496442
11689502362
11689506451
11689512982
11689519208
11689523785
11689527752
11689535016
11689539349
11689544598
11689550274
11689558270
11689562359
11689567608
11689573895
11689577801
11689584271
11689587994
11689594159
11689600018
11689609356
11689614971
11689619122
11689623577
11689631024
11689635174
11689643353
11689647503
11689655377
11689661053
11689669354
11689674725
11689680218
11689687786
11689692669
11689698040
11689703533
11689710796
11689715862
11689721294
11689726299
11689731853
11689737469
11689741680
11689746685
11689752361
11689757183
11689762859
11689768108
11689773357
11689778240
11689784405
11689789348
11689796062
11689802166
11689806988
11689812359
11689819439
11689822918
11689830547
11689836590
11689841961
11689846477
11689850506
11689856731
11689862468
11689868084
11689872966
11689878399
11689883464
11689887127
11689893596
11689899028
11689906597
11689911724
11689916423
11689921611
11689925457
11689929973
11689935222
11689942485
11689947246
11689952800
11689957561
11689962627
11689967143
11689974346
11689981304
11689987529
11689995708
11690002727
11690009685
11690014629
11690024394
11690029216
11690040019
11690044780
11690053264
11690059367
11690067546
11690073772
11690079997
11690088298
11690096965
11690103129
11690110881
11690117290
11690124125
11690132426
11690138102
11690147014
11690155558
11690162577
11690170024
11690176616
11690183329
11690189555
11690196208
11690207560
11690213664
11690220011
11690228862
11690233683
11690244181
11690248759
11690258463
11690263102
11690272563
11690277384
11690287760
11690292399
11690302531
11690307047
11690316752
11690322916
11690332865
11690337565
11690347880
11690353434
11690361674
11690366434
11690375529
11690385172
11690391886
11690396525
11690406168
11690411539
11690423319
11690428934
11690439737
11690445536
11690455057
11690462992
11690468851
11690476908
11690482889
11690490946
11690500284
11690507669
11690513712
11690521097
11690526651
11690535379
11690540933
11690548075
11690555948
11690562601
11690570658
11690578409
11690586466
11690592935
11690602884
11690609903
11690617899
11690626199
11690633340
11690639505
11690646341
11690654581
11690661661
11690669412
11690677286
11690683206
11690690225
11690697610
11690702066
11690710672
11690717080
11690723855
11690732950
11690741189
11690747659
11690756021
11690762918
11690770059
11690776406
11690783181
11690792520
11690800088
11690806253
11690812417
11690820596
11690827615
11690834329
11690842263
11690849832
11690857949
11690864175
11690872964
11690879617
11690887246
11690893411
11690899697
11690908791
11690917092
11690924050
11690931557
11690938271
11690946694
11690953408
11690960549
11690968911
11690978493
11690986001
11690992348
11690998635
11691006264
11691012978
11691021279
11691029091
11691038796
11691046608
11691055703
11691060830
11691071511
11691079384
11691088784
11691098183
11691105202
11691112709
11691120339
11691127541
11691135720
11691142372
11691150673
11691157631
11691165199
11691172096
11691179299
11691186073
11691193825
11691200783
11691209694
11691216042
11691223244
11691230019
11691237465
11691245216
11691253761
11691261391
11691269386
11691276832
11691283241
11691289772
11691297157
11691302223
11691308876
11691312660
11691319923
11691324257
11691330970
11691337074
11691344520
11691352943
11691364113
11691368751
11691373695
11691378395
11691382545
11691386695
11691393165
11691399635
11691405494
11691409767
11691414894
11691419593
11691424293
11691428749
11691433937
11691438880
11691444007
11691448829
11691454505
11691458900
11691465125
11691470741
11691481483
11691488075
11691491859
11691497840
11691501930
11691507118
11691512367
11691518226
11691523048
11691527564
11691532447
11691536842
11691542640
11691550269
11691556861
11691561744
11691566932
11691571815
11691578467
11691584632
11691592200
11691595435
11691603492
11691608375
11691614173
11691619788
11691624000
11691629432
11691636329
11691641517
11691648352
11691653846
11691658057
11691662879
11691669288
11691674598
11691680274
11691685645
11691690223
11691696448
11691699927
11691706641
11691711585
11691716407
11691721167
11691728125
11691731360
11691737708
11691740759
11691747290
11691751563
11691756995
11691762000
11691768042
11691771094
11691776404
11691782080
11691786902
11691790625
11691795935
11691800696
11691806616
11691812354
11691817664
11691823157
11691827124
11691832922
11691836157
11691842566
11691847571
11691854712
11691859961
11691864783
11691869665
11691874609
11691878760
11691884680
11691891638
11691896948
11691901343
11691906347
11691912085
11691917273
11691921606
11691924902
11691931677
11691938330
11691945837
11691949133
11691954992
11691959814
11691965796
11691970129
11691975744
11691985571
11691991491
11691997473
11692003271
11692007360
11692012243
11692017797
11692023291
11692027746
11692033972
11692039770
11692041540
11692050573
11692056799
11692060888
11692066747
11692074011
11692080908
11692087316
11692091345
11692097387
11692104955
11692109838
11692114538
11692119421
11692126257
11692132421
11692137914
11692143774
11692149633
11692154333
11692160497
11692164220
11692171545
11692176549
11692181982
11692187414
11692192357
11692196752
11692201574
11692206884
11692212865
11692219884
11692225805
11692230077
11692235448
11692241308
11692244542
11692251989
11692255529
11692262670
11692265966
11692273107
11692276281
11692283055
11692287938
11692292516
11692298009
11692304967
11692309606
11692314794
11692319188
11692324559
11692328771
11692336339
11692341954
11692348790
11692355016
11692360143
11692364354
11692370213
11692374425
11692379735
11692384740
11692391454
11692398595
11692404149
11692407994
11692412694
11692418553
11692423009
11692428258
11692434666
11692440831
11692444859
11692452000
11692456944
11692463902
11692468846
11692477391
11692482762
11692488621
11692494176
11692499486
11692505040
11692510838
11692515477
11692522679
11692527684
11692532872
11692539708
11692544163
11692550999
11692554600
11692561863
11692567662
11692571873
11692577793
11692584507
11692589268
11692595127
11692599888
11692604649
11692610997
11692616307
11692620762
11692626927
11692631626
11692635349
11692643894
11692649021
11692653477
11692658116
11692664890
11692669224
11692676670
11692681919
11692687718
11692691929
11692698582
11692706516
11692712254
11692718052
11692724522
11692730015
11692735630
11692740391
11692746128
11692750706
11692757481
11692762241
11692766941
11692772922
11692778660
11692783542
11692788914
11692795322
11692800388
11692806309
11692813450
11692818149
11692822483
11692828647
11692833469
11692837681
11692844150
11692849399
11692854648
11692860630
11692865879
11692870151
11692877536
11692881748
11692887058
11692891880
11692897251
11692903293
11692908115
11692914218
11692919101
11692924350
11692928501
11692933811
11692939792
11692945957
11692950107
11692957126
11692962009
11692969150
11692974155
11692980991
11692985446
11692990634
11692995944
11693002780
11693006808
11693013583
11693018161
11693024081
11693029330
11693036777
11693041537
11693047946
11693053134
11693059726
11693064303
11693069430
11693074618
11693082553
11693086886
11693091525
11693099399
11693104526
11693108920
11693115878
11693120456
11693128146
11693137912
11693147677
11693152255
11693159823
11693165316
11693169101
11693173739
11693180941
11693187045
11693192294
11693196566
11693202914
11693207247
11693213168
11693217990
11693224459
11693230380
11693237887
11693243014
11693247958
11693253939
11693260531
11693267184
11693270480
11693277560
11693282687
11693290804
11693297823
11693304415
11693307833
11693315951
11693320284
11693327914
11693334627
11693339205
11693344698
11693349947
11693354647
11693360445
11693365267
11693370089
11693376742
11693383944
11693387118
11693394381
11693399019
11693405550
11693409884
11693416292
11693421358
11693427584
11693432345
11693437960
11693442171
11693447176
11693452608
11693457613
11693462740
11693466524
11693475618
11693479525
11693485567
11693490877
11693496187
11693500826
11693504915
11693512545
11693518709
11693523409
11693528902
11693533418
11693539583
11693543733
11693549654
11693554903
11693558687
11693567354
11693571260
11693577547
11693580843
11693587495
11693592073
11693596651
11693603548
11693609102
11693614290
11693619600
11693626497
11693631685
11693636201
11693640657
11693648225
11693652315
11693659517
11693665498
11693669465
11693674104
11693680208
11693684785
11693691072
11693696260
11693702791
11693706941
11693713106
11693719209
11693725007
11693729585
11693734834
11693741792
11693748750
11693753450
11693759431
11693764192
11693769990
11693776094
11693780610
11693787141
11693790864
11693798432
11693803865
11693808930
11693813813
11693819184
11693823335
11693829011
11693834626
11693844758
11693848115
11693854463
11693859834
11693865693
11693872346
11693878327
11693884675
11693891023
11693895966
11693901460
11693907502
11693913361
11693917756
11693923737
11693928193
11693932038
11693940034
11693943452
11693951386
11693954926
11693961335
11693967133
11693973786
11693982392
11693986909
11693993134
11693997895
11694001984
11694007721
11694012116
11694018158
11694022797
11694029328
11694033783
11694039521
11694043671
11694048493
11694054657
11694059418
11694064484
11694070282
11694076935
11694081879
11694087189
11694091523
11694097321
11694102997
11694107880
11694112396
11694118256
11694124115
11694128327
11694134491
11694144013
11694148773
11694153961
11694160004
11694165192
11694172455
11694177948
11694183624
11694189179
11694195465
11694200165
11694206207
11694213409
11694218903
11694225616
11694231232
11694235748
11694241913
11694246246
11694249481
11694257416
11694260956
11694269806
11694274261
11694280548
11694286285
11694291717
11694296417
11694302826
11694310638
11694316925
11694322296
11694327118
11694333404
11694338226
11694344329
11694348602
11694354522
11694360015
11694367401
11694371246
11694378265
11694383331
11694388153
11694394439
11694399078
11694405181
11694412628
11694419097
11694425628
11694430877
11694438323
11694447112
11694454620
11694460967
11694463714
11694479949
11694485870
11694491668
11694497710
11694504119
11694509307
11694512908
11694520660
11694524444
11694531890
11694536590
11694542388
11694546233
11694552703
11694555938
11694563262
11694569182
11694573882
11694579192
11694584868
11694589202
11694594390
11694600554
11694604888
11694609099
11694614653
11694620330
11694625457
11694631011
11694635161
11694641082
11694646941
11694652190
11694657500
11694662993
11694667693
11694672759
11694677275
11694683257
11694687957
11694694243
11694698455
11694702544
11694709075
11694712432
11694719756
11694722991
11694728423
11694734526
11694741118
11694745696
11694750395
11694754973
11694762175
11694766997
11694771208
11694777312
11694783354
11694788298
11694793547
11694799284
11694804045
11694809599
11694815642
11694820525
11694826628
11694830778
11694837431
11694840727
11694848051
11694851469
11694858305
11694863493
11694869536
11694874968
11694880156
11694884672
11694891874
11694896452
11694902800
11694907316
11694913237
11694918181
11694925261
11694930327
11694935576
11694942045
11694946806
11694952909
11694957487
11694963835
11694969023
11694972502
11694980253
11694983915
11694991484
11694996611
11695002470
11695007231
11695012846
11695017912
11695024626
11695031278
11695038847
11695042814
11695050016
11695055387
11695063688
11695069669
11695073393
11695083097
11695088651
11695093107
11695098478
11695102323
11695107633
11695113432
11695118375
11695124235
11695129362
11695136259
11695141691
11695148099
11695153348
11695159940
11695166471
11695171232
11695176359
11695180570
11695186857
11695191007
11695196988
11695201444
11695208341
11695212735
11695217679
11695222745
11695227445
11695233182
11695235074
11695243436
11695247770
11695255399
11695258817
11695265653
11695268949
11695275418
11695280057
11695285611
11695292386
11695296475
11695302762
11695307157
11695312650
11695314542
11695322659
11695326566
11695333096
11695337003
11695344144
11695349393
11695354581
11695359586
11695364652
11695368741
11695375455
11695381375
11695387235
11695391568
11695396756
11695402921
11695407498
11695413846
11695417630
11695424954
11695430997
11695435574
11695440823
11695447171
11695451749
11695457425
11695462247
11695468106
11695473904
11695480923
11695486966
11695491055
11695497281
11695501004
11695508694
11695513943
11695519070
11695525113
11695532132
11695536709
11695541958
11695546170
11695551846
11695557949
11695560086
11695570156
11695576748
11695582730
11695588223
11695594570
11695600186
11695605191
11695611660
11695616360
11695621731
11695635525
11695639675
11695645779
11695651760
11695654202
11695663174
11695669643
11695673916
11695678005
11695684780
11695689480
11695694607
11695699368
11695703579
11695709866
11695715969
11695722439
11695726894
11695732387
11695736111
11695739895
11695746731
11695753933
11695758633
11695764614
11695769436
11695775417
11695781643
11695786648
11695792385
11695798549
11695803005
11695809231
11695813503
11695817592
11695825161
11695830166
11695834804
11695842495
11695846889
11695850307
11695857875
11695862087
11695867397
11695872463
11695878688
11695882595
11695889858
11695893154
11695900783
11695904445
11695911891
11695915065
11695922817
11695926662
11695934352
11695937709
11695944301
11695949977
11695956447
11695961757
11695968471
11695974391
11695980312
11695985011
11695990382
11695996059
11696000575
11696006435
11696011195
11696018458
11696023585
11696029201
11696032680
11696038722
11696043239
11696049403
11696055141
11696060023
11696065089
11696071559
11696076198
11696080775
11696087062
11696092921
11696099452
11696105494
11696111659
11696118434
11696124171
11696128810
11696133998
11696142054
11696148341
11696156581
11696160670
11696167689
11696173487
11696178675
11696185633
11696193629
11696197352
11696204615
11696209742
11696213648
11696218653
11696224269
11696230067
11696234400
11696240138
11696245204
11696251246
11696256678
11696259364
11696270167
11696276087
11696280360
11696286646
11696290553
11696297999
11696302698
11696307886
11696312464
11696318507
11696322840
11696328333
11696332362
11696338221
11696342737
11696348658
11696353968
11696360071
11696365381
11696370936
11696376124
11696380274
11696383387
11696391688
11696396387
11696402125
11696407801
11696412012
11696417566
11696422937
11696424830
11696432825
11696438257
11696445032
11696448877
11696453699
11696459375
11696464502
11696470545
11696474695
11696480860
11696486414
11696490930
11696496851
11696501001
11696506433
11696512293
11696517786
11696523218
11696527918
11696532312
11696537256
11696543176
11696550501
11696554834
11696560999
11696566919
11696572290
11696577051
11696582605
11696588220
11696594263
11696599878
11696605798
11696609766
11696615625
11696622339
11696627832
11696631738
11696637353
11696643152
11696649560
11696656274
11696662134
11696668542
11696677636
11696685388
11696690515
11696696435
11696699792
11696708032
11696711938
11696720300
11696724206
11696730005
11696736535
11696740747
11696745935
11696751794
11696755212
11696763085
11696768762
11696775231
11696779992
11696785119
11696789636
11696795495
11696800256
11696805810
11696810388
11696816308
11696821374
11696826684
11696831384
11696837914
11696841943
11696848840
11696852685
11696858361
11696863915
11696869836
11696873376
11696880822
11696886254
11696892785
11696898034
11696903283
11696908044
11696912499
11696918725
11696924645
11696929528
11696936242
11696942162
11696948937
11696953576
11696958275
11696964318
11696970543
11696976220
11696981347
11696987999
11696992150
11696997521
11697002892
11697007592
11697012475
11697018456
11697023461
11697028527
11697033104
11697038597
11697043541
11697049157
11697053978
11697058373
11697063744
11697069176
11697073693
11697079003
11697083702
11697089379
11697094628
11697101158
11697105980
11697110314
11697117333
11697121178
11697129112
11697132774
11697139916
11697145043
11697150353
11697155174
11697162132
11697167687
11697172264
11697178001
11697183983
11697190147
11697197288
11697204124
11697210350
11697215538
11697221764
11697231407
11697237999
11697247093
11697254539
11697259849
11697267051
11697274681
11697284263
11697294029
11697300560
11697310142
11697318931
11697325950
11697335350
11697340843
11697350181
11697354637
11697362327
11697368675
11697377769
11697384300
11697388816
11697397178
11697403709
11697409263
11697414451
11697421104
11697429160
11697435203
11697439842
11697446189
11697452049
11697456748
11697461082
11697467002
11697471702
11697477195
11697483543
11697486839
11697492942
11697497581
11697504172
11697509483
11697513938
11697522178
11697527549
11697532126
11697538901
11697544578
11697548606
11697554526
11697559104
11697564658
11697570029
11697577659
11697581443
11697588706
11697593833
11697599265
11697603965
11697610068
11697615256
11697622275
11697627097
11697632102
11697638144
11697642661
11697648642
11697654441
11697659690
11697665488
11697670676
11697675254
11697680381
11697686484
11697691611
11697695883
11697701743
11697707602
11697712119
11697717795
11697721762
11697726950
11697731650
11697738791
11697742514
11697749594
11697756308
11697761618
11697766013
11697772849
11697776999
11697782492
11697786642
11697792746
11697797446
11697800986
11697809409
11697812704
11697819113
11697823813
11697830588
11697835654
11697841513
11697847067
11697855246
11697859884
11697864889
11697871176
11697876364
11697884115
11697889303
11697894430
11697899801
11697909018
11697915060
11697921591
11697928854
11697933615
11697939596
11697946188
11697952169
11697959616
11697964926
11697969564
11697974386
11697980062
11697984640
11697990988
11697996481
11698002340
11698007101
11698012777
11698017477
11698023275
11698029012
11698030905
11698038839
11698042135
11698048910
11698054159
11698058859
11698063558
11698068746
11698074728
11698079183
11698084493
11698090353
11698096395
11698101949
11698106344
11698113302
11698117879
11698124654
11698131612
11698136678
11698140890
11698147359
11698153768
11698159933
11698165487
11698171163
11698176778
11698184591
11698190816
11698194906
11698202657
11698209798
11698216146
11698221944
11698229634
11698236287
11698245015
11698252828
11698257955
11698266194
11698273213
11698276326
11698286153
11698293965
11698301351
11698308553
11698317830
11698324849
11698330220
11698337727
11698344502
11698352132
11698359334
11698364522
11698374226
11698382832
11698389363
11698396077
11698401448
11698410176
11698416829
11698424641
11698431843
11698440388
11698446736
11698455159
11698463093
11698469502
11698476643
11698482991
11698488240
11698496541
11698503499
11698510151
11698517415
11698526875
11698536152
11698541035
11698547505
11698557148
11698563252
11698571797
11698578694
11698586567
11698593952
11698600117
11698608174
11698616291
11698626057
11698632710
11698639057
11698647114
11698652668
11698662617
11698672382
11698680195
11698687885
11698692768
11698703205
11698710529
11698717548
11698724079
11698731159
11698737812
11698742756
11698750507
11698756489
11698762958
11698769367
11698775837
11698782123
11698787922
11698795795
11698802326
11698806842
11698813495
11698817768
11698823810
11698828449
11698832233
11698840046
11698845783
11698852253
11698857624
11698863117
11698866596
11698872638
11698878742
11698883808
11698888874
11698895709
11698900531
11698906757
11698911579
11698915912
11698921649
11698926288
11698932819
11698938373
11698944293
11698946185
11698954425
11698958270
11698964191
11698969623
11698974445
11698980365
11698986041
11698990924
11698997333
11699002093
11699007587
11699011920
11699017169
11699023517
11699031268
11699036517
11699041034
11699050433
11699057086
11699062884
11699067340
11699077899
11699082843
11699089862
11699096270
11699107196
11699114520
11699117999
11699128985
11699137225
11699144000
11699153094
11699160968
11699169635
11699178973
11699185626
11699194415
11699202899
11699210101
11699219927
11699227557
11699233538
11699242022
11699249957
11699257708
11699264483
11699271258
11699279131
11699283648
11699291643
11699299273
11699305315
11699314837
11699322344
11699329119
11699336382
11699342669
11699353045
11699360064
11699368548
11699375750
11699384417
11699393084
11699400835
11699412066
11699416704
11699429705
11699436541
11699445574
11699452471
11699464739
11699471331
11699479509
11699485552
11699491899
11699500566
11699505815
11699513139
11699522234
11699531755
11699537737
11699545793
11699553850
11699560014
11699567949
11699574358
11699577226
11699587846
11699594072
11699606340
11699611162
11699618486
11699624528
11699632158
11699638872
11699643754
11699653398
11699662736
11699669633
11699675676
11699682145
11699688005
11699692704
11699702226
11699708818
11699715226
11699723161
11699726091
11699737382
11699743241
11699749955
11699757157
11699762345
11699768327
11699772965
11699782426
11699791154
11699797502
11699804276
11699810380
11699816483
11699822099
11699829789
11699836747
11699844621
11699852616
11699861161
11699867081
11699872147
11699881303
11699885636
11699893998
11699900712
11699906022
11699915787
11699923051
11699930680
11699936905
11699945267
11699951798
11699956864
11699967911
11699975235
11699983292
11699991837
11700000016
11700006363
11700012284
11700018204
11700024796
11700032425
11700038346
11700041092
11700049942
11700059220
11700067276
11700073624
11700079849
11700088211
11700093826
11700100113
11700106522
11700113358
11700122391
11700128616
11700138199
11700144058
11700150589
11700156815
11700159622
11700171463
11700176163
11700183548
11700192032
11700201126
11700209122
11700220108
11700226761
11700232132
11700241409
11700248916
11700258987
11700275894
11700289383
11700301529
11700310501
11700327713
11700335769
11700345718
11700353958
11700359939
11700366104
11700375503
11700382461
11700390335
11700399246
11700402358
11700413406
11700422073
11700428787
11700435317
11700440627
11700446487
11700451064
11700460098
11700465041
11700471816
11700481277
11700488906
11700494765
11700497573
11700508254
11700513137
11700519546
11700525832
11700532912
11700539870
11700546584
11700556167
11700563369
11700570632
11700577285
11700585036
11700592055
11700597731
11700604995
11700617080
11700623915
11700630324
11700636672
11700644973
11700649977
11700659255
11700665847
11700673232
11700680068
11700685744
11700693984
11700701369
11700708449
11700714675
11700720778
11700727797
11700734816
11700741774
11700750990
11700759230
11700767348
11700772231
11700781386
11700787917
11700793166
11700799757
11700804640
11700814650
11700822645
11700830031
11700834242
11700842726
11700848952
11700853956
11700863600
11700868300
11700876173
11700883314
11700888502
11700897169
11700903700
11700911390
11700918287
11700925184
11700931654
11700936720
11700944105
11700951857
11700960096
11700966383
11700969374
11700980482
11700985914
11700993482
11701000501
11701008070
11701015333
11701026685
11701032728
11701039503
11701042677
11701055006
11701060255
11701068861
11701077222
11701086622
11701094312
11701099683
11701109571
11701116773
11701124463
11701132642
11701140272
11701146619
11701154310
11701161329
11701170850
11701179456
11701187391
11701192640
11701198255
11701204175
11701208936
11701215100
11701221021
11701227674
11701232618
11701235852
11701243970
11701247937
11701254834
11701259473
11701265698
11701270703
11701277661
11701283154
11701287488
11701292432
11701298596
11701303418
11701307874
11701312818
11701320203
11701324841
11701330518
11701336743
11701341809
11701346082
11701351880
11701356274
11701361157
11701368726
11701372082
11701378552
11701383435
11701388867
11701393506
11701400281
11701408032
11701412854
11701417737
11701424023
11701430371
11701435254
11701441540
11701445141
11701452038
11701457654
11701465283
11701468884
11701475476
11701480237
11701486218
11701491528
11701497448
11701506054
11701510754
11701515271
11701521618
11701527722
11701532299
11701538403
11701542004
11701548352
11701555126
11701562268
11701568737
11701573132
11701579724
11701583935
11701590222
11701594494
11701601696
11701606335
11701614086
11701618664
11701624584
11701630077
11701636120
11701641552
11701647167
11701653271
11701660595
11701665783
11701673229
11701678661
11701683910
11701693676
11701696606
11701707653
11701714245
11701723461
11701728039
11701738659
11701743175
11701751964
11701758556
11701763988
11701773205
11701783519
11701793468
11701800792
11701804393
11701813915
11701823192
11701831615
11701839122
11701842113
11701851879
11701860424
11701868175
11701872081
11701879772
11701886852
11701892894
11701901866
11701907237
11701914012
11701922679
11701932567
11701938426
11701944835
11701954845
11701959544
11701966746
11701972972
11701981578
11701989024
11701994762
11702002696
11702010203
11702014781
11702021007
11702027843
11702036082
11702041575
11702046763
11702054210
11702061900
11702067759
11702073619
11702081736
11702086436
11702094310
11702100169
11702108592
11702116954
11702119944
11702130931
11702139231
11702145579
11702149851
11702158579
11702165171
11702170420
11702180064
11702187937
11702195200
11702201548
11702204356
11702215586
11702220530
11702227488
11702234263
11702240061
11702247202
11702256113
11702263438
11702269968
11702278696
11702285166
11702291453
11702298594
11702305918
11702312754
11702319590
11702326609
11702335093
11702339670
11702348337
11702352305
11702359934
11702368479
11702371348
11702383249
11702389536
11702400217
11702405039
11702412790
11702419199
11702427378
11702434091
11702438913
11702447946
11702456430
11702462717
11702468942
11702474069
11702483103
11702490122
11702497324
11702503610
11702510263
11702516977
11702526193
11702534006
11702540292
11702543100
11702554819
11702559702
11702567209
11702574350
11702584054
11702593454
11702601816
11702608652
11702617258
11702624460
11702632944
11702639535
11702644906
11702652780
11702658456
11702666940
11702673227
11702678903
11702684579
11702689828
11702694162
11702697458
11702703988
11702710397
11702717111
11702720651
11702727487
11702732370
11702738046
11702742807
11702748056
11702754525
11702759408
11702765512
11702770577
11702776193
11702781259
11702785897
11702789315
11702797006
11702802377
11702809396
11702814706
11702818978
11702823922
11702829903
11702835946
11702840340
11702847115
11702852059
11702858346
11702863412
11702867623
11702873360
11702877755
11702880990
11702888863
11702893136
11702900521
11702906258
11702911812
11702915169
11702921944
11702927193
11702934029
11702940438
11702946602
11702951485
11702956185
11702962899
11702967354
11702976571
11702981331
11702987374
11702992440
11702998726
11703003853
11703010079
11703014473
11703020638
11703024178
11703031868
11703036385
11703044319
11703047982
11703054268
11703058907
11703065193
11703071480
11703077095
11703082039
11703088692
11703092964
11703099312
11703104317
11703110054
11703115120
11703120552
11703126595
11703132637
11703139046
11703143745
11703149849
11703154549
11703158943
11703167244
11703173225
11703177498
11703183479
11703190864
11703198921
11703201973
11703208320
11703213569
11703221748
11703230415
11703238106
11703243110
11703249458
11703254829
11703261421
11703265876
11703272651
11703277595
11703282966
11703288948
11703294746
11703300483
11703307075
11703313850
11703319282
11703325202
11703332771
11703339118
11703346870
11703353523
11703363166
11703367195
11703374824
11703378669
11703385322
11703390510
11703396552
11703399909
11703406501
11703411201
11703415656
11703422370
11703428230
11703433845
11703439338
11703443793
11703450263
11703454414
11703460456
11703465766
11703469611
11703477546
11703480781
11703487922
11703491279
11703498420
11703501655
11703508918
11703514045
11703519904
11703524726
11703529914
11703536017
11703540107
11703546210
11703550055
11703557441
11703568244
11703575568
11703586554
11703591864
11703598212
11703605292
11703611029
11703616339
11703624457
11703629706
11703634650
11703641059
11703644721
11703653083
11703656684
11703663519
11703670111
11703676581
11703681647
11703687567
11703692572
11703697882
11703704230
11703709418
11703715094
11703719183
11703727728
11703731268
11703738715
11703742255
11703749518
11703754889
11703760443
11703766730
11703772650
11703779486
11703784613
11703790716
11703795172
11703800177
11703805670
11703813849
11703821295
11703827704
11703832953
11703840704
11703847418
11703854071
11703858160
11703864081
11703872809
11703880255
11703890203
11703900152
11703905279
11703911077
11703916387
11703923223
11703928900
11703934393
11703939031
11703945135
11703950567
11703957525
11703962896
11703969000
11703974066
11703979498
11703984197
11703989629
11703993902
11704000250
11704004461
11704008611
11704016546
11704022527
11704027105
11704030340
11704038091
11704041326
11704048650
11704052190
11704058721
11704064458
11704071966
11704075506
11704080999
11704085699
11704094732
11704101263
11704107488
11704114019
11704124456
11704130498
11704138494
11704144231
11704152593
11704158330
11704165838
11704171819
11704179815
11704188176
11704194646
11704203740
11704210088
11704217412
11704223882
11704230474
11704239385
11704246648
11704252751
11704261235
11704267034
11704272466
11704281743
11704286443
11704298039
11704306767
11704312871
11704320989
11704326848
11704333318
11704341801
11704348515
11704355290
11704362248
11704370183
11704375859
11704384282
11704390019
11704398747
11704404484
11704412968
11704421696
11704428471
11704436894
11704444279
11704453312
11704458317
11704468266
11704475712
11704482304
11704489933
11704496769
11704504643
11704516850
11704528080
11704537724
11704544255
11704552860
11704561344
11704570683
11704577091
11704584782
11704591679
11704599918
11704608280
11704615238
11704623295
11704630802
11704636295
11704645267
11704651432
11704658817
11704664799
11704672611
11704680668
11704689091
11704695133
11704700077
11704709110
11704715275
11704722843
11704727482
11704737186
11704745487
11704752689
11704757145
11704765934
11704772831
11704778812
11704785465
11704793155
11704800113
11704809146
11704815616
11704823307
11704829654
11704836978
11704845340
11704852115
11704858524
11704867191
11704873660
11704878482
11704888675
11704894351
11704903751
11704910342
11704916690
11704923770
11704933231
11704939700
11704946658
11704952579
11704960879
11704968631
11704974856
11704983401
11704991946
11704998477
11705006412
11705012393
11705020389
11705026309
11705032962
11705040286
11705047976
11705055850
11705064151
11705070559
11705076297
11705084414
11705090213
11705097842
11705106448
11705113406
11705121524
11705127017
11705136050
11705140628
11705149783
11705156191
11705163516
11705171511
11705180666
11705187258
11705194949
11705201968
11705209658
11705215579
11705223696
11705229983
11705238161
11705246340
11705252505
11705260256
11705265932
11705274538
11705279055
11705287844
11705295290
11705304568
11705310976
11705318972
11705325808
11705332827
11705338808
11705346743
11705355654
11705364870
11705370913
11705379091
11705385134
11705389650
11705399538
11705404055
11705412661
11705420412
11705430910
11705435488
11705444460
11705451296
11705458681
11705464662
11705472292
11705476686
11705484133
11705488832
11705493166
11705497377
11705502565
11705506654
11705512209
11705519655
11705526003
11705530458
11705536134
11705541139
11705546022
11705550600
11705555421
11705561342
11705568056
11705571352
11705577516
11705582338
11705587770
11705593568
11705599367
11705604371
11705612611
11705617799
11705622316
11705625917
11705633424
11705636781
11705644655
11705650331
11705657960
11705662904
11705667482
11705673158
11705677613
11705681337
11705689515
11705694032
11705701173
11705706727
11705711732
11705718019
11705722718
11705728761
11705735780
11705740052
11705747987
11705751527
11705757691
11705764466
11705769410
11705774232
11705780946
11705786134
11705792848
11705798097
11705801698
11705808534
11705813783
11705820924
11705826478
11705832337
11705838319
11705844117
11705850709
11705857117
11705863038
11705871705
11705877930
11705885499
11705892518
11705898804
11705907349
11705913941
11705921204
11705928895
11705932007
11705942444
11705949952
11705957764
11705966675
11705977173
11705985901
11705991394
11706001099
11706005738
11706014283
11706021851
11706031067
11706038880
11706047363
11706054321
11706061035
11706066406
11706076233
11706081360
11706091675
11706098877
11706101990
11706112549
11706119751
11706129761
11706136658
11706143738
11706150391
11706158630
11706164368
11706170898
11706178894
11706186096
11706191284
11706201416
11706206482
11706215698
11706222595
11706229980
11706237243
11706242065
11706251403
11706259216
11706266967
11706273315
11706280639
11706287353
11706292663
11706301147
11706307556
11706314697
11706322143
11706331848
11706339172
11706343444
11706353515
11706359802
11706365844
11706372619
11706380126
11706386413
11706393432
11706402160
11706409484
11706414367
11706425536
11706431640
11706441650
11706450378
11706458739
11706467284
11706476745
11706484679
11706490600
11706500121
11706508117
11706516662
11706524657
11706532103
11706542235
11706548522
11706558715
11706566466
11706570128
11706580138
11706588500
11706596984
11706604308
11706607726
11706620543
11706626097
11706635863
11706640196
11706648192
11706654357
11706662535
11706669310
11706674315
11706681395
11706688780
11706698363
11706704466
11706711302
11706718077
11706725096
11706733092
11706739928
11706746825
11706754515
11706760130
11706771239
11706776366
11706785521
11706792601
11706798033
11706807188
11706811766
11706818175
11706830382
11706837462
11706847654
11706854857
11706861448
11706868406
11706878477
11706886778
11706891905
11706900999
11706911192
11706916746
11706924314
11706930662
11706936399
11706942991
11706948301
11706955869
