11859967074
11860005343
11860011508
11860018954
11860024325
11860031833
11860038241
11860043795
11860048739
11860056002
11860062228
11860070773
11860077731
11860083529
11860091037
11860097018
11860104403
11860111422
11860117587
11860124056
11860132235
11860138339
11860142977
11860150790
11860158236
11860165682
11860174166
11860179903
11860187594
11860193392
11860200655
11860207858
11860214083
11860221224
11860228487
11860235323
11860242281
11860248812
11860253512
11860261507
11860266085
11860274080
11860280245
11860284212
11860292269
11860297518
11860304598
11860311129
11860316622
11860322603
11860328585
11860335177
11860340853
11860345980
11860352266
11860358492
11860364351
11860370455
11860374910
11860382112
11860386995
11860392855
11860398958
11860405428
11860409395
11860416841
11860421907
11860429231
11860436128
11860440462
11860448885
11860453218
11860460359
11860467806
11860474825
11860480623
11860486543
11860493318
11860500276
11860506258
11860512788
11860522005
11860528841
11860534395
11860542757
11860550996
11860558015
11860565828
11860571809
11860579683
11860584993
11860591890
11860599153
11860603364
11860611665
11860618196
11860624788
11860631196
11860637544
11860644258
11860649995
11860655488
11860663179
11860668550
11860675447
11860681733
11860686616
11860693086
11860700166
11860706574
11860713655
11860718781
11860724214
11860730378
11860738618
11860745759
11860752046
11860759309
11860764130
11860770173
11860775422
11860782136
11860789826
11860796296
11860802399
11860809724
11860814667
11860821625
11860829194
11860835236
11860842133
11860847626
11860853425
11860861603
11860867219
11860873993
11860880707
11860887421
11860893708
11860900544
11860908051
11860913544
11860920075
11860929902
11860935883
11860941986
11860949189
11860955597
11860963288
11860971222
11860978241
11860985504
11860990570
11860998993
11861004059
11861011261
11861020233
11861026154
11861034516
11861040497
11861046845
11861059296
11861065155
11861074921
11861082428
11861091888
11861098602
11861107147
11861114349
11861120819
11861131622
11861137604
11861143524
11861149628
11861157562
11861164398
11861175445
11861181000
11861189850
11861195038
11861204254
11861211639
11861218536
11861225006
11861234161
11861240081
11861246307
11861253997
11861260711
11861267730
11861276153
11861282989
11861290985
11861297454
11861302703
11861308441
11861313201
11861319000
11861324310
11861329193
11861332672
11861338836
11861343292
11861347930
11861353729
11861357330
11861363494
11861367217
11861372100
11861378509
11861383147
11861388091
11861393218
11861397857
11861403533
11861408050
11861413909
11861418426
11861423980
11861427581
11861433135
11861438018
11861442535
11861448821
11861453582
11861459807
11861465056
11861470916
11861474761
11861480437
11861486419
11861494048
11861499419
11861505340
11861511260
11861518157
11861523894
11861529387
11861537871
11861545256
11861551909
11861558806
11861566069
11861572539
11861579802
11861585662
11861593047
11861597808
11861607024
11861613188
11861620940
11861627715
11861634734
11861642607
11861649992
11861658904
11861667448
11861680510
11861685515
11861695219
11861702666
11861712126
11861717314
11861725493
11861733305
11861740507
11861748381
11861754606
11861762907
11861767180
11861776091
11861782377
11861790434
11861795805
11861803007
11861813261
11861817778
11861825651
11861833403
11861841703
11861849394
11861855314
11861863432
11861870512
11861878263
11861885710
11861890837
11861898893
11861906584
11861913053
11861919950
11861926786
11861933866
11861940946
11861949491
11861953764
11861961332
11861970426
11861977018
11861984464
11861991361
11861997648
11862004972
11862013334
11862021513
11862027921
11862036039
11862040983
11862050687
11862057462
11862064664
11862071866
11862081022
11862087186
11862093595
11862101407
11862109098
11862114164
11862122953
11862127408
11862136075
11862144376
11862152616
11862160489
11862166593
11862172574
11862179166
11862186307
11862194181
11862201810
11862207974
11862213223
11862224393
11862231534
11862238858
11862244718
11862252347
11862263089
11862270291
11862277493
11862282925
11862290921
11862299954
11862307706
11862316067
11862323148
11862328397
11862336270
11862342679
11862351285
11862359402
11862364834
11862373196
11862381619
11862387600
11862395291
11862400540
11862410428
11862416287
11862424160
11862430752
11862440152
11862444607
11862452603
11862460110
11862466336
11862475186
11862482449
11862487820
11862498623
11862507351
11862513516
11862521938
11862532131
11862537624
11862548367
11862555019
11862560574
11862569729
11862580837
11862590237
11862596157
11862604031
11862607998
11862617153
11862623257
11862630459
11862637539
11862645779
11862654384
11862658230
11862668117
11862673733
11862678982
11862688503
11862692959
11862700527
11862709682
11862718105
11862723659
11862732387
11862738186
11862742946
11862750148
11862757412
11862762844
11862769680
11862779323
11862786464
11862793361
11862798915
11862806728
11862812770
11862819789
11862826503
11862834010
11862841213
11862850063
11862857021
11862863063
11862869228
11862877040
11862884059
11862891383
11862897121
11862903773
11862911952
11862918727
11862926784
11862932094
11862938747
11862946864
11862954005
11862958888
11862966517
11862972560
11862981349
11862985499
11862996180
11863002284
11863008815
11863014125
11863021876
11863029750
11863038539
11863044703
11863051112
11863058863
11863064418
11863070948
11863081202
11863085658
11863095912
11863102687
11863110011
11863119288
11863125758
11863133387
11863140589
11863146937
11863153529
11863160853
11863168421
11863177821
11863185877
11863191492
11863199671
11863205897
11863213953
11863220179
11863224940
11863233301
11863238306
11863250696
11863255091
11863262232
11863270350
11863278162
11863284632
11863291285
11863297571
11863308497
11863317469
11863325892
11863331324
11863339807
11863346521
11863354395
11863359888
11863368677
11863374964
11863383203
11863395655
11863403345
11863410669
11863420252
11863428003
11863437097
11863442163
11863450403
11863457544
11863465295
11863469690
11863477991
11863483789
11863491113
11863498132
11863503931
11863512598
11863520044
11863527978
11863531824
11863538476
11863546960
11863553247
11863558923
11863566064
11863571435
11863577661
11863585779
11863592065
11863599389
11863606042
11863612207
11863619409
11863623376
11863632165
11863639306
11863645898
11863653711
11863660058
11863666711
11863673059
11863679345
11863688623
11863692834
11863700830
11863709741
11863716332
11863722375
11863729943
11863736962
11863742883
11863750878
11863757836
11863763207
11863771203
11863779321
11863789391
11863793481
11863801720
11863810265
11863817284
11863824486
11863832177
11863840600
11863847680
11863855980
11863859398
11863868554
11863874413
11863881127
11863888329
11863893334
11863901391
11863906334
11863916344
11863924767
11863930870
11863938012
11863944481
11863950402
11863956688
11863965111
11863973107
11863981346
11863987389
11863995445
11864001610
11864007714
11864013695
11864020958
11864028893
11864034935
11864039818
11864049217
11864056053
11864063377
11864071251
11864078880
11864088402
11864096275
11864105247
11864114647
11864121971
11864129173
11864135704
11864144310
11864152000
11864161644
11864166221
11864174217
11864182640
11864191795
11864198448
11864208458
11864213646
11864222557
11864229087
11864238487
11864243858
11864252159
11864261497
11864272789
11864280113
11864287620
11864296653
11864300682
11864308494
11864315818
11864321678
11864329429
11864336204
11864342552
11864348167
11864353904
11864362815
11864369590
11864374656
11864381858
11864386436
11864393272
11864401816
11864411155
11864416404
11864423667
11864430320
11864437461
11864444175
11864448630
11864455466
11864461692
11864469565
11864475791
11864482993
11864488669
11864493186
11864501853
11864506369
11864514914
11864524985
11864530844
11864537802
11864542380
11864549277
11864556296
11864563132
11864569358
11864575095
11864581137
11864588523
11864595542
11864600302
11864607627
11864614646
11864620078
11864626486
11864634726
11864642111
11864649741
11864656943
11864662253
11864669455
11864673300
11864682394
11864688315
11864693869
11864701804
11864710104
11864719198
11864723715
11864730978
11864739889
11864746420
11864755392
11864762106
11864767416
11864775595
11864785483
11864792624
11864797873
11864805868
11864812582
11864818625
11864826742
11864833273
11864841635
11864846640
11864856832
11864863424
11864869161
11864877035
11864881185
11864890280
11864896627
11864903951
11864912008
11864919393
11864928365
11864934164
11864942281
11864948751
11864954794
11864962423
11864969320
11864975790
11864983846
11864994710
11865001058
11865007711
11865012960
11865021261
11865027914
11865034505
11865040670
11865049947
11865061849
11865070028
11865076314
11865085714
11865090963
11865099141
11865106710
11865115010
11865122029
11865128377
11865136678
11865143880
11865149556
11865155294
11865162862
11865170125
11865172505
11865184773
11865194234
11865201009
11865207051
11865213765
11865221150
11865227742
11865237325
11865242329
11865251119
11865258260
11865266438
11865272786
11865281209
11865287434
11865295308
11865306599
11865317280
11865320454
11865333394
11865337910
11865348530
11865355061
11865361897
11865369038
11865375081
11865382283
11865385823
11865395100
11865401509
11865413533
11865419148
11865424275
11865431599
11865438557
11865443928
11865449726
11865456196
11865463398
11865471333
11865478352
11865485005
11865492695
11865497334
11865504963
11865512653
11865518635
11865527241
11865532673
11865541279
11865549030
11865556477
11865564167
11865571857
11865578266
11865583271
11865590778
11865598591
11865608051
11865613788
11865621662
11865627888
11865634235
11865641437
11865648517
11865655720
11865662006
11865671833
11865684955
11865695453
11865703510
11865714618
11865722187
11865728107
11865734455
11865741840
11865749286
11865758808
11865766925
11865774372
11865781330
11865786762
11865797321
11865807636
11865814716
11865827106
11865833637
11865844074
11865849689
11865856220
11865863666
11865868915
11865877826
11865883258
11865890338
11865897845
11865906451
11865915057
11865920795
11865929889
11865938128
11865945636
11865954242
11865966571
11865975787
11865983844
11865992267
11865996295
11866003924
11866010943
11866015582
11866022662
11866029193
11866037127
11866044757
11866052874
11866058184
11866065509
11866071063
11866077105
11866082781
11866090594
11866099627
11866104876
11866110003
11866115679
11866120501
11866125201
11866130023
11866135394
11866142046
11866146990
11866151812
11866156817
11866162188
11866167620
11866172930
11866178545
11866183977
11866190142
11866195818
11866201495
11866207171
11866213457
11866218706
11866222979
11866230120
11866234820
11866240435
11866246111
11866251543
11866254290
11866260943
11866265459
11866272905
11866278826
11866284075
11866288286
11866294085
11866298418
11866304949
11866309404
11866316607
11866321184
11866326616
11866330706
11866336992
11866342424
11866347917
11866352678
11866358354
11866363420
11866369341
11866374163
11866379656
11866384661
11866389238
11866394426
11866401445
11866408281
11866412493
11866418352
11866422746
11866429887
11866434892
11866439897
11866444902
11866452348
11866457414
11866463396
11866468767
11866473650
11866478960
11866485124
11866490251
11866495622
11866501176
11866506120
11866511308
11866515275
11866520891
11866526323
11866533952
11866542070
11866547807
11866554155
11866560136
11866565812
11866573442
11866578264
11866584794
11866589189
11866595598
11866600847
11866605851
11866611345
11866617692
11866623307
11866629533
11866635453
11866639787
11866645646
11866653276
11866657121
11866663896
11866668290
11866675248
11866679521
11866685319
11866690385
11866695207
11866701676
11866708573
11866713456
11866719987
11866724564
11866730363
11866734879
11866740434
11866744279
11866750077
11866755570
11866760819
11866765641
11866771378
11866776688
11866781876
11866787797
11866794450
11866799088
11866804887
11866811356
11866816178
11866822343
11866829728
11866835648
11866841324
11866846268
11866851395
11866856644
11866861466
11866866776
11866873002
11866878190
11866883194
11866888932
11866894791
11866899613
11866904984
11866909378
11866914627
11866920426
11866923661
11866929520
11866934403
11866938919
11866944290
11866949112
11866954239
11866961502
11866966629
11866969498
11866976212
11866980423
11866987442
11866993241
11866998429
11867004959
11867009598
11867015885
11867020767
11867024918
11867031754
11867036453
11867042496
11867047562
11867052506
11867057877
11867064713
11867069412
11867075088
11867083572
11867088943
11867095718
11867101272
11867106827
11867111648
11867116958
11867122146
11867127518
11867134414
11867138382
11867145828
11867149978
11867155288
11867160171
11867165481
11867173660
11867179214
11867185257
11867190506
11867196182
11867200210
11867204300
11867209976
11867215225
11867222976
11867227310
11867232132
11867236648
11867241653
11867247879
11867253311
11867258438
11867263870
11867270706
11867274612
11867281021
11867287551
11867292068
11867298171
11867302810
11867309341
11867313857
11867320083
11867324233
11867330520
11867334609
11867340041
11867346511
11867352187
11867356887
11867361465
11867367629
11867372207
11867377090
11867381789
11867387221
11867393691
11867399489
11867404922
11867410415
11867415847
11867420486
11867427138
11867432570
11867435805
11867442519
11867447158
11867453689
11867458327
11867463637
11867469375
11867474257
11867479445
11867486159
11867492934
11867497939
11867502639
11867506484
11867511977
11867516860
11867521987
11867530043
11867534377
11867540480
11867546035
11867551222
11867557509
11867563613
11867570021
11867576918
11867581191
11867585402
11867593947
11867598219
11867603713
11867606825
11867614516
11867618971
11867627638
11867633131
11867640273
11867644728
11867650404
11867657423
11867662184
11867669691
11867674391
11867681593
11867685988
11867692152
11867696425
11867702711
11867706435
11867713270
11867717848
11867723646
11867729017
11867734327
11867739882
11867746534
11867752272
11867757826
11867762648
11867768141
11867774855
11867780104
11867785902
11867791212
11867796400
11867801771
11867808607
11867814161
11867819715
11867825453
11867830946
11867836683
11867839796
11867848463
11867852919
11867861769
11867869459
11867875624
11867883680
11867889662
11867896253
11867900892
11867906141
11867910658
11867915540
11867920973
11867926222
11867930860
11867935865
11867940748
11867945875
11867950147
11867954420
11867957716
11867962843
11867966749
11867973524
11867978101
11867982862
11867986890
11867991651
11867996961
11868001783
11868006666
11868013074
11868017835
11868022596
11868027234
11868032178
11868037061
11868042005
11868046766
11868051465
11868057081
11868062146
11868068494
11868072522
11868076612
11868082898
11868087476
11868095044
11868101087
11868106153
11868109693
11868115735
11868119336
11868125501
11868130994
11868135816
11868140027
11868145093
11868150342
11868157788
11868163281
11868168592
11868177381
11868183240
11868189221
11868193250
11868199048
11868202954
11868208936
11868213086
11868220837
11868223706
11868230847
11868235608
11868240369
11868246106
11868250989
11868258740
11868263867
11868268994
11868273816
11868278760
11868283581
11868287549
11868293286
11868298596
11868304272
11868309827
11868315014
11868319348
11868324231
11868328381
11868335095
11868340161
11868345654
11868350476
11868356701
11868360974
11868365918
11868372265
11868376233
11868382580
11868387036
11868393628
11868398510
11868403271
11868408703
11868413708
11868417675
11868424206
11868430004
11868434948
11868439953
11868445080
11868450329
11868455639
11868460461
11868464367
11868469067
11868477551
11868481213
11868488293
11868492321
11868499340
11868503735
11868508801
11868516125
11868520092
11868527782
11868532848
11868538281
11868543774
11868548962
11868555492
11868558605
11868568310
11868572338
11868577343
11868582897
11868587841
11868592602
11868597607
11868605663
11868611034
11868616039
11868622204
11868626354
11868632152
11868636364
11868643139
11868648754
11868653698
11868660106
11868664379
11868670788
11868674633
11868680858
11868686046
11868692211
11868700389
11868705272
11868711986
11868717296
11868723278
11868728099
11868734996
11868739940
11868745922
11868750804
11868754772
11868761486
11868766429
11868772411
11868778209
11868784068
11868789134
11868794322
11868799999
11868804149
11868808299
11868814647
11868818980
11868825694
11868830211
11868836620
11868842662
11868848094
11868852367
11868859080
11868863841
11868869395
11868876048
11868880443
11868885326
11868891185
11868896251
11868900035
11868906749
11868912791
11868917918
11868921947
11868927440
11868933604
11868937510
11868944163
11868950755
11868954417
11868962352
11868967540
11868975047
11868979014
11868983470
11868989940
11868993724
11869001231
11869006297
11869013438
11869017100
11869022288
11869027415
11869032664
11869035472
11869041880
11869046336
11869054454
11869060801
11869066477
11869070506
11869076365
11869080638
11869085093
11869091380
11869096873
11869101145
11869108469
11869113291
11869118174
11869123606
11869128977
11869132029
11869139536
11869144846
11869150156
11869154917
11869159922
11869165293
11869170298
11869177073
11869182017
11869188669
11869192515
11869197703
11869204783
11869209482
11869215708
11869221567
11869230539
11869236460
11869245005
11869253489
11869262888
11869270212
11869280283
11869291574
11869300852
11869304941
11869317881
11869322641
11869331247
11869338938
11869341135
11869353769
11869358957
11869369699
11869376535
11869381784
11869390817
11869395273
11869404428
11869410898
11869420541
11869425485
11869435129
11869443124
11869446970
11869457162
11869463327
11869469064
11869476327
11869482248
11869489633
11869497262
11869505319
11869509897
11869517282
11869524423
11869531686
11869537240
11869545602
11869550912
11869559518
11869566720
11869575143
11869581552
11869588205
11869594735
11869602365
11869610543
11869616647
11869625619
11869630441
11869641305
11869648385
11869654672
11869663583
11869669198
11869674569
11869684762
11869689340
11869698129
11869707894
11869715157
11869721444
11869727242
11869734444
11869741708
11869749642
11869753854
11869762643
11869769479
11869778695
11869786874
11869794198
11869799874
11869807625
11869816414
11869823433
11869830208
11869835824
11869844796
11869852181
11869859017
11869866280
11869874764
11869881600
11869890145
11869895028
11869902901
11869910775
11869920052
11869927498
11869932015
11869942757
11869949837
11869954842
11869963448
11869968086
11869978768
11869986580
11869995674
11870001595
11870006355
11870017281
11870024056
11870030708
11870038582
11870046577
11870052864
11870060493
11870068184
11870077156
11870083687
11870092598
11870097481
11870104378
11870112190
11870118843
11870127449
11870137520
11870144417
11870153572
11870162361
11870170967
11870178901
11870185493
11870192878
11870199470
11870207466
11870217414
11870225105
11870231025
11870236640
11870243049
11870251594
11870257881
11870263801
11870272224
11870277595
11870286872
11870294135
11870301276
11870308906
11870317146
11870322578
11870330451
11870336555
11870343147
11870353339
11870360419
11870365241
11870373237
11870380317
11870386359
11870392951
11870399909
11870407294
11870416877
11870425605
11870431647
11870436774
11870443976
11870452094
11870459479
11870465155
11870473151
11870478217
11870488471
11870494941
11870500983
11870508857
11870515876
11870522650
11870528876
11870536139
11870545783
11870555731
11870563605
11870569220
11870577338
11870583930
11870588995
11870598761
11870603522
11870612006
11870622137
11870629095
11870633185
11870643317
11870649725
11870655096
11870663336
11870667548
11870675116
11870682745
11870691962
11870699957
11870706488
11870713812
11870719855
11870728094
11870734259
11870739630
11870746893
11870753790
11870762152
11870766302
11870776983
11870783087
11870790350
11870795538
11870803961
11870810247
11870817327
11870827215
11870831427
11870838812
11870845892
11870851873
11870859991
11870864202
11870874151
11870881170
11870888921
11870896856
11870902715
11870908697
11870915228
11870922918
11870930791
11870936407
11870944891
11870953680
11870960149
11870967962
11870975896
11870984258
11870993352
11871003423
11871011419
11871022283
11871028142
11871040227
11871046087
11871055120
11871068181
11871076665
11871082769
11871091985
11871098149
11871106755
11871115056
11871123601
11871129888
11871138738
11871143315
11871151921
11871159123
11871164983
11871171025
11871178227
11871189336
11871195195
11871204350
11871209721
11871217900
11871225713
11871229863
11871238835
11871244817
11871253606
11871260380
11871265202
11871272465
11871278691
11871286015
11871292058
11871298771
11871305913
11871313115
11871319707
11871326664
11871334172
11871341923
11871348637
11871357243
11871361882
11871368412
11871376164
11871384159
11871393498
11871400883
11871407597
11871414189
11871422184
11871430912
11871436894
11871443485
11871450566
11871458988
11871467350
11871473881
11871481938
11871489567
11871495854
11871502689
11871510502
11871515873
11871525578
11871532719
11871540592
11871548832
11871557682
11871564701
11871574406
11871584537
11871593204
11871613468
11871633915
11871645389
11871658512
11871672184
11871683902
11871694583
11871705020
11871714786
11871726261
11871735416
11871741702
11871748111
11871754825
11871760501
11871767520
11871773013
11871780094
11871789188
11871796634
11871803104
11871809390
11871815860
11871822330
11871828311
11871834598
11871841922
11871848453
11871855411
11871862491
11871865604
11871873050
11871880679
11871887088
11871892398
11871898990
11871907413
11871916385
11871926272
11871933108
11871940738
11871948001
11871955447
11871963199
11871971682
11871978823
11871983340
11871990603
11871995913
11872000979
11872005130
11872012149
11872018130
11872023196
11872029299
11872033145
11872037478
11872042910
11872047427
11872053286
11872058047
11872062014
11872068667
11872072939
11872078860
11872083132
11872089724
11872095767
11872101321
11872106631
11872111819
11872116579
11872121340
11872125674
11872130434
11872133303
11872141421
11872146059
11872151186
11872155032
11872160586
11872165713
11872170168
11872174502
11872181948
11872185732
11872190676
11872195925
11872200319
11872204043
11872209231
11872213869
11872221254
11872225588
11872232058
11872236208
11872241518
11872245852
11872250734
11872256838
11872262697
11872267397
11872272951
11872277163
11872281618
11872286074
11872290407
11872295290
11872301516
11872307070
11872311708
11872319216
11872324159
11872328981
11872333376
11872338686
11872343691
11872350588
11872356142
11872360475
11872367250
11872372682
11872377626
11872384340
11872391664
11872396547
11872401430
11872406679
11872413271
11872418642
11872423891
11872429689
11872434694
11872439760
11872446840
11872450746
11872457643
11872461977
11872469545
11872475221
11872483095
11872488954
11872497499
11872503053
11872509279
11872513734
11872520448
11872526552
11872533754
11872538636
11872543763
11872550172
11872555055
11872559449
11872564821
11872570558
11872577638
11872581422
11872589418
11872594728
11872598634
11872602906
11872609132
11872614381
11872622193
11872625550
11872632997
11872638612
11872643800
11872648133
11872652406
11872659059
11872666505
11872670899
11872677430
11872681519
11872686768
11872692933
11872697633
11872702699
11872708070
11872714722
11872720094
11872724854
11872729005
11872735657
11872739930
11872745240
11872750367
11872756104
11872761536
11872766968
11872773133
11872777527
11872782166
11872788880
11872796143
11872801880
11872806763
11872812928
11872817200
11872821473
11872827881
11872833375
11872838685
11872845093
11872850403
11872854859
11872861451
11872866822
11872871704
11872876770
11872883484
11872889893
11872894471
11872899964
11872904663
11872910523
11872915650
11872921570
11872926392
11872933899
11872938416
11872943787
11872948853
11872953919
11872959412
11872966553
11872971436
11872978455
11872984009
11872989624
11872994995
11872999756
11873006958
11873011414
11873017273
11873023499
11873029358
11873036743
11873041382
11873048584
11873054626
11873059570
11873065369
11873070618
11873077820
11873083618
11873091003
11873096130
11873104431
11873108703
11873113952
11873120910
11873126037
11873131103
11873136169
11873141174
11873147400
11873151855
11873157592
11873162780
11873169128
11873173156
11873179382
11873184143
11873189148
11873194152
11873199035
11873205444
11873210388
11873215454
11873220336
11873225341
11873230407
11873235595
11873240478
11873246154
11873251647
11873258117
11873261962
11873268005
11873273437
11873276183
11873283386
11873287963
11873294250
11873298827
11873305480
11873309570
11873314819
11873320861
11873325805
11873330627
11873337646
11873344298
11873348754
11873353576
11873357909
11873364684
11873368712
11873374206
11873380004
11873385741
11873391234
11873396667
11873401854
11873407165
11873409911
11873416259
11873420958
11873428893
11873433471
11873438109
11873443114
11873448485
11873454589
11873458617
11873463622
11873469786
11873476317
11873481139
11873485961
11873490844
11873496031
11873501830
11873507201
11873514403
11873520445
11873526183
11873531737
11873536559
11873542235
11873546507
11873552611
11873559203
11873564330
11873569518
11873576048
11873580992
11873587767
11873594054
11873600279
11873604186
11873615233
11873619017
11873626646
11873631346
11873638182
11873642454
11873648741
11873653746
11873660704
11873665098
11873671385
11873675841
11873682432
11873687376
11873692381
11873697569
11873703367
11873709837
11873714110
11873719542
11873724302
11873730833
11873734556
11873741148
11873747618
11873753172
11873757933
11873763243
11873768858
11873776365
11873780882
11873786619
11873789671
11873797911
11873802915
11873810423
11873816038
11873821226
11873827024
11873832701
11873837278
11873842771
11873848936
11873854734
11873859129
11873867002
11873871946
11873877989
11873884519
11873890318
11873895750
11873901304
11873907591
11873913511
11873919431
11873925230
11873931516
11873937192
11873942747
11873948484
11873954282
11873959043
11873968381
11873974302
11873979795
11873985288
11873992002
11873996580
11874001401
11874007688
11874012266
11874016965
11874021787
11874029233
11874035276
11874041562
11874046323
11874050534
11874055783
11874058469
11874065305
11874070066
11874076841
11874083310
11874088864
11874093442
11874099179
11874103208
11874109555
11874113767
11874120542
11874124997
11874130979
11874135312
11874142087
11874146298
11874152097
11874157285
11874164853
11874172543
11874180600
11874186215
11874192929
11874199155
11874203915
11874211057
11874217526
11874222287
11874227597
11874233823
11874238766
11874244015
11874250424
11874255612
11874262082
11874267026
11874272275
11874278317
11874284482
11874289059
11874295529
11874300168
11874306088
11874310360
11874316708
11874320858
11874326352
11874330380
11874336911
11874342831
11874347897
11874351864
11874357418
11874361386
11874366940
11874372067
11874379391
11874384091
11874390377
11874394589
11874399594
11874405819
11874410519
11874415524
11874421139
11874427853
11874431332
11874438107
11874442013
11874447445
11874452572
11874457821
11874464474
11874470028
11874475887
11874481442
11874487240
11874493160
11874499569
11874505550
11874510983
11874517574
11874524471
11874531124
11874534786
11874543453
11874549801
11874553951
11874561886
11874568416
11874573482
11874580318
11874584591
11874589657
11874595821
11874600582
11874606014
11874611385
11874617183
11874623714
11874628048
11874632259
11874638546
11874644588
11874649532
11874654598
11874662349
11874670284
11874676143
11874681819
11874686214
11874691158
11874698055
11874703914
11874709712
11874715389
11874718135
11874726375
11874731441
11874739314
11874748103
11874755306
11874762630
11874768306
11874773494
11874779353
11874785518
11874790950
11874797237
11874802791
11874807430
11874813960
11874819514
11874827449
11874832454
11874838008
11874844173
11874850215
11874854793
11874860103
11874865413
11874871699
11874876704
11874882991
11874889277
11874895686
11874900752
11874905574
11874909968
11874916743
11874921199
11874927546
11874935420
11874943232
11874952449
11874959773
11874968623
11874975886
11874984065
11874990901
11874997248
11875004756
11875013362
11875021723
11875028010
11875035761
11875042536
11875050166
11875060175
11875068476
11875075984
11875084406
11875091914
11875098444
11875109064
11875116694
11875124445
11875132929
11875140620
11875148310
11875154108
11875160334
11875169550
11875175776
11875183649
11875192988
11875199152
11875206171
11875214228
11875221491
11875228937
11875235956
11875242548
11875252192
11875258478
11875268183
11875273432
11875283197
11875289606
11875297418
11875305597
11875311334
11875319879
11875327081
11875335016
11875342462
11875349237
11875356622
11875362848
11875370599
11875379450
11875387933
11875395807
11875404413
11875408868
11875418939
11875425592
11875435480
11875442499
11875450189
11875458246
11875467828
11875478204
11875485467
11875493036
11875500665
11875508783
11875518609
11875526483
11875532525
11875540338
11875548639
11875556329
11875564080
11875569879
11875576532
11875589837
11875595635
11875603875
11875611871
11875619683
11875625848
11875635125
11875641229
11875648919
11875656182
11875665093
11875672356
11875678277
11875686089
11875693291
11875701226
11875709588
11875717400
11875723931
11875731621
11875739861
11875744866
11875754571
11875762444
11875768914
11875777459
11875784600
11875791680
11875800896
11875806633
11875814385
11875822258
11875830132
11875834221
11875844414
11875852105
11875860222
11875866875
11875876030
11875882622
11875890740
11875900994
11875908135
11875915337
11875923760
11875931389
11875939018
11875947563
11875955681
11875964165
11875970940
11875978630
11875984734
11875994194
11876000359
11876008110
11876015129
11876023247
11876030876
11876038261
11876048515
11876053398
11876063103
11876069267
11876077202
11876085502
11876091240
11876099724
11876107353
11876113640
11876123039
11876129081
11876136467
11876145683
11876150932
11876162407
11876173393
11876179496
11876187919
11876195671
11876204093
11876214408
11876221305
11876229789
11876240775
11876249381
11876257926
11876265250
11876273795
11876281547
11876294547
11876305045
11876318473
11876330802
11876343741
11876351249
11876367423
11876378470
11876386039
11876396903
11876404593
11876410148
11876416373
11876427909
11876434745
11876441092
11876449027
11876456412
11876462638
11876469779
11876478446
11876482840
11876492179
11876497306
11876503348
11876509879
11876518973
11876525382
11876532034
11876541373
11876548575
11876554923
11876564627
11876570792
11876578238
11876583914
11876591727
11876595755
11876602713
11876609610
11876618094
11876626150
11876630057
11876636587
11876643484
11876649161
11876657156
11876665213
11876670157
11876677847
11876686209
11876693411
11876699637
11876705862
11876711905
11876718374
11876725332
11876731619
11876739553
11876744558
11876753164
11876760122
11876766714
11876773672
11876778677
11876786306
11876792471
11876798330
11876805044
11876814565
11876821890
11876828237
11876833547
11876839590
11876846731
11876851675
11876856008
11876866262
11876870657
11876879507
11876887380
11876893545
11876899404
11876905447
11876910818
11876918264
11876925222
11876930837
11876935842
11876947439
11876954214
11876961049
11876968313
11876973989
11876981862
11876985891
11876992788
11877003713
11877012929
11877020559
11877026662
11877034353
11877038747
11877045034
11877054494
11877058034
11877065725
11877074025
11877079640
11877086537
11877095388
11877102956
11877111318
11877118825
11877121694
11877132741
11877138234
11877150075
11877158315
11877165639
11877176625
11877184438
11877190419
11877201527
11877207570
11877216237
11877223134
11877232960
11877242726
11877248891
11877255665
11877262257
11877270497
11877275136
11877285817
11877293812
11877302296
11877310780
11877320485
11877328724
11877334767
11877342884
11877347035
11877354847
11877366261
11877372975
11877380726
11877382740
11877394093
11877398548
11877407887
11877416004
11877421070
11877429920
11877435108
11877447376
11877454762
11877461720
11877469532
11877475941
11877481129
11877491444
11877497486
11877505421
11877515552
11877522877
11877529591
11877539112
11877546253
11877552479
11877558826
11877565235
11877571216
11877579029
11877589039
11877596912
11877603138
11877609546
11877616260
11877623523
11877631885
11877638538
11877647449
11877653553
11877662281
11877672596
11877678577
11877685840
11877693714
11877699939
11877706409
11877713001
11877722827
11877729358
11877737110
11877742969
11877749317
11877756213
11877763599
11877770740
11877776233
11877784229
11877793201
11877799426
11877806018
11877814502
11877822314
11877828784
11877835193
11877842151
11877849902
11877861743
11877867297
11877876330
11877883105
11877889087
11877895678
11877903918
11877911303
11877916613
11877924731
11877929614
11877940112
11877944812
11877952258
11877960070
11877967761
11877973925
11877978442
11877985400
11877992968
11878000476
11878010729
11878013171
11878023608
11878030261
11878037951
11878045641
11878052111
11878061449
11878066637
11878074999
11878083605
11878089709
11878097948
11878105761
11878118883
11878122973
11878131701
11878138964
11878145495
11878154955
11878162279
11878168810
11878174975
11878182543
11878186449
11878195665
11878201830
11878209032
11878217089
11878224108
11878231554
11878237780
11878244554
11878251696
11878257250
11878261522
11878272203
11878278124
11878284777
11878293321
11878299181
11878306444
11878311998
11878319750
11878327318
11878334642
11878341051
11878347643
11878354295
11878359178
11878365953
11878371324
11878378282
11878383958
11878390123
11878396776
11878402025
11878408922
11878415025
11878421922
11878425340
11878433031
11878439439
11878445543
11878454698
11878459276
11878465867
11878469285
11878477220
11878482469
11878488511
11878494981
11878505174
11878512620
11878518907
11878523423
11878530565
11878537767
11878543748
11878549424
11878556443
11878565293
11878574143
11878579087
11878587327
11878593308
11878598008
11878605882
11878611863
11878616624
11878626512
11878635606
11878645921
11878650987
11878659898
11878666062
11878672471
11878678941
11878684434
11878692002
11878703355
11878709397
11878715378
11878721421
11878731980
11878741257
11878748337
11878752915
11878760605
11878767624
11878774705
11878782151
11878787400
11878794907
11878801499
11878807175
11878813340
11878820359
11878827683
11878835984
11878844406
11878849045
11878858689
11878865341
11878871689
11878879441
11878887070
11878895737
11878899948
11878909470
11878916733
11878921311
11878929306
11878934311
11878940353
11878945664
11878952194
11878956345
11878962448
11878970322
11878979599
11878985397
11878990219
11878996933
11879002670
11879009384
11879013412
11879022995
11879028976
11879035080
11879041366
11879046188
11879053146
11879059799
11879065048
11879070724
11879079025
11879087631
11879093673
11879099838
11879105758
11879110763
11879116623
11879123458
11879130478
11879141647
11879149398
11879154953
11879162582
11879166976
11879173629
11879183090
11879186996
11879194686
11879199569
11879209884
11879216903
11879224655
11879231796
11879238204
11879246139
11879253219
11879261459
11879266464
11879278426
11879282882
11879293380
11879300765
11879307784
11879314986
11879321212
11879329574
11879334701
11879343734
11879351058
11879359725
11879367782
11879373885
11879381942
11879388595
11879396651
11879401961
11879409407
11879419967
11879424483
11879433272
11879437789
11879445174
11879455245
11879461470
11879469100
11879476424
11879485762
11879490950
11879496077
11879505049
11879509566
11879517561
11879521529
11879530379
11879536726
11879544844
11879553328
11879555586
11879565901
11879569991
11879578780
11879585677
11879591048
11879598982
11879603804
11879614119
11879620833
11879626326
11879633345
11879640425
11879646284
11879653120
11879658491
11879667097
11879676985
11879686018
11879693953
11879700789
11879707136
11879714216
11879721846
11879728132
11879735701
11879740705
11879752119
11879759443
11879767073
11879775129
11879783918
11879788435
11879798811
11879806318
11879812849
11879819807
11879826704
11879832685
11879843549
11879848859
11879854902
11879861066
11879867597
11879877546
11879885236
11879890913
11879898054
11879903059
11879912824
11879919172
11879925764
11879930707
11879939557
11879947980
11879954938
11879963239
11879970441
11879977399
11879984906
11879987043
11879998822
11880004071
11880013349
11880020856
11880028669
11880036664
11880046125
11880053632
11880059735
11880068280
11880073102
11880080670
11880088544
11880097943
11880102765
11880110394
11880115888
11880121869
11880128705
11880135358
11880146283
11880155316
11880157758
11880168134
11880174237
11880179852
11880187299
11880191266
11880200787
11880208295
11880215436
11880223126
11880229718
11880235394
11880241681
11880247784
11880255047
11880262982
11880267865
11880277569
11880286480
11880291058
11880301373
11880307110
11880312542
11880318768
11880324566
11880331097
11880338543
11880349652
11880357342
11880362164
11880369732
11880377056
11880381634
11880388653
11880398724
11880417217
11880425823
11880433880
11880441387
11880446087
11880454327
11880461834
11880468304
11880472881
11880479778
11880487408
11880496746
11880503887
11880513531
11880521099
11880531048
11880538799
11880547405
11880555340
11880564922
11880572368
11880577984
11880585247
11880590740
11880597576
11880604595
11880612529
11880619915
11880625591
11880633892
11880638897
11880649944
11880655010
11880661724
11880669963
11880676433
11880683208
11880690532
11880697246
11880701579
11880707927
11880713359
11880720317
11880728862
11880736308
11880741130
11880749431
11880755718
11880760295
11880766948
11880772990
11880780315
11880790202
11880797282
11880802104
11880809917
11880815959
11880823344
11880827678
11880833659
11880840739
11880850261
11880859416
11880861430
11880872966
11880877299
11880887492
11880894633
11880901286
11880910197
11880918925
11880925639
11880933085
11880944133
11880951274
11880961161
11880969645
11880977580
11880985819
11880993937
11881002421
11881007243
11881018473
11881025675
11881032328
11881041117
11881048930
11881058329
11881063456
11881071268
11881080241
11881089274
11881095194
11881099589
11881110636
11881115519
11881125284
11881131144
11881138590
11881148295
11881153177
11881160929
11881168741
11881176005
11881184916
11881189249
11881198526
11881205729
11881215494
11881224405
11881231058
11881237528
11881244608
11881253336
11881267679
11881273599
11881282144
11881290201
11881298441
11881306070
11881312052
11881320108
11881325968
11881334329
11881339761
11881351663
11881360941
11881370035
11881381021
11881387857
11881396829
11881406595
11881413675
11881421915
11881427591
11881434244
11881443887
11881451883
11881457254
11881464639
11881472452
11881478494
11881482522
11881492227
11881498758
11881505288
11881512918
11881519693
11881527139
11881533853
11881538674
11881547158
11881552896
11881560098
11881566873
11881574746
11881578469
11881586282
11881591958
11881599587
11881606179
11881611611
11881619058
11881625771
11881633584
11881639565
11881645913
11881653481
11881661599
11881669900
11881678323
11881687966
11881693032
11881704995
11881712258
11881717446
11881725075
11881733681
11881739297
11881743691
11881752602
11881760170
11881769570
11881777871
11881784218
11881792702
11881797280
11881806374
11881811989
11881820900
11881827187
11881834450
11881844094
11881852333
11881856850
11881865883
11881870339
11881878395
11881888893
11881895302
11881902138
11881907692
11881920265
11881927651
11881935829
11881941505
11881949501
11881956032
11881962563
11881968788
11881977821
11881985817
11881992836
11881999428
11882006325
11882014442
11882022194
11882028663
11882035499
11882043190
11882051796
11882060096
11882069069
11882075966
11882082435
11882089332
11882096290
11882105018
11882111793
11882120155
11882127418
11882136085
11882143409
11882147560
11882156044
11882164344
11882170570
11882177711
11882184669
11882192176
11882200050
11882208351
11882216651
11882223731
11882231544
11882237098
11882246253
11882253822
11882264075
11882268653
11882279395
11882290015
11882295264
11882302039
11882309302
11882316077
11882323157
11882328162
11882337501
11882344153
11882350074
11882359046
11882365088
11882371314
11882380042
11882384009
11882391394
11882395850
11882407203
11882414222
11882423438
11882429541
11882436377
11882446448
11882453284
11882461402
11882470374
11882478064
11882483435
11882491797
11882499976
11882505713
11882511878
11882519019
11882526099
11882536108
11882544897
11882551978
11882558142
11882564368
11882570959
11882578467
11882584387
11882592688
11882597754
11882608252
11882616064
11882621680
11882630469
11882635046
11882644934
11882651831
11882658362
11882667334
11882676062
11882682837
11882689673
11882697485
11882705481
11882712378
11882718847
11882725622
11882732336
11882740148
11882748205
11882757238
11882761389
11882770056
11882777075
11882784338
11882792150
11882799413
11882806188
11882813085
11882823522
11882830785
11882837316
11882844762
11882851537
11882857519
11882863866
11882870214
11882877904
11882884801
11882893407
11882897619
11882907323
11882913671
11882919530
11882926732
11882934423
11882940343
11882947484
11882956701
11882964208
11882971898
11882979284
11882985265
11882991246
11882997960
11883005223
11883012853
11883020848
11883029576
11883033788
11883042516
11883049230
11883058385
11883063939
11883068578
11883079442
11883088963
11883098668
11883110448
11883117589
11883126439
11883134129
11883140843
11883148595
11883155980
11883162450
11883172093
11883179784
11883186192
11883193272
11883199742
11883206151
11883214757
11883219945
11883230015
11883236302
11883244237
11883249547
11883257237
11883265355
11883273167
11883279088
11883286045
11883293126
11883300511
11883308506
11883313938
11883321324
11883327793
11883335301
11883341099
11883345555
11883352879
11883360813
11883368870
11883373020
11883381016
11883386875
11883394383
11883401402
11883408115
11883414585
11883421726
11883432224
11883438816
11883443455
11883451694
11883459690
11883465855
11883472568
11883478977
11883486362
11883494114
11883502048
11883505833
11883515903
11883523105
11883528049
11883535312
11883543003
11883548801
11883553501
11883565586
11883572300
11883579746
11883587436
11883592441
11883600986
11883608249
11883613376
11883624118
11883630649
11883641086
11883645359
11883653537
11883657749
11883667392
11883674106
11883681735
11883687290
11883695346
11883703952
11883708347
11883718784
11883725314
11883731845
11883739047
11883746494
11883752292
11883757358
11883766147
11883776584
11883782443
11883789828
11883795566
11883803683
11883810458
11883817233
11883825534
11883832370
11883839877
11883846469
11883853793
11883861728
11883868625
11883877536
11883882480
11883889438
11883899997
11883907077
11883915499
11883922946
11883930758
11883940280
11883948764
11883957492
11883964694
11883972323
11883981661
11883988741
11883998995
11884005526
11884013033
11884020113
11884026644
11884033480
11884040743
11884048556
11884054415
11884059847
11884065646
11884071505
11884077120
11884082857
11884086764
11884094637
11884099520
11884105929
11884110934
11884116427
11884121371
11884127413
11884130648
11884139925
11884143404
11884149874
11884154024
11884159212
11884165377
11884170443
11884175386
11884182650
11884189425
11884194429
11884199800
11884204866
11884211153
11884217379
11884221651
11884228670
11884234774
11884240145
11884246248
11884249666
11884256441
11884261812
11884268404
11884273836
11884281343
11884286897
11884290987
11884298250
11884303499
11884307955
11884312471
11884319002
11884324190
11884331575
11884336946
11884343599
11884348299
11884353548
11884358675
11884363863
11884369783
11884376314
11884382661
11884386384
11884393709
11884398591
11884406160
11884410249
11884415010
11884422517
11884429536
11884435212
11884441194
11884445649
11884450532
11884457063
11884461946
11884467256
11884473603
11884479097
11884485566
11884490449
11884497529
11884502595
11884510163
11884516084
11884523469
11884530244
11884537751
11884544404
11884548860
11884557099
11884561555
11884572785
11884581147
11884590424
11884599580
11884609651
11884617097
11884624421
11884631318
11884638886
11884645112
11884656281
11884664582
11884672333
11884679169
11884685029
11884692841
11884698029
11884706330
11884714509
11884722199
11884727326
11884735200
11884738862
11884748932
11884755951
11884761322
11884768097
11884776703
11884781708
11884790558
11884798371
11884802704
11884811554
11884817536
11884823883
11884831269
11884837921
11884844025
11884852082
11884861481
11884868683
11884873322
11884882233
11884886871
11884896149
11884902863
11884911224
11884919342
11884926117
11884935638
11884940277
11884948151
11884955963
11884963287
11884970001
11884976593
11884984222
11884992706
11885002167
11885007965
11885017303
11885027008
11885042511
11885049957
11885057403
11885065582
11885074371
11885083160
11885091644
11885099945
11885106659
11885114044
11885122406
11885131317
11885133880
11885146270
11885154632
11885162139
11885171111
11885179046
11885185516
11885192474
11885199188
11885207061
11885215545
11885224029
11885229156
11885236053
11885246123
11885250518
11885259551
11885264068
11885274932
11885281585
11885286712
11885295501
11885305266
11885311614
11885317779
11885324431
11885331572
11885339873
11885347320
11885354155
11885360015
11885366912
11885374480
11885379790
11885386626
11885394561
11885398894
11885407256
11885414763
11885420378
11885428252
11885433013
11885442412
11885449736
11885457183
11885466521
11885475188
11885483794
11885492217
11885498503
11885505827
11885516448
11885522917
11885529753
11885536772
11885544157
11885550932
11885556547
11885564177
11885570891
11885579314
11885586149
11885594633
11885601530
11885606230
11885614104
11885620756
11885628325
11885632780
11885644194
11885651030
11885658049
11885665129
11885670012
11885677641
11885683928
11885691496
11885698027
11885707670
11885713957
11885720182
11885726957
11885733671
11885741178
11885747953
11885753568
11885760038
11885769682
11885777616
11885782499
11885790678
11885798246
11885803251
11885813871
11885818937
11885827238
11885834623
11885843229
11885851286
11885856657
11885864164
11885871915
11885883024
11885891019
11885898893
11885907804
11885914029
11885922819
11885929044
11885935880
11885943448
11885951261
11885953580
11885962613
11885970792
11885979642
11885988370
11885995450
11886001920
11886008573
11886014432
11886023587
11886032132
11886039090
11886046353
11886054105
11886063077
11886069791
11886078458
11886086209
11886092618
11886099454
11886107510
11886115384
11886123319
11886129971
11886137784
11886145291
11886153287
11886159268
11886168118
11886172879
11886183255
11886192959
11886218960
11886226834
11886235806
11886241543
11886248257
11886253506
11886258267
11886266446
11886274136
11886285550
11886293972
11886300320
11886309231
11886314053
11886324307
11886331082
11886336514
11886345303
11886350552
11886364224
11886372402
11886383206
11886388882
11886399075
11886404812
11886412624
11886420681
11886425503
11886436611
11886442654
11886448635
11886455349
11886461758
11886469509
11886474087
11886484279
11886489040
11886497890
11886505276
11886511379
11886518398
11886527614
11886533901
11886540859
11886548244
11886554470
11886565334
11886571499
11886577480
11886584316
11886590602
11886596035
11886601833
11886608425
11886615505
11886623195
11886630214
11886635402
11886642848
11886649623
11886654079
11886663051
11886669765
11886674648
11886683681
11886691798
11886699306
11886705531
11886711757
11886722011
11886729213
11886736354
11886744655
11886754787
11886762111
11886769923
11886776149
11886782252
11886788722
11886795802
11886797816
11886809230
11886816127
11886824061
11886830958
11886839076
11886843470
11886852260
11886858241
11886865138
11886871241
11886880824
11886886378
11886894496
11886902125
11886909571
11886915858
11886924098
11886930689
11886936793
11886945033
11886959376
11886966334
11886973902
11886981226
11886988917
11886995387
11887002345
11887009180
11887020289
11887028651
11887037806
11887044459
11887050745
11887057581
11887065699
11887073450
11887079310
11887087916
11887093104
11887104212
11887111475
11887116358
11887125147
11887132715
11887139185
11887146326
11887152674
11887161829
11887170191
11887177027
11887184107
11887189905
11887199915
11887208094
11887215906
11887218592
11887230799
11887238611
11887246973
11887255335
11887264490
11887270654
11887277612
11887284387
11887290430
11887298059
11887305811
11887313501
11887318018
11887328027
11887333643
11887342065
11887347864
11887355310
11887363794
11887374048
11887382165
11887384180
11887394006
11887401880
11887410486
11887417505
11887424096
11887430871
11887437402
11887443811
11887451135
11887461206
11887467981
11887475793
11887483178
11887492089
11887499658
11887507043
11887516259
11887524987
11887531762
11887538293
11887546655
11887554040
11887563012
11887570458
11887576379
11887583398
11887590173
11887599938
11887605798
11887612939
11887618676
11887624291
11887631066
11887641015
11887647423
11887653527
11887660790
11887667687
11887675316
11887680138
11887689904
11887696007
11887706261
11887713463
11887719567
11887727196
11887734581
11887740685
11887745263
11887755333
11887762902
11887770592
11887778038
11887784447
11887791405
11887798180
11887805931
11887812401
11887820519
11887826500
11887837364
11887843895
11887850487
11887859276
11887866112
11887873924
11887879967
11887887291
11887894432
11887903770
11887910728
11887917015
11887924828
11887930626
11887937157
11887944542
11887949913
11887958580
11887968712
11887976219
11887981834
11887989891
11887995628
11888004844
11888009117
11888017296
11888022545
11888034446
11888043052
11888049949
11888060753
11888068626
11888076866
11888083763
11888089866
11888096824
11888107200
11888113609
11888119041
11888127647
11888134422
11888141380
11888148033
11888153770
11888160728
11888168418
11888175926
11888181358
11888190574
11888194663
11888202903
11888211570
11888218345
11888225120
11888231284
11888240928
11888244895
11888252586
11888259544
11888265220
11888270957
11888278281
11888285239
11888292869
11888299949
11888306907
11888314719
11888320701
11888326682
11888332786
11888339316
11888346274
11888352683
11888360801
11888365073
11888372763
11888381308
11888388938
11888396445
11888404685
11888410788
11888419272
11888428244
11888435324
11888441855
11888449118
11888456748
11888462546
11888468894
11888475607
11888483176
11888490317
11888498862
11888505087
11888512717
11888517477
11888523825
11888533347
11888538718
11888547018
11888552206
11888562155
11888568930
11888575949
11888583212
11888590292
11888596152
11888602621
11888610861
11888617575
11888625143
11888632834
11888639608
11888645651
11888652182
11888660849
11888667501
11888672628
11888680624
11888685507
11888696249
11888703085
11888709921
11888718344
11888725729
11888735678
11888747457
11888753622
11888763387
11888771810
11888778829
11888786337
11888795492
11888803609
11888812399
11888819906
11888829549
11888834676
11888843404
11888852010
11888857259
11888867269
11888871847
11888884786
11888891988
11888900594
11888906576
11888917013
11888926534
11888932454
11888943258
11888951986
11888957662
11888966817
11888971517
11888979818
11888987264
11888998494
11889004476
11889010457
11889017720
11889023580
11889031270
11889039815
11889046041
11889051656
11889058248
11889066182
11889071370
11889076985
11889083760
11889089009
11889093892
11889099141
11889105183
11889112141
11889116658
11889122090
11889126973
11889132283
11889137105
11889142476
11889146931
11889154072
11889158650
11889164754
11889168904
11889175618
11889179829
11889184651
11889191060
11889196614
11889201924
11889207905
11889212971
11889217000
11889223958
11889228047
11889234028
11889240864
11889247029
11889250630
11889258076
11889263020
11889269246
11889276204
11889280415
11889285969
11889292256
11889298237
11889303486
11889309284
11889315693
11889322102
11889328266
11889332722
11889340168
11889346394
11889352436
11889358662
11889364460
11889370625
11889373737
11889381245
11889388447
11889394367
11889400532
11889406513
11889409870
11889417438
11889422871
11889428425
11889433552
11889438984
11889446552
11889450764
11889457172
11889461323
11889467792
11889473408
11889476765
11889486103
11889491596
11889497333
11889502949
11889507648
11889514118
11889521564
11889526203
11889539142
11889545673
11889553669
11889562275
11889569660
11889579425
11889584613
11889593158
11889601520
11889612445
11889620380
11889626361
11889632648
11889638385
11889644489
11889651447
11889660053
11889667255
11889674152
11889682575
11889689655
11889697833
11889703632
11889711627
11889719928
11889730426
11889737750
11889744342
11889749530
11889756671
11889764361
11889772357
11889779071
11889787738
11889794269
11889800860
11889809344
11889814837
11889822528
11889828509
11889835223
11889843219
11889851092
11889857440
11889866046
11889870990
11889882525
11889890460
11889898638
11889904315
11889911761
11889920367
11889927264
11889934466
11889942278
11889950579
11889959918
11889964495
11889974688
11889981707
11889986712
11889995440
11890009661
11890016497
11890023638
11890029986
11890038042
11890043841
11890052202
11890056292
11890066851
11890073076
11890079485
11890086809
11890096087
11890104693
11890109453
11890115801
11890125017
11890130632
11890138262
11890143999
11890152483
11890161516
11890170183
11890176775
11890183489
11890190813
11890196245
11890204607
11890211077
11890218096
11890225359
11890233476
11890241838
11890246172
11890253679
11890263506
11890269792
11890277971
11890283769
11890291948
11890296770
11890307024
11890314287
11890321611
11890327348
11890335710
11890341264
11890349321
11890357988
11890365861
11890372026
11890381120
11890388811
11890396623
11890402788
11890411149
11890422380
11890427690
11890435014
11890444963
11890453569
11890464921
11890471635
11890475602
11890484269
11890488908
11890494218
11890499223
11890505937
11890513383
11890516984
11890523698
11890529191
11890535295
11890540299
11890546159
11890552567
11890557328
11890564408
11890568559
11890573747
11890579423
11890584550
11890589310
11890594926
11890601334
11890607316
11890611527
11890616715
11890622880
11890628190
11890633195
11890639298
11890644181
11890650040
11890654679
11890658951
11890665116
11890670670
11890675614
11890681290
11890686539
11890691117
11890697953
11890703080
11890707963
11890712418
11890717911
11890723649
11890729264
11890735306
11890739335
11890746170
11890750016
11890756974
11890763016
11890767777
11890773514
11890780960
11890785416
11890790909
11890796402
11890802933
11890809281
11890813736
11890819290
11890826859
11890830216
11890837052
11890842056
11890848404
11890853775
11890858902
11890864945
11890873306
11890879532
11890885574
11890890518
11890895218
11890901810
11890907364
11890912613
11890917374
11890924271
11890929031
11890935257
11890939834
11890946243
11890950149
11890956680
11890965042
11890971268
11890977066
11890979690
11890985367
11890990433
11890997940
11891007339
11891016067
11891022537
11891031997
11891035171
11891042862
11891048843
11891055801
11891063186
11891068496
11891072891
11891079605
11891084365
11891089614
11891094253
11891099929
11891107009
11891112747
11891118545
11891123977
11891130935
11891135269
11891139358
11891145828
11891150466
11891157119
11891162063
11891167373
11891172561
11891179519
11891183913
11891190444
11891195022
11891202468
11891206985
11891213210
11891217666
11891224380
11891228774
11891234878
11891239333
11891244155
11891250808
11891255141
11891261550
11891265883
11891273147
11891278518
11891284011
11891290725
11891296645
11891301223
11891307265
11891312819
11891318496
11891323195
11891328994
11891334365
11891341872
11891348891
11891353591
11891360244
11891366530
11891371413
11891377028
11891382521
11891388625
11891396315
11891401686
11891407302
11891413527
11891418654
11891424452
11891429762
11891437880
11891445265
11891450514
11891455458
11891460585
11891467299
11891471877
11891476576
11891483839
11891489272
11891495985
11891500136
11891505629
11891512099
11891516371
11891521559
11891529433
11891534804
11891540236
11891546583
11891553786
11891560316
11891567641
11891575026
11891581190
11891591139
11891598097
11891604078
11891612196
11891622267
11891630262
11891635756
11891645277
11891653395
11891663465
11891673048
11891682753
11891688490
11891700086
11891706129
11891713026
11891719618
11891725355
11891733106
11891739271
11891747389
11891751722
11891762525
11891769117
11891776258
11891783460
11891791822
11891799451
11891807447
11891815565
11891819837
11891827833
11891834669
11891839857
11891848157
11891856153
11891863965
11891868848
11891877820
11891884107
11891891309
11891897107
11891906202
11891912793
11891920118
11891927198
11891935071
11891942517
11891950696
11891955396
11891964673
11891971570
11891977796
11891986158
11891991773
11892003552
11892008130
11892016614
11892025403
11892031507
11892039563
11892044080
11892053052
11892059949
11892066785
11892074719
11892080945
11892089185
11892096265
11892101636
11892108899
11892114880
11892122876
11892129834
11892138013
11892142956
11892152966
11892159436
11892165600
11892173596
11892177929
11892184948
11892193127
11892201489
11892209851
11892215954
11892222119
11892228894
11892235302
11892243481
11892249768
11892258435
11892263867
11892275280
11892282788
11892287976
11892297009
11892301464
11892311657
11892318554
11892325573
11892333386
11892339550
11892348217
11892356091
11892362194
11892371105
11892377636
11892386608
11892391308
11892401745
11892409252
11892418529
11892424938
11892433117
11892439831
11892446667
11892455273
11892461254
11892469188
11892475475
11892484203
11892492809
11892502575
11892514537
11892521129
11892532299
11892543773
11892555004
11892567577
11892580028
11892591381
11892600536
11892613780
11892624645
11892632579
11892644115
11892652782
11892666087
11892678233
11892687816
11892697398
11892710277
11892721934
11892731273
11892741466
11892751292
11892761851
11892773143
11892786632
11892794749
11892802012
11892818309
11892828563
11892837352
11892849925
11892856578
11892867442
11892882579
11892893748
11892901866
11892912791
11892920786
11892932627
11892943553
11892955271
11892965037
11892977671
11892984507
11892996653
11893007639
11893017039
11893026194
11893035837
11893045786
11893056895
11893065561
11893077341
11893087900
11893099070
11893107859
11893117075
11893127329
11893136789
11893148630
11893155466
11893169931
11893180368
11893192514
11893200632
11893207163
11893223581
11893233347
11893242868
11893254770
11893263986
11893272043
11893283762
11893297861
11893306222
11893320444
11893331735
11893342111
11893353097
11893364938
11893372751
11893386117
11893393747
11893401986
11893411874
11893424447
11893434213
11893443612
11893453500
11893462899
11893473031
11893483529
11893494699
11893503304
11893514291
11893522164
11893534005
11893544381
11893550546
11893563729
11893575631
11893584908
11893595467
11893603646
11893612801
11893620797
11893630929
11893639962
11893648934
11893660714
11893674080
11893684639
11893695138
11893704415
11893718697
11893729622
11893739876
11893749947
11893757881
11893767220
11893775521
11893784493
11893792855
11893801033
11893811043
11893818245
11893827522
11893836189
11893845039
11893853829
11893861641
11893870003
11893876717
11893883308
11893894051
11893903572
11893909676
11893917000
11893923103
11893931526
11893938240
11893947517
11893955879
11893962471
11893970283
11893976082
11893985603
11893994148
11894003608
11894010505
11894018928
11894024910
11894034126
11894041145
11894050666
11894057258
11894064949
11894073005
11894080207
11894088752
11894097663
11894104988
11894114509
11894120246
11894128486
11894135322
11894142890
11894151374
11894159492
11894166023
11894172675
11894176887
11894181464
11894187507
11894192817
11894197395
11894204291
11894210883
11894215888
11894219977
11894226142
11894230964
11894236823
11894244025
11894249763
11894255744
11894263434
11894267524
11894273444
11894279914
11894287299
11894291755
11894300910
11894309882
11894314887
11894321418
11894324408
11894335212
11894341315
11894347358
11894352545
11894358832
11894363654
11894369879
11894376288
11894382758
11894387030
11894392890
11894397345
