11908730438
11908736542
11908741608
11908746674
11908753143
11908758331
11908765167
11908770660
11908776032
11908781525
11908786835
11908792938
11908799408
11908804352
11908809357
11908814423
11908821319
11908825653
11908831390
11908838104
11908843597
11908851471
11908856964
11908863312
11908867828
11908874847
11908883026
11908889618
11908895721
11908904510
11908911163
11908917938
11908924774
11908930389
11908939178
11908945892
11908952972
11908961395
11908967559
11908975494
11908980438
11908988616
11908994049
11909001312
11909008880
11909016570
11909023040
11909028961
11909035552
11909041473
11909048065
11909053497
11909060027
11909066741
11909072662
11909078948
11909085357
11909090789
11909094634
11909100372
11909105071
11909110870
11909118682
11909123748
11909130218
11909135833
11909142058
11909148528
11909152923
11909161407
11909166594
11909173552
11909179534
11909184478
11909189910
11909196319
11909202056
11909208648
11909213225
11909219695
11909224639
11909231108
11909236846
11909243315
11909251555
11909256377
11909263457
11909268035
11909276091
11909280669
11909287749
11909292449
11909301848
11909307280
11909313140
11909318816
11909325713
11909330412
11909337554
11909343596
11909350615
11909356841
11909362578
11909366606
11909373076
11909378508
11909384917
11909389677
11909398344
11909404082
11909409148
11909414580
11909420805
11909426237
11909430510
11909438750
11909443571
11909450468
11909455046
11909461943
11909468290
11909473295
11909480009
11909486479
11909490812
11909497465
11909502226
11909508574
11909515165
11909520903
11909526762
11909532866
11909539030
11909543302
11909549833
11909555998
11909561491
11909565824
11909574552
11909580778
11909587187
11909590788
11909599272
11909604521
11909610197
11909615141
11909622648
11909627775
11909634672
11909639494
11909646574
11909653532
11909659330
11909665556
11909673490
11909681486
11909687833
11909694059
11909700590
11909706449
11909712369
11909721097
11909726163
11909732633
11909739957
11909745389
11909751981
11909757535
11909763517
11909771634
11909778348
11909784696
11909790067
11909795743
11909803067
11909808622
11909813260
11909822721
11909829496
11909835782
11909842191
11909849515
11909856473
11909864469
11909872647
11909881009
11909888700
11909894315
11909903043
11909907681
11909916470
11909924344
11909930448
11909936917
11909945828
11909951993
11909960782
11909968350
11909975003
11909980801
11909988065
11909994778
11910004483
11910010709
11910017789
11910024014
11910031277
11910040494
11910051114
11910058072
11910066250
11910072720
11910081265
11910087185
11910095242
11910103360
11910110257
11910115200
11910123318
11910129910
11910137844
11910143093
11910150662
11910157254
11910163418
11910170803
11910177639
11910184170
11910192044
11910198940
11910204495
11910207913
11910214443
11910218289
11910226711
11910231350
11910235928
11910242031
11910246731
11910251919
11910257046
11910262722
11910268642
11910274319
11910279446
11910286282
11910295803
11910302456
11910312099
11910319485
11910325100
11910331753
11910335659
11910341213
11910346340
11910350185
11910356533
11910361477
11910367763
11910372768
11910376980
11910381557
11910386074
11910391140
11910396145
11910401943
11910407619
11910412746
11910416957
11910422756
11910427578
11910432033
11910436977
11910441371
11910446987
11910452724
11910457973
11910463344
11910467006
11910472743
11910480373
11910484889
11910490261
11910497341
11910503444
11910508632
11910515041
11910519862
11910526088
11910532008
11910537502
11910541896
11910547328
11910550746
11910555324
11910560878
11910565822
11910571742
11910575648
11910581447
11910585536
11910590114
11910595302
11910599574
11910606166
11910611476
11910616664
11910621242
11910626735
11910631129
11910636073
11910640407
11910645411
11910651759
11910656215
11910660731
11910665919
11910670497
11910675136
11910680018
11910684779
11910690394
11910696620
11910702113
11910707911
11910711818
11910715358
11910721888
11910726100
11910732997
11910737147
11910742518
11910748866
11910754054
11910758998
11910763209
11910769740
11910773036
11910781642
11910787501
11910792506
11910797206
11910802638
11910808131
11910811915
11910817652
11910823817
11910830164
11910835474
11910840662
11910845973
11910849940
11910855494
11910859705
11910865565
11910872340
11910878687
11910883326
11910889674
11910893336
11910897730
11910903712
11910909571
11910915247
11910921107
11910928004
11910933436
11910938563
11910943140
11910948267
11910954859
11910959986
11910966089
11910970911
11910975123
11910980738
11910986414
11910991541
11910994593
11911002588
11911008875
11911012720
11911017298
11911024561
11911028528
11911033899
11911040735
11911046350
11911052210
11911061121
11911066187
11911072168
11911076929
11911082544
11911087976
11911093958
11911098535
11911104944
11911110742
11911116052
11911120569
11911126734
11911130823
11911137170
11911142175
11911148157
11911152368
11911159509
11911164087
11911170740
11911175134
11911181482
11911186365
11911192468
11911197351
11911203332
11911207849
11911213708
11911219202
11911223840
11911228906
11911233606
11911239953
11911244897
11911249109
11911255639
11911259912
11911266687
11911272363
11911277795
11911282556
11911288110
11911292199
11911297754
11911303247
11911309045
11911314172
11911319543
11911324670
11911330712
11911335229
11911340966
11911346032
11911350854
11911356958
11911361962
11911367333
11911372460
11911378198
11911382409
11911388513
11911392541
11911400903
11911405358
11911411035
11911415307
11911420007
11911426049
11911431725
11911435998
11911441796
11911448937
11911453759
11911459801
11911463525
11911469994
11911473840
11911479272
11911485558
11911492455
11911496972
11911502648
11911508874
11911513940
11911518517
11911523949
11911528100
11911534814
11911540978
11911545128
11911551537
11911557274
11911561303
11911565697
11911571801
11911576622
11911585534
11911592919
11911598717
11911605431
11911612023
11911618492
11911624779
11911629784
11911634850
11911644799
11911650658
11911656761
11911662499
11911666954
11911672081
11911678185
11911682823
11911687401
11911692040
11911698387
11911703270
11911706017
11911713829
11911719444
11911724327
11911729698
11911734581
11911739098
11911744041
11911749474
11911755211
11911760582
11911765770
11911771507
11911776634
11911780846
11911786095
11911790245
11911797874
11911802208
11911807457
11911812034
11911819176
11911824119
11911831505
11911838463
11911843834
11911848350
11911853172
11911858238
11911863487
11911868431
11911873802
11911879905
11911888450
11911896202
11911901390
11911906517
11911912803
11911918296
11911923240
11911927696
11911933494
11911938316
11911943504
11911947837
11911954185
11911958457
11911964622
11911969017
11911977745
11911981407
11911987632
11911991722
11911997276
11912002952
11912006248
11912012534
11912017051
11912023765
11912029807
11912033836
11912038474
11912044517
11912050254
11912055076
11912059715
11912065818
11912070396
11912077354
11912080466
11912087485
11912091758
11912097495
11912101523
11912109275
11912113669
11912120383
11912125083
11912131492
11912136619
11912141807
11912147605
11912152122
11912160178
11912166465
11912172324
11912179648
11912183677
11912189048
11912195884
11912203757
11912207846
11912213889
11912217978
11912224814
11912229697
11912234702
11912240256
11912245627
11912250510
11912255393
11912258078
11912265280
11912267966
11912274375
11912278098
11912286643
11912291220
11912296286
11912300314
11912306174
11912309958
11912315756
11912319907
11912326254
11912332724
11912336935
11912343100
11912346945
11912353171
11912357504
11912362509
11912368613
11912375021
11912380453
11912385702
11912391745
11912397177
11912401449
11912406821
11912410910
11912417563
11912423483
11912429220
11912433737
11912439902
11912443686
11912448446
11912454672
11912459738
11912466330
11912470663
11912477377
11912482138
11912488302
11912493307
11912498678
11912502646
11912510946
11912515036
11912520529
11912526632
11912532186
11912536764
11912542135
11912546347
11912552633
11912556784
11912563192
11912567526
11912572286
11912578329
11912583151
11912588156
11912593038
11912598165
11912603597
11912610983
11912615255
11912621298
11912625326
11912631063
11912635091
11912641317
11912647726
11912652364
11912658041
11912663778
11912670003
11912675741
11912681417
11912692586
11912702840
11912709615
11912717061
11912725789
11912733724
11912741292
11912751302
11912760518
11912766927
11912775350
11912790364
11912800740
11912807637
11912817525
11912825399
11912833821
11912842305
11912848287
11912854817
11912861898
11912870931
11912877767
11912885274
11912890950
11912905354
11912912496
11912918782
11912925496
11912936055
11912941670
11912949422
11912958211
11912964070
11912968343
11912980366
11912988667
11912993916
11913001912
11913008076
11913016743
11913021260
11913030659
11913037373
11913045430
11913054524
11913061604
11913067891
11913074971
11913080708
11913088704
11913093159
11913103718
11913111653
11913118489
11913126728
11913135212
11913143025
11913147480
11913156758
11913163594
11913170613
11913176350
11913183308
11913194660
11913202229
11913207111
11913217671
11913223652
11913232868
11913238239
11913249775
11913254963
11913267170
11913274494
11913281086
11913286945
11913295063
11913301899
11913308552
11913315571
11913323566
11913327961
11913338520
11913346149
11913354328
11913362751
11913369587
11913375690
11913382282
11913390094
11913395465
11913403827
11913412372
11913420063
11913426593
11913434345
11913439838
11913448261
11913456623
11913462787
11913469623
11913475665
11913485126
11913493244
11913499347
11913505878
11913513446
11913521259
11913527850
11913534076
11913541095
11913546893
11913557574
11913564227
11913572894
11913577289
11913585162
11913593585
11913599811
11913609515
11913617389
11913624652
11913634356
11913640460
11913650348
11913657977
11913663775
11913672320
11913678363
11913687457
11913695025
11913704791
11913710711
11913716815
11913725543
11913733966
11913744342
11913753009
11913759478
11913767352
11913774737
11913777178
11913789446
11913795306
11913801165
11913807696
11913815447
11913822955
11913829852
11913839434
11913844195
11913854144
11913860857
11913865496
11913874102
11913878374
11913889056
11913895647
11913900225
11913912981
11913915667
11913926897
11913933611
11913942095
11913948137
11913955401
11913962053
11913968462
11913976397
11913986162
11913988543
11914000933
11914005754
11914014543
11914022539
11914030413
11914036150
11914043230
11914050249
11914063005
11914067949
11914076555
11914081499
11914091875
11914098833
11914105486
11914110979
11914119707
11914125444
11914136247
11914142717
11914150591
11914157610
11914163835
11914170244
11914176225
11914185503
11914193315
11914201189
11914210161
11914217424
11914224748
11914230852
11914238298
11914244951
11914252214
11914258439
11914267045
11914271684
11914280839
11914287431
11914293596
11914302079
11914306413
11914315995
11914322648
11914329484
11914337358
11914339799
11914350724
11914355180
11914364579
11914371110
11914378190
11914385697
11914389970
11914397355
11914404374
11914413224
11914420609
11914428788
11914437760
11914440446
11914452775
11914457841
11914469926
11914474992
11914484452
11914494034
11914502946
11914510331
11914518143
11914524979
11914537369
11914542496
11914555985
11914562943
11914570939
11914580826
11914588272
11914594376
11914602616
11914608841
11914613114
11914624222
11914630875
11914636368
11914642716
11914649307
11914656449
11914661759
11914669571
11914673966
11914682816
11914693375
11914699661
11914707657
11914716324
11914722488
11914729446
11914738846
11914746475
11914754471
11914763565
11914769852
11914777786
11914782974
11914792984
11914799087
11914806351
11914814346
11914820389
11914830520
11914838577
11914845108
11914851761
11914858719
11914866714
11914873489
11914880020
11914886978
11914895218
11914903884
11914911941
11914919570
11914925369
11914934280
11914940872
11914946670
11914954544
11914961685
11914971145
11914975540
11914982375
11914991775
11914998123
11915005813
11915010085
11915018569
11915025039
11915033218
11915040847
11915046828
11915054946
11915059707
11915067763
11915075454
11915083144
11915088332
11915094985
11915103774
11915110671
11915117873
11915125930
11915134780
11915143020
11915151015
11915160048
11915164809
11915174819
11915182753
11915190383
11915198622
11915205764
11915212966
11915220900
11915228163
11915235854
11915238173
11915250929
11915257765
11915264968
11915272719
11915279433
11915285597
11915292311
11915298537
11915306166
11915314528
11915324110
11915333022
11915338210
11915346144
11915348341
11915360365
11915365126
11915376967
11915384901
11915391066
11915401137
11915411574
11915419325
11915427076
11915435927
11915443922
11915450026
11915460035
11915464613
11915477308
11915481520
11915487501
11915495985
11915503126
11915509962
11915516493
11915522474
11915527967
11915536146
11915542005
11915549269
11915555982
11915561537
11915568922
11915572706
11915581922
11915587965
11915595106
11915601759
11915604078
11915613844
11915619581
11915625074
11915631727
11915639112
11915646009
11915651868
11915661085
11915667615
11915681592
11915690320
11915698926
11915710096
11915716627
11915725294
11915734449
11915741834
11915747388
11915752454
11915757947
11915762830
11915767530
11915772413
11915777539
11915783887
11915788282
11915792493
11915797132
11915801038
11915806958
11915811170
11915815747
11915820691
11915825635
11915831067
11915836133
11915842114
11915846997
11915852246
11915858960
11915864087
11915868482
11915873425
11915878491
11915885266
11915889905
11915894299
11915901074
11915905957
11915910230
11915915112
11915919080
11915924085
11915928174
11915930615
11915940625
11915945142
11915950024
11915955212
11915958874
11915963269
11915968457
11915973340
11915977368
11915984814
11915987378
11915993786
11915997571
11916003003
11916008069
11916014294
11916020764
11916024487
11916032361
11916036633
11916043957
11916047863
11916054455
11916061291
11916068737
11916076184
11916082287
11916086682
11916091198
11916094799
11916099987
11916105053
11916108410
11916113842
11916119458
11916124096
11916128247
11916135632
11916138684
11916144177
11916148205
11916152844
11916158093
11916161999
11916164318
11916171642
11916176891
11916181469
11916185864
11916191784
11916195446
11916202221
11916206005
11916212963
11916217663
11916221996
11916226940
11916231457
11916236889
11916241772
11916246471
11916253185
11916257275
11916262768
11916266857
11916273083
11916275829
11916282055
11916286144
11916292858
11916297863
11916302990
11916308422
11916314159
11916320019
11916323253
11916329296
11916335827
11916339733
11916345714
11916349437
11916354259
11916360912
11916365673
11916370617
11916375011
11916381603
11916387401
11916391857
11916398571
11916402782
11916407604
11916414135
11916418834
11916425609
11916430004
11916436595
11916442028
11916446788
11916452281
11916456676
11916463024
11916467174
11916473522
11916477794
11916482433
11916489024
11916493602
11916499584
11916506664
11916512828
11916518260
11916523753
11916529308
11916535228
11916539317
11916545360
11916552745
11916558238
11916567454
11916572032
11916579478
11916584117
11916591197
11916595775
11916605113
11916609385
11916614573
11916620372
11916626048
11916632029
11916637278
11916642283
11916646617
11916653453
11916659129
11916663462
11916668773
11916673045
11916679087
11916683055
11916688609
11916695933
11916701609
11916706309
11916711070
11916717173
11916721385
11916727488
11916733103
11916738475
11916744639
11916749644
11916754038
11916759654
11916762339
11916770335
11916773020
11916780100
11916786997
11916791392
11916799448
11916803965
11916809580
11916813609
11916820750
11916826304
11916833384
11916838938
11916843516
11916849619
11916854807
11916860300
11916865671
11916871043
11916878550
11916882212
11916889109
11916893992
11916899363
11916906382
11916911020
11916916086
11916921885
11916929758
11916935007
11916940561
11916958078
11916963694
11916968699
11916974741
11916980417
11916986277
11916991770
11916997995
11917002878
11917009653
11917013437
11917018686
11917024240
11917030466
11917035227
11917039621
11917045786
11917051340
11917055307
11917061716
11917067026
11917072885
11917077768
11917082773
11917088022
11917093027
11917098215
11917103708
11917109995
11917116769
11917122079
11917128610
11917135202
11917141122
11917145639
11917154977
11917161142
11917166025
11917169748
11917178171
11917183725
11917188791
11917193124
11917199411
11917204416
11917209848
11917215646
11917220895
11917225168
11917230783
11917234994
11917243722
11917248117
11917255014
11917259286
11917263559
11917269723
11917274911
11917279794
11917286264
11917292123
11917297616
11917302377
11917307565
11917312753
11917315744
11917322702
11917328256
11917335031
11917340402
11917345956
11917350167
11917357003
11917362863
11917368417
11917374276
11917379708
11917384286
11917389596
11917396005
11917400582
11917405099
11917410470
11917417001
11917422128
11917429147
11917433602
11917439034
11917444710
11917450143
11917456063
11917461739
11917464669
11917472176
11917477425
11917483956
11917488717
11917495370
11917499825
11917505379
11917510506
11917516915
11917523140
11917528695
11917534005
11917539559
11917545174
11917549447
11917556160
11917559823
11917568245
11917573922
11917580513
11917585335
11917590584
11917596138
11917601143
11917606270
11917612129
11917618477
11917624214
11917628853
11917635018
11917640816
11917645699
11917649788
11917658455
11917664375
11917669869
11917676460
11917681282
11917685616
11917692024
11917698677
11917708626
11917716621
11917725105
11917733345
11917741341
11917747200
11917755623
11917760322
11917765388
11917774055
11917779549
11917783333
11917788948
11917793281
11917798775
11917802742
11917809089
11917813240
11917821357
11917826484
11917831428
11917835823
11917840889
11917845649
11917852241
11917857673
11917862190
11917867378
11917872688
11917877998
11917882576
11917887092
11917893196
11917898628
11917902351
11917908271
11917913948
11917917549
11917922676
11917927009
11917931465
11917939399
11917943916
11917948738
11917954597
11917958747
11917964607
11917971748
11917976936
11917982429
11917988288
11917992194
11917996467
11918003425
11918006538
11918014411
11918020698
11918027717
11918033088
11918038154
11918042731
11918049873
11918055244
11918061408
11918067634
11918072822
11918075873
11918082892
11918087348
11918093513
11918097724
11918105536
11918111030
11918116645
11918121711
11918127204
11918132270
11918137275
11918140021
11918148322
11918152411
11918158698
11918163031
11918167914
11918172736
11918177619
11918180243
11918188117
11918193610
11918199774
11918203070
11918210700
11918215094
11918219550
11918224921
11918231391
11918239569
11918245978
11918250922
11918257392
11918262274
11918266791
11918272772
11918281134
11918287970
11918297858
11918301886
11918307318
11918310858
11918317877
11918322882
11918327582
11918332159
11918336859
11918341193
11918345099
11918352057
11918356940
11918362677
11918368048
11918374640
11918381048
11918385199
11918391669
11918397406
11918403570
11918409063
11918414068
11918418585
11918423590
11918427618
11918436163
11918440558
11918445562
11918451056
11918456121
11918460211
11918467779
11918471441
11918479681
11918485846
11918490728
11918495550
11918500067
11918505316
11918510931
11918515936
11918521490
11918526556
11918532965
11918537420
11918542425
11918546575
11918551580
11918554693
11918564092
11918569525
11918573858
11918578558
11918585333
11918591009
11918595220
11918599432
11918606451
11918611211
11918619268
11918623235
11918629461
11918633733
11918639043
11918643377
11918648504
11918655218
11918661077
11918665472
11918671697
11918677984
11918681951
11918687932
11918694097
11918698369
11918706304
11918709661
11918716680
11918722478
11918726629
11918730901
11918739080
11918745305
11918750859
11918757573
11918763250
11918769475
11918776738
11918783574
11918793096
11918797185
11918805791
11918811956
11918820317
11918826482
11918833623
11918844670
11918849980
11918859441
11918868535
11918879704
11918887700
11918895757
11918903691
11918911321
11918921025
11918926335
11918935368
11918943913
11918950322
11918959843
11918964909
11918973454
11918981877
11918991582
11918996953
11919001347
11919012639
11919019780
11919027592
11919033574
11919039738
11919047001
11919051030
11919060063
11919066227
11919073613
11919082829
11919088871
11919095829
11919101567
11919111271
11919119572
11919124821
11919132694
11919138920
11919147831
11919152653
11919159489
11919167606
11919173710
11919182255
11919190495
11919195622
11919203556
11919209476
11919223453
11919229191
11919236210
11919242924
11919251041
11919259525
11919267765
11919273929
11919280704
11919289432
11919296818
11919301883
11919309879
11919314579
11919322147
11919332584
11919336490
11919344608
11919351566
11919361515
11919368167
11919373233
11919382511
11919388919
11919396976
11919401554
11919407657
11919416080
11919422916
11919433841
11919438419
11919448612
11919455692
11919463016
11919470706
11919477054
11919483524
11919489627
11919500613
11919507510
11919513858
11919523318
11919530093
11919535709
11919541812
11919547488
11919556888
11919561709
11919571841
11919578555
11919587100
11919591128
11919598453
11919605716
11919612918
11919621158
11919628055
11919634646
11919640750
11919650515
11919656070
11919667178
11919674929
11919683535
11919691836
11919694705
11919707644
11919725649
11919733645
11919743899
11919752505
11919762026
11919766848
11919776186
11919782961
11919791384
11919799075
11919807131
11919813235
11919819826
11919825381
11919832888
11919837282
11919850588
11919859011
11919864382
11919872072
11919878725
11919886843
11919890810
11919897707
11919907107
11919911867
11919921816
11919929628
11919935488
11919943178
11919950441
11919957827
11919965883
11919970827
11919976992
11919983400
11919993837
11920001161
11920006533
11920011232
11920022096
11920026613
11920036562
11920042482
11920050722
11920060243
11920067507
11920073610
11920081422
11920088503
11920096925
11920101564
11920108827
11920116701
11920124635
11920135622
11920144228
11920153932
11920160707
11920166994
11920174928
11920179567
11920190065
11920196596
11920204347
11920213197
11920219972
11920226625
11920233339
11920240724
11920248841
11920255006
11920261476
11920268556
11920277101
11920285279
11920291078
11920299928
11920304872
11920311708
11920319825
11920328431
11920333985
11920341126
11920347230
11920358338
11920365724
11920373475
11920379640
11920386109
11920393006
11920399476
11920408082
11920415650
11920422608
11920429444
11920438660
11920444092
11920452515
11920459168
11920465882
11920472962
11920480713
11920488038
11920499268
11920507569
11920513855
11920520508
11920527100
11920535157
11920539551
11920548218
11920555909
11920563111
11920574585
11920580262
11920588501
11920594727
11920601746
11920609009
11920618347
11920625427
11920634766
11920645935
11920653992
11920663757
11920669556
11920676209
11920683228
11920690186
11920695801
11920703491
11920709717
11920717102
11920724121
11920734131
11920740295
11920749145
11920755615
11920760986
11920769043
11920773926
11920783447
11920789856
11920796814
11920804199
11920810119
11920815979
11920824218
11920830444
11920835571
11920843261
11920850463
11920857910
11920862060
11920869384
11920878295
11920883239
11920891357
11920898803
11920904785
11920911376
11920919006
11920925048
11920929809
11920937438
11920944335
11920949951
11920955627
11920962097
11920973205
11920977966
11920985290
11920989623
11920999755
11921004943
11921010925
11921017577
11921024840
11921034484
11921040954
11921045959
11921053039
11921062011
11921068114
11921075133
11921080626
11921085326
11921098693
11921106078
11921113585
11921121398
11921126952
11921135436
11921142455
11921148925
11921156554
11921162902
11921173522
11921181090
11921185851
11921193175
11921199462
11921207701
11921212340
11921219969
11921229430
11921235716
11921244200
11921251769
11921257872
11921264647
11921273131
11921280028
11921287047
11921293333
11921299620
11921306944
11921317747
11921322447
11921330748
11921335326
11921346312
11921354063
11921361082
11921366331
11921374693
11921381468
11921386107
11921396605
11921403685
11921411314
11921420286
11921425963
11921434752
11921441282
11921447630
11921457151
11921474302
11921481016
11921490599
11921501158
11921507994
11921512815
11921521543
11921528990
11921534544
11921541502
11921550169
11921555967
11921562986
11921569517
11921571409
11921582395
11921589292
11921596067
11921602354
11921609068
11921615903
11921622434
11921629697
11921633848
11921641660
11921650999
11921657407
11921664609
11921670225
11921677427
11921684690
11921690061
11921696103
11921703550
11921713437
11921718992
11921725827
11921733213
11921739011
11921745786
11921751889
11921759885
11921766355
11921777097
11921786435
11921792417
11921799375
11921806882
11921812741
11921821652
11921828183
11921834043
11921841733
11921849606
11921857663
11921864987
11921869199
11921878842
11921885983
11921893430
11921898984
11921907162
11921918393
11921922909
11921929013
11921938473
11921944150
11921951718
11921956418
11921964841
11921973202
11921979428
11921987118
11921992978
11922001400
11922005856
11922013241
11922021664
11922030453
11922036129
11922040707
11922053891
11922061154
11922066159
11922075924
11922083920
11922092037
11922100155
11922108700
11922116757
11922124020
11922131771
11922137509
11922145382
11922152523
11922160763
11922165218
11922173763
11922181515
11922188351
11922198544
11922204281
11922213070
11922219662
11922226437
11922234371
11922238766
11922247799
11922255550
11922260921
11922272457
11922279537
11922288265
11922292660
11922300655
11922308529
11922315487
11922323665
11922332576
11922342708
11922352413
11922367855
11922372005
11922383968
11922390682
11922397396
11922403804
11922410640
11922420040
11922426448
11922432247
11922440975
11922446590
11922453182
11922459834
11922465266
11922471858
11922478328
11922487300
11922494563
11922499263
11922506892
11922512996
11922520930
11922525874
11922533076
11922542110
11922549678
11922554988
11922563655
11922571650
11922577510
11922584651
11922589473
11922598201
11922603022
11922611873
11922616145
11922625117
11922631282
11922636958
11922646174
11922650142
11922657344
11922661250
11922669123
11922678096
11922683650
11922692439
11922698359
11922708125
11922710627
11922721797
11922726679
11922737727
11922745844
11922750910
11922759821
11922764277
11922772639
11922779597
11922785639
11922794428
11922799006
11922809748
11922817499
11922823725
11922835322
11922843683
11922851984
11922860773
11922866938
11922871882
11922881403
11922893183
11922897577
11922906183
11922910761
11922921564
11922928400
11922932673
11922941278
11922945978
11922958307
11922965570
11922972223
11922980585
11922989313
11922998102
11923005792
11923014337
11923019647
11923029535
11923037287
11923045038
11923052667
11923061212
11923068720
11923076044
11923084467
11923092462
11923100580
11923109552
11923118097
11923125238
11923132623
11923140375
11923150201
11923156671
11923163690
11923171441
11923179986
11923188714
11923208856
11923215020
11923222650
11923231317
11923239068
11923246148
11923254571
11923261651
11923268975
11923275872
11923283868
11923289971
11923298211
11923303460
11923309991
11923317986
11923324334
11923329583
11923335076
11923340264
11923344659
11923351312
11923355950
11923362115
11923367669
11923371758
11923377801
11923383050
11923387200
11923393243
11923397515
11923404107
11923410577
11923414117
11923420403
11923424065
11923430535
11923434380
11923441094
11923444878
11923454217
11923458306
11923463616
11923468804
11923474175
11923478692
11923484063
11923488518
11923495415
11923499627
11923507012
11923511956
11923517083
11923522026
11923527153
11923532708
11923537835
11923545769
11923551812
11923556694
11923562615
11923567253
11923571465
11923577080
11923582512
11923588738
11923595207
11923601250
11923607048
11923612847
11923618279
11923622734
11923627617
11923635002
11923641350
11923647270
11923650322
11923657158
11923661797
11923668327
11923672722
11923678520
11923685478
11923691338
11923694450
11923703972
11923709587
11923717216
11923723442
11923730095
11923736687
11923744255
11923749992
11923757438
11923765190
11923771904
11923778923
11923786064
11923798576
11923802971
11923811271
11923819267
11923825370
11923832084
11923838432
11923848869
11923854789
11923864616
11923875785
11923884696
11923892631
11923899406
11923907829
11923912406
11923919547
11923927543
11923936637
11923944694
11923947135
11923957877
11923964591
11923973319
11923979362
11923986198
11923991203
11923997367
11924006644
11924013358
11924022269
11924030326
11924038993
11924048087
11924050651
11924063346
11924068412
11924080741
11924088248
11924096427
11924102836
11924112235
11924118949
11924127555
11924134879
11924140311
11924144828
11924156729
11924164359
11924170218
11924178153
11924185050
11924193411
11924199515
11924210745
11924221793
11924228812
11924241751
11924253287
11924262381
11924271597
11924280325
11924291800
11924301260
11924309439
11924318045
11924328909
11924339712
11924349539
11924357596
11924366385
11924375845
11924385794
11924393484
11924404287
11924413809
11924421194
11924434622
11924443716
11924455740
11924469473
11924481008
11924485037
11924501394
11924508169
11924525137
11924535513
11924546072
11924554556
11924562002
11924575918
11924586294
11924596914
11924608511
11924615163
11924628408
11924637990
11924648549
11924659414
11924669240
11924680898
11924687185
11924699392
11924709951
11924713063
11924731496
11924743032
11924750234
11924761159
11924772817
11924780385
11924792104
11924801076
11924809804
11924822255
11924832753
11924840199
11924851369
11924857228
11924871022
11924880177
11924888051
11924898976
11924904713
11924918446
11924931203
11924938527
11924949757
11924960255
11924971974
11924977711
11924987538
11925000782
11925010121
11925021168
11925030079
11925041493
11925047474
11925061817
11925070423
11925077626
11925088734
11925094532
11925107655
11925116505
11925127918
11925135182
11925145069
11925155994
11925161793
11925172962
11925183033
11925191883
11925204334
11925211903
11925222889
11925231861
11925240223
11925250355
11925257618
11925268543
11925277271
11925286731
11925300647
11925306995
11925318225
11925328601
11925336963
11925345569
11925353809
11925364185
11925369922
11925386280
11925396655
11925403858
11925413928
11925422962
11925433887
11925443713
11925451892
11925460559
11925468616
11925481006
11925489856
11925500903
11925506885
11925516711
11925527698
11925537219
11925548450
11925557116
11925566272
11925580066
11925588733
11925598925
11925606921
11925615100
11925623889
11925634204
11925644458
11925651721
11925664111
11925674853
11925682971
11925691516
11925701281
11925711474
11925720995
11925729235
11925737780
11925747851
11925761706
11925770251
11925780260
11925788561
11925796679
11925805468
11925813769
11925826708
11925833727
11925845446
11925856493
11925864672
11925873461
11925882372
11925892626
11925898546
11925911119
11925918810
11925926805
11925939440
11925947252
11925956835
11925962267
11925975450
11925983568
11925991319
11926000536
11926008043
11926020189
11926028734
11926035753
11926040697
11926045519
11926054369
11926061388
11926069872
11926077318
11926090868
11926099290
11926107347
11926113451
11926121446
11926127244
11926133287
11926141954
11926148485
11926156175
11926162523
11926168931
11926177781
11926182786
11926190355
11926194200
11926203477
11926209459
11926214158
11926222337
11926230577
11926236131
11926242112
11926248094
11926256944
11926262071
11926268846
11926275804
11926284349
11926291368
11926296739
11926302598
11926309434
11926316575
11926322190
11926329575
11926335862
11926340806
11926350144
11926356065
11926362778
11926368638
11926376145
11926382005
11926387192
11926396287
11926400193
11926411484
11926418076
11926424058
11926430771
11926439316
11926447129
11926449387
11926461045
11926467454
11926474839
11926482773
11926490403
11926498093
11926505661
11926511948
11926518601
11926525620
11926533066
11926539292
11926548081
11926552597
11926562607
11926569199
11926576096
11926583969
11926590561
11926596787
11926603134
11926610397
11926619858
11926629074
11926637680
11926641831
11926649765
11926656357
11926662399
11926669601
11926677902
11926686691
11926694015
11926701340
11926705307
11926712448
11926719223
11926724533
11926732101
11926739303
11926748520
11926752853
11926759689
11926768600
11926775741
11926784042
11926793502
11926801315
11926807907
11926815414
11926824142
11926830001
11926839401
11926845382
11926854599
11926861190
11926869735
11926876449
11926882064
11926890853
11926898300
11926907516
11926913558
11926926986
11926933761
11926938216
11926949081
11926953719
11926964339
11926970077
11926979781
11926986312
11926991012
11926998336
11927002608
11927013045
11927016891
11927025985
11927031966
11927038680
11927045272
11927051375
11927058883
11927066268
11927071761
11927077804
11927084578
11927093428
11927100814
11927108870
11927113570
11927121016
11927129378
11927135787
11927144454
11927149275
11927156844
11927167647
11927175154
11927180892
11927184981
11927195662
11927202254
11927210188
11927215926
11927223921
11927234663
11927239363
11927245039
11927254561
11927259200
11927267256
11927275130
11927280989
11927287215
11927296980
11927304854
11927310835
11927321394
11927329634
11927335493
11927343062
11927349165
11927358442
11927363997
11927372419
11927381514
11927388960
11927395063
11927403608
11927410261
11927415754
11927423201
11927430281
11927439436
11927447737
11927453718
11927460615
11927469953
11927478071
11927486616
11927495405
11927503217
11927510786
11927518171
11927524763
11927532819
11927534956
11927546674
11927553449
11927559797
11927568098
11927574628
11927583906
11927588911
11927598676
11927605756
11927613203
11927618696
11927623212
11927634504
11927641157
11927647992
11927656598
11927663251
11927669843
11927676801
11927685895
11927691449
11927695905
11927706769
11927713422
11927719403
11927733991
11927739423
11927747235
11927754560
11927763471
11927771100
11927776349
11927785565
11927793500
11927804364
11927811627
11927820966
11927827680
11927832623
11927841290
11927848126
11927853619
11927859662
11927870160
11927876569
11927882367
11927891888
11927896893
11927904278
11927910748
11927916363
11927922101
11927930035
11927937359
11927943219
11927950726
11927958172
11927963971
11927969952
11927975934
11927983380
11927990765
11928000409
11928004986
11928012799
11928019635
11928027569
11928035260
11928042523
11928049725
11928056134
11928064617
11928072430
11928080670
11928086346
11928093487
11928101483
11928108013
11928113323
11928120648
11928128765
11928135479
11928140179
11928149944
11928156719
11928162518
11928171307
11928175762
11928185589
11928192181
11928199322
11928207317
11928212688
11928222515
11928229168
11928234234
11928241863
11928247661
11928255840
11928262554
11928271160
11928277874
11928286052
11928292644
11928299968
11928318828
11928326152
11928337139
11928345012
11928351787
11928358928
11928365581
11928374431
11928379070
11928389446
11928397197
11928404277
11928413005
11928420879
11928427409
11928434306
11928441447
11928449199
11928456401
11928462993
11928469646
11928477397
11928487346
11928496745
11928502360
11928509929
11928515422
11928523112
11928531962
11928538066
11928546855
11928555278
11928562480
11928570781
11928577189
11928585246
11928592082
11928599833
11928607890
11928615824
11928623027
11928634074
11928638957
11928648722
11928656657
11928667582
11928678141
11928685099
11928696757
11928707194
11928715434
11928721598
11928727946
11928737284
11928743998
11928749186
11928757304
11928763285
11928770121
11928777994
11928784952
11928790324
11928799479
11928805887
11928813822
11928820353
11928828959
11928833597
11928842020
11928852884
11928858927
11928866983
11928871866
11928881754
11928888651
11928895975
11928901590
11928906107
11928915018
11928925394
11928932413
11928939981
11928947611
11928957376
11928966532
11928976114
11928981973
11928991739
11928999979
11929007730
11929015360
11929023172
11929030374
11929038492
11929046121
11929052042
11929056375
11929065164
11929075723
11929083475
11929091165
11929096658
11929105752
11929112405
11929120279
11929126443
11929135049
11929143777
11929148660
11929159585
11929166299
11929172158
11929181741
11929186136
11929193399
11929201638
11929210488
11929220559
11929226663
11929235269
11929243203
11929249673
11929256692
11929262551
11929270486
11929274819
11929283120
11929291299
11929299416
11929304849
11929313332
11929320107
11929326577
11929333047
11929340310
11929344582
11929355508
11929363869
11929370278
11929377297
11929382729
11929391213
11929395730
11929403847
11929413796
11929420144
11929428200
11929436745
11929443215
11929450356
11929456032
11929466103
11929472390
11929478554
11929485451
11929491982
11929504433
11929511818
11929520302
11929524941
11929534096
11929540322
11929546303
11929554116
11929562660
11929574440
11929582131
11929590920
11929599465
11929606911
11929614723
11929620094
11929628029
11929633705
11929640236
11929650002
11929657204
11929662270
11929668190
11929673439
11929678200
11929683876
11929689247
11929695778
11929701393
11929706886
11929712013
11929717506
11929721718
11929727028
11929732582
11929736244
11929743995
11929749489
11929754432
11929760963
11929765541
11929770607
11929776222
11929780983
11929787758
11929793678
11929799232
11929804237
11929809791
11929814491
11929819862
11929824256
11929831092
11929837623
11929842262
11929846839
11929853553
11929858924
11929863380
11929868507
11929873145
11929881263
11929887672
11929890968
11929895057
11929902198
11929904884
11929911903
11929915809
11929921119
11929925269
11929932838
11929939063
11929945289
11929949317
11929955726
11929959510
11929966773
11929971412
11929977943
11929981849
11929987830
11929991798
11929997779
11930003699
11930008277
11930015235
11930019935
11930030555
11930034888
11930041785
11930046668
11930054908
11930060462
11930068030
11930074195
11930080237
11930084510
11930089820
11930096473
11930102576
11930108496
11930114356
11930121619
11930128211
11930133460
11930138709
11930146033
11930151587
11930164893
11930173804
11930177283
11930186743
11930193152
11930198462
11930204871
11930209509
11930216284
11930221716
11930226477
11930231055
11930239783
11930247351
11930254919
11930264136
11930269568
11930279150
11930284460
11930294287
11930300940
11930308203
11930315161
11930321753
11930328161
11930336462
11930341101
11930346533
11930350439
11930355261
11930359900
11930365698
11930369604
11930376745
11930381262
11930388037
11930393103
11930397253
11930402197
11930408850
11930415136
11930419348
11930425451
11930431311
11930439916
11930446203
11930455419
11930461218
11930472082
11930480871
11930488256
11930496862
11930506750
11930514928
11930519323
11930527502
11930532507
11930537450
11930541296
11930546606
11930551244
11930555761
11930560827
11930567602
11930572301
11930579198
11930583410
11930590429
11930593725
11930601415
11930605688
11930609533
11930614843
11930619726
11930623937
11930628270
11930634069
11930640050
11930645360
11930650548
11930655187
11930659459
11930665380
11930672094
11930677587
11930682103
11930687780
11930692296
11930702672
11930707799
11930715306
11930719823
11930722020
11930729405
11930733861
11930738378
11930742955
11930747594
11930751500
11930755162
11930758214
11930763768
11930767369
11930772191
11930777318
11930780858
11930784703
11930789281
11930794835
11930799474
11930803502
11930810887
11930814366
11930819920
11930825658
11930830174
11930834019
11930838780
11930842931
11930846898
11930851781
11930854466
11930859654
11930862767
11930867345
11930873265
11930876073
11930881322
11930884679
11930889683
11930892857
11930897313
11930902074
11930906712
11930910863
11930914769
11930918614
11930923497
11930928441
11930932835
11930938633
11930943089
11930947056
11930952305
11930956822
11930960118
11930966832
11930974400
11930981785
11930987400
11930992344
11930995884
11930999791
11931006626
11931011814
11931015415
11931020603
11931025486
11931030003
11931036900
11931041233
11931045567
11931050999
11931056187
11931059971
11931066136
11931071507
11931084202
11931089512
11931095310
11931101536
11931106602
11931112034
11931119419
11931123753
11931127964
11931133518
11931139256
11931142429
11931147495
11931150974
11931155369
11931162754
11931166782
11931170872
11931175815
11931179356
11931184482
11931188267
11931193394
11931198520
11931201877
11931205845
11931210666
11931214451
11931223118
11931232517
11931241184
11931251621
11931259006
11931268100
11931284031
11931302585
11931317234
11931331699
11931343784
11931357395
11931372165
11931384189
11931392978
11931405856
11931419223
11931432285
11931443515
11931454929
11931466403
11931479098
11931491000
11931502292
11931513034
11931527438
11931538058
11931550937
11931560763
11931573214
11931592685
11931608309
11931624911
11931638766
11931650485
11931662509
11931673556
11931687594
11931698519
11931710116
11931721102
11931733675
11931746432
11931761019
11931772066
11931783602
11931794893
11931806124
11931818270
11931833590
11931845491
11931858919
11931870882
11931881258
11931893282
11931904329
11931913668
11931922274
11931933260
11931942537
11931953218
11931961946
11931972078
11931982515
11931991426
11932000887
11932011324
11932019991
11932027742
11932037813
11932050142
11932060091
11932069185
11932078218
11932087923
11932098665
11932110200
11932122468
11932131868
11932147310
11932158723
11932168306
11932179231
11932193025
11932204377
11932214875
11932227265
11932241548
11932253510
11932266267
11932277192
11932288972
11932301301
11932313020
11932324555
11932334870
11932346894
11932359345
11932370454
11932382294
11932395173
11932404999
11932417145
11932427521
11932439972
11932451386
11932462372
11932472138
11932484345
11932494538
11932504914
11932511933
11932519623
11932526886
11932533966
11932540802
11932548859
11932557099
11932564301
11932571930
11932577667
11932587128
11932593292
11932601227
11932610687
11932618378
11932625092
11932630585
11932640411
11932649506
11932654694
11932664093
11932671783
11932678253
11932684662
11932691742
11932698334
11932714142
11932719452
11932728058
11932737884
11932743499
11932750335
11932760833
11932770416
11932776947
11932784515
11932793487
11932799896
11932804168
11932810150
11932815338
11932819305
11932824432
11932829254
11932834442
11932838714
11932843597
11932849151
11932852569
11932858245
11932862029
11932865508
11932870269
11932873870
11932879730
11932885101
11932893401
11932901275
11932908904
11932917327
11932925933
11932929778
11932934905
11932941436
11932944366
11932949798
11932954803
11932958282
11932963042
11932967986
11932973052
11932976592
11932983184
11932991973
11932995757
11933000762
11933005156
11933009795
11933015105
11933020110
11933027007
11933032622
11933037078
11933041655
11933046172
11933051299
11933058135
11933064055
11933068755
11933073699
11933077727
11933082915
11933088042
11933092925
11933099761
11933104888
11933111785
11933120085
11933126067
11933131499
11933139739
11933144988
11933149382
11933153288
11933159270
11933163298
11933169524
11933176177
11933182097
11933186858
11933197417
11933203276
11933211211
11933217497
11933227263
11933235747
11933241789
11933250090
11933256804
11933263701
11933270109
11933275603
11933280424
11933284209
11933299406
11933310515
11933317778
11933325529
11933338652
11933347014
11933353361
11933358854
11933363432
11933368681
11933373991
11933380522
11933385893
11933390654
11933396635
11933400602
11933405546
11933410002
11933414701
11933425566
11933436247
11933450285
11933455595
11933461454
11933467558
11933472379
11933477445
11933483122
11933488371
11933494108
11933498624
11933501188
11933509122
11933513578
11933519559
11933524503
11933529752
11933534025
11933538786
11933544340
11933549161
11933553617
11933559293
11933563200
11933568265
11933573453
11933577115
11933583158
11933587430
11933593534
11933598905
11933603666
11933608060
11933613798
11933618741
11933624235
11933628873
11933634244
11933640165
11933643705
11933649869
11933655423
11933659818
11933665189
11933670133
11933675382
11933680204
11933686063
11933692227
11933697843
11933703214
11933707669
11933712918
11933719327
11933722928
11933729642
11933733670
11933740323
11933745572
11933750394
11933756009
11933762540
11933767667
11933773648
11933777982
11933787869
11933793118
11933799466
11933803799
11933809232
11933814175
11933818997
11933823819
11933829434
11933834988
11933840176
11933845364
11933851956
11933854947
11933861966
11933866055
11933871548
11933878873
11933884488
11933888699
11933893399
11933901089
11933908230
11933913540
11933917935
11933923733
11933928250
11933935330
11933938321
11933944790
11933948941
11933954800
11933959805
11933966641
11933973294
11933977749
11933981900
11933987393
11933995144
11933999417
11934006436
11934011502
11934018276
11934022549
11934027371
11934032131
11934038723
11934047451
11934055630
11934065701
11934071865
11934076443
11934081143
11934087124
11934092922
11934097805
11934103359
11934109585
11934117214
11934123074
11934127529
11934134487
11934139187
11934144924
11934149990
11934154323
11934159878
11934165737
11934170864
11934176906
11934183254
11934187893
11934193935
11934201992
11934206203
11934211513
11934218166
11934223232
11934229458
11934236660
11934241054
11934251430
11934257473
11934263393
11934267910
11934275112
11934281398
11934287624
11934292751
11934302211
11934307216
11934316310
11934321559
11934330348
11934338954
11934349452
11934356960
11934369289
11934379848
11934386256
11934393642
11934398586
11934402980
11934409999
11934417934
11934423793
11934431300
11934437282
11934443874
11934451930
11934461513
11934470973
11934478114
11934484340
11934494533
11934503566
11934510951
11934515834
11934525782
11934532374
11934539760
11934545985
11934554408
11934564235
11934571681
11934579066
11934585719
11934594630
11934602626
11934611598
11934619776
11934627284
11934632655
11934641322
11934650294
11934656397
11934665492
11934671595
11934679957
11934688502
11934697108
11934703333
11934710841
11934717860
11934726893
11934734949
11934741236
11934749110
11934758204
11934763697
11934772303
11934779627
11934787989
11934793726
11934801966
11934810328
11934818750
11934826075
11934831751
11934840052
11934849451
11934856653
11934862452
11934870630
11934878138
11934884912
11934892969
11934902063
11934913538
11934921900
11934925684
11934930994
11934937647
11934941248
11934959680
11934965479
11934973840
11934981348
11934988245
11934995386
11935002161
11935009729
11935017908
11935028040
11935045129
11935058679
11935068750
11935073511
11935081201
11935088220
11935095483
11935100610
11935105981
11935110864
11935114770
11935122522
11935127221
11935135156
11935139856
11935145898
11935150659
11935156274
11935161157
11935166345
11935172143
11935177575
11935184045
11935188501
11935193750
11935197106
11935202172
11935208215
11935213769
11935217980
11935222619
11935227258
11935231713
11935237451
11935242089
11935248071
11935253320
11935257897
11935263574
11935267968
11935274377
11935280663
11935287011
11935293664
11935297692
11935302636
11935308434
11935312341
11935318505
11935325280
11935331261
11935336510
11935341027
11935345910
11935351647
11935355920
11935361657
11935366418
11935378747
11935392785
11935401635
11935409813
11935414696
11935419945
11935425072
11935430932
11935434899
11935441124
11935447045
11935453392
11935459984
11935468346
11935476891
11935483177
11935490868
11935499474
11935505455
11935512169
11935518639
11935527245
11935534142
11935543236
11935550438
11935555748
11935563683
11935567772
11935575951
11935580040
11935587853
11935591332
11935599510
11935605064
11935611046
11935619041
11935626427
11935634788
11935642418
11935650169
11935655357
11935662987
11935668602
11935677025
11935683128
11935689049
11935696800
11935701988
11935709678
11935717369
11935725059
11935732383
11935739341
11935744957
11935751243
11935755455
11935761070
11935765159
11935772178
11935785179
11935793968
11935805442
11935812095
11935821189
11935826316
11935833396
11935840110
11935846763
11935853782
11935857932
11935863975
11935869773
11935877219
11935884177
11935890220
11935897056
11935904197
11935911155
11935916221
11935923484
11935932334
11935938682
11935944175
11935951377
11935957114
11935964011
11935969382
11935977134
11935985740
11935992942
11935998801
11936004783
11936008445
11936018027
11936025779
11936033225
11936039145
11936044883
11936051291
11936060263
11936069968
11936079428
11936088401
11936095969
11936099265
11936106406
11936113608
11936119895
11936125693
11936133689
11936139914
11936148032
11936154379
11936159323
11936166281
11936173605
11936179526
11936188803
11936207175
11936218161
11936232992
11936240866
11936249045
11936253744
11936262350
11936269736
11936278403
11936288107
11936296042
11936304037
11936311850
11936318686
11936326010
11936333456
11936337973
11936349691
11936357138
11936363058
11936373312
11936381246
11936385031
11936394735
11936402365
11936406820
11936418173
11936425680
11936432638
11936441183
11936448263
11936455892
11936463339
11936470785
11936478292
11936488485
11936495992
11936504537
11936509725
11936520284
11936529501
11936537862
11936544881
11936552938
11936560811
11936566915
11936575704
11936582967
11936590780
11936603841
11936615499
11936628560
11936646749
11936661519
11936673543
11936688619
11936706197
11936718709
11936735005
11936752889
11936764485
11936773274
11936781453
11936786946
11936798970
11936806721
11936814778
11936822652
11936829854
11936837544
11936845845
11936853718
11936861287
11936868245
11936875508
11936881978
11936889241
11936897053
11936906025
11936911885
11936926106
11936933613
11936941182
11936949055
11936953816
11936971028
11936974812
11936982014
11936991658
11937000263
11937010456
11937019428
11937028523
11937038960
11937052265
11937062763
11937068134
11937083942
11937091389
11937101398
11937110187
11937116535
11937124348
11937132221
11937139179
11937151691
11937160236
11937168964
11937177570
11937189838
11937198139
11937212421
11937218647
11937227314
11937234638
11937240314
11937247882
11937255756
11937263324
11937270710
11937278522
11937283344
11937289875
11937296710
11937303241
11937312335
11937317462
11937325580
11937333637
11937343097
11937350910
11937358112
11937365070
11937372150
11937379169
11937388995
11937395038
11937404437
11937412067
11937418414
11937427508
11937435199
11937441119
11937449054
11937462359
11937469562
11937476092
11937486590
11937492694
11937501178
11937508380
11937516864
11937526202
11937533648
11937541949
11937547992
11937556170
11937568194
11937578387
11937590655
11937599810
11937608966
11937616168
11937623370
11937631487
11937638445
11937646258
11937654559
11937663836
11937671587
11937678240
11937687762
11937695208
11937701678
11937709002
11937717181
11937724383
11937735125
11937742266
11937750201
11937757342
11937765093
11937772722
11937780291
11937788042
11937795916
11937802630
11937808428
11937815508
11937824175
11937831194
11937838579
11937843950
11937849749
11937858782
11937864641
11937872637
11937877581
11937884172
11937891680
11937898210
11937907183
11937914446
11937919939
11937926164
11937934221
11937942156
11937949785
11937958696
11937967058
11937973589
11937980730
11937990495
11937996660
11938005632
11938013139
11938018938
11938028337
11938035722
11938043535
11938050249
11938058244
11938065629
11938073259
11938082170
11938089860
11938100175
11938107560
11938115251
11938122270
11938130876
11938139421
11938147599
11938157670
11938168168
11938175675
11938185014
11938191911
11938200028
11938207047
11938213883
11938226457
11938237199
11938246293
11938258256
11938269364
11938276505
11938289323
11938301713
11938308915
11938325761
11938339432
11938349320
11938362748
11938375748
11938386857
11938398636
11938411087
11938423661
11938432206
11938443558
11938456314
11938469193
11938478775
11938488602
11938501236
11938509964
11938521683
11938533402
11938549210
11938568802
11938580704
11938591934
11938601883
11938612259
11938627701
11938638138
11938648819
11938660599
11938672134
11938682693
11938694961
11938706924
11938718094
11938729263
11938741409
11938752945
11938763259
11938776626
11938786636
11938801162
11938813613
11938825393
11938839004
11938853408
11938865737
11938875564
11938886001
11938899306
11938911147
11938922073
11938931899
11938944778
11938956069
11938976943
11938988906
11939001113
11939010451
11939020949
11939032302
11939043349
11939053542
11939063124
11939072707
11939083266
11939090529
11939104994
11939115004
11939128310
11939138258
11939148085
11939159255
11939171767
11939186842
11939195448
11939212904
11939224989
11939238051
11939249220
11939263319
11939276198
11939287977
11939299818
11939312513
11939326368
11939337111
11939350660
11939363844
11939376417
11939389112
11939403272
11939415479
11939428114
11939441969
11939455702
11939467786
11939482130
11939496290
11939512098
11939527784
11939545606
11939570264
11939594007
11939618116
11939668714
11939684400
11939699414
11939713391
11939727857
11939742688
11939755811
11939768994
11939781873
11939794507
11939818066
11939836072
11939849560
11939862744
11939873669
11939884289
11939896679
11939907849
11939917981
11939927685
11939936901
11939944897
11939952282
11939960766
11939968151
11939975781
11939983471
11939990124
11939997021
11940005383
11940013317
11940021374
11940031750
11940040661
11940051159
11940060436
11940071362
11940083385
11940095104
11940107189
11940115795
11940125744
11940136181
11940145336
11940155590
11940164989
11940174633
11940183178
11940190929
11940200817
11940210827
11940220592
11940230236
11940239086
11940247875
11940257091
11940265697
11940276134
11940285533
11940292430
11940298656
11940302867
11940310741
11940314464
11940321483
11940327037
11940334972
11940340953
11940347240
11940353282
11940358958
11940366283
11940373241
11940378978
11940385142
11940392406
11940398021
11940403331
11940409923
11940416698
11940422984
11940430858
11940436595
11940442943
11940448863
11940456614
11940462718
11940471324
11940478770
11940484202
11940491160
11940496409
11940504100
11940511302
11940519786
11940526194
11940534617
11940540049
11940548716
11940555308
11940563670
11940572093
11940579173
11940585826
11940591075
11940597972
11940605113
11940611704
11940617686
11940624705
11940631297
11940639109
11940645518
11940652049
11940658640
11940667612
11940674754
11940683115
11940690440
11940695933
11940703440
11940710337
11940717173
11940724741
11940731943
11940738718
11940747019
11940753489
11940759409
11940765757
11940773325
11940778391
11940789255
11940796579
11940805002
11940810495
11940818552
11940825449
11940832407
11940839853
11940845529
11940853525
11940860483
11940867136
11940872995
11940879648
11940886240
11940895944
11940902109
11940909616
11940915842
11940922312
11940930185
11940936716
11940944589
11940952463
11940960703
11940967355
11940974435
11940980844
11940988107
11940994455
11941001352
11941011362
11941016672
11941026071
11941033273
11941039743
11941045846
11941054086
11941060312
11941070993
11941078012
11941085458
11941093148
11941100106
11941106088
11941114999
11941121896
11941130075
11941138864
11941146981
11941154183
11941161935
11941168038
11941175241
11941182809
11941192208
11941199044
11941205758
11941212167
11941218942
11941225839
11941236825
11941242989
11941251839
11941260567
11941266305
11941273324
11941281441
11941286752
11941294991
11941300362
11941310616
11941319283
11941324715
11941329964
11941335213
11941339547
11941344246
11941351143
11941356576
11941361031
11941366585
11941371102
11941375985
11941380929
11941388802
11941393624
11941399849
11941406380
11941410958
11941416878
11941421822
11941428536
11941435189
11941440682
11941446541
11941451485
11941457222
11941465950
11941471810
11941477547
11941483162
11941488045
11941494087
11941499581
11941503426
11941509346
11941514717
11941520455
11941525704
11941530098
11941535042
11941541023
11941544319
11941550545
11941555489
11941561897
11941567574
11941571968
11941577705
11941583626
11941592964
11941601326
11941607063
11941614143
11941622261
11941630318
11941637337
11941641731
11941650337
11941654548
11941661140
11941666939
11941672249
11941677925
11941683113
11941687690
11941692878
11941697273
11941705635
11941711982
11941720283
11941725898
11941731880
11941738411
11941747016
11941753425
11941763191
11941769477
11941778327
11941787849
11941798713
11941804084
11941819099
11941828132
11941836555
11941844184
11941854499
11941861701
11941872871
11941882392
11941892829
11941900092
11941910346
11941919440
11941929877
11941940131
11941950446
11941959784
11941966742
11941979682
11941988410
11941997504
11942007819
11942016913
11942026129
11942035102
11942043708
11942052558
11942060065
11942068549
11942075507
11942084662
11942093390
11942101630
11942111029
11942121466
11942131354
11942141242
11942148871
11942159735
11942167364
11942178290
11942188605
11942197943
11942208929
11942216315
11942229437
11942240973
11942252447
11942263189
11942272894
11942283209
11942293036
11942302984
11942312628
11942323431
11942333502
11942344549
11942358526
11942371404
11942382513
11942393499
11942403692
11942414312
11942426458
11942439520
11942452642
11942464971
11942477605
11942489385
11942500188
11942512273
11942523626
11942534124
11942544866
11942555791
11942567083
11942578374
11942589605
11942599065
11942607427
11942616155
11942625249
11942635503
11942645208
11942657476
11942667424
11942677190
11942686711
11942697698
11942707463
11942717168
11942726506
11942738286
11942748418
11942758305
11942768193
11942778020
11942788151
11942798039
11942806950
11942818120
11942827153
11942836796
11942847111
11942856999
11942866642
11942875859
11942886784
11942896244
11942906926
11942918583
11942929264
11942937016
11942948063
11942958073
11942970036
11942979496
11942989018
11943000553
11943009953
11943018131
11943030338
11943038700
11943050968
11943058414
11943075748
11943096622
11943105472
11943120060
11943130436
11943141727
11943151981
11943162601
11943174198
11943184086
11943194828
11943204776
11943216495
11943227115
11943239383
11943248905
11943259830
11943270755
11943281192
11943293399
11943306339
11943317447
11943328677
11943340030
11943350650
11943360599
11943369876
11943379275
11943388431
11943398074
11943408938
11943418338
11943431766
11943441775
11943451358
11943463077
11943472049
11943483401
11943493777
11943510012
11943523196
11943536990
11943551089
11943564700
11943579165
11943596255
11943612307
11943627566
11943641482
11943653139
11943666445
11943677676
11943688357
11943701723
11943715761
11943730166
11943743349
11943755556
11943767519
11943778322
11943789064
11943799074
11943811769
11943821962
11943832704
11943847963
11943864992
11943877077
11943892763
11943909120
11943922487
11943939760
11943953859
11943969301
11943980653
11943993898
11944005434
11944019960
11944032716
11944045106
11944058961
11944071412
11944085206
11944096498
11944111756
11944124269
11944139649
11944154115
11944168519
11944182313
11944192018
11944200746
11944213014
11944223451
11944233826
11944243470
11944257752
11944274110
11944290040
11944299561
11944306031
11944314942
11944325074
11944335511
11944344971
11944354188
11944363282
11944372010
11944382019
11944391968
11944400757
11944411133
11944422852
11944435669
11944446167
11944456055
11944465515
11944474060
11944489136
11944501587
11944514038
11944524841
11944536804
11944546692
11944557190
11944566284
11944582153
11944595642
11944608826
11944625488
11944639160
11944658935
11944674804
11944689697
11944703674
11944713684
11944724121
11944734130
11944744812
11944755676
11944765991
11944776977
11944787841
11944795471
11944807311
11944817687
11944827819
11944839233
11944853210
11944864013
11944876220
11944885680
11944896422
11944906554
11944916198
11944928100
11944937499
11944948607
11944958129
11944970153
11944986144
11944998351
11945010314
11945021483
11945031493
11945041930
11945050841
11945061278
11945071715
11945084715
11945096129
11945106078
11945115660
11945126830
11945139464
11945150694
11945162352
11945173033
11945182432
11945190672
11945200438
11945215391
11945223204
11945231505
11945241881
11945251585
11945261961
11945274412
11945284483
11945295897
11945306456
11945317747
11945330809
11945341917
11945354673
11945367613
11945377928
11945386778
11945395384
11945403990
11945410947
