4141650408
4141655535
4141660784
4141666338
4141670793
4141676347
4141681291
4141685808
4141690691
4141695268
4141700884
4141705766
4141710466
4141714922
4141720171
4141726152
4141731645
4141736284
4141740678
4141745866
4141750322
4141756059
4141762407
4141768083
4141773637
4141781206
4141785722
4141792375
4141798112
4141804643
4141810686
4141817766
4141824540
4141831376
4141838701
4141845170
4141851823
4141860124
4141867021
4141875138
4141881730
4141887895
4141895768
4141902970
4141910173
4141917558
4141924821
4141930924
4141937577
4141944596
4141951676
4141959611
4141965836
4141973161
4141977738
4141985246
4141991105
4141999162
4142008012
4142015275
4142022538
4142030045
4142036332
4142044144
4142050736
4142057450
4142065751
4142071244
4142079362
4142086991
4142094803
4142102799
4142110917
4142117447
4142124711
4142131180
4142139420
4142146134
4142154068
4142161576
4142167923
4142175064
4142183121
4142189652
4142198868
4142205582
4142212723
4142220597
4142227555
4142235062
4142242264
4142250748
4142258499
4142266007
4142273331
4142280167
4142286759
4142293594
4142301529
4142309464
4142316055
4142323441
4142329605
4142336746
4142344864
4142351334
4142359390
4142365188
4142372879
4142378677
4142385940
4142392105
4142401748
4142408218
4142416214
4142422073
4142428909
4142436599
4142444656
4142450576
4142458023
4142466140
4142472427
4142480423
4142486709
4142495132
4142501174
4142509536
4142514602
4142523391
4142529251
4142537795
4142543594
4142552200
4142557754
4142565627
4142571914
4142579543
4142587722
4142593093
4142601760
4142610793
4142617324
4142625014
4142632888
4142639907
4142645766
4142653152
4142662673
4142670913
4142675857
4142684890
4142692214
4142699050
4142707717
4142714675
4142722609
4142729018
4142736098
4142742568
4142750258
4142756911
4142765090
4142773024
4142779799
4142787246
4142794631
4142801528
4142808974
4142816054
4142825575
4142832472
4142839919
4142846938
4142856093
4142863051
4142870070
4142878798
4142886977
4142892653
4142901320
4142906996
4142915907
4142925978
4142932936
4142940871
4142948927
4142956007
4142964369
4142971327
4142980665
4142986830
4142993910
4143002333
4143011610
4143018690
4143025221
4143035597
4143042067
4143050550
4143058180
4143065992
4143073194
4143080275
4143089369
4143098219
4143106092
4143111769
4143120497
4143126539
4143135328
4143143873
4143151930
4143157972
4143166578
4143174940
4143182874
4143190382
4143198377
4143207288
4143216627
4143223707
4143230970
4143238538
4143245374
4143251783
4143262281
4143270276
4143278333
4143286207
4143294813
4143302503
4143310438
4143319715
4143328565
4143334119
4143342359
4143347730
4143356946
4143365064
4143374524
4143380811
4143388623
4143395093
4143403150
4143410230
4143419751
4143427991
4143434033
4143442334
4143448682
4143457166
4143465344
4143473767
4143480725
4143488904
4143495496
4143503674
4143510144
4143518201
4143526501
4143534558
4143541699
4143549939
4143556775
4143563916
4143572034
4143580029
4143587414
4143595044
4143601513
4143606213
4143612072
4143617077
4143622265
4143627026
4143631909
4143636364
4143641613
4143646618
4143651135
4143656506
4143660717
4143665600
4143670422
4143674511
4143680432
4143683850
4143689343
4143692334
4143696484
4143701733
4143707287
4143713696
4143721203
4143725292
4143729931
4143734875
4143741284
4143746960
4143750256
4143755444
4143760876
4143765392
4143770947
4143775585
4143779186
4143783825
4143787670
4143792309
4143799328
4143804333
4143810192
4143816235
4143823070
4143827709
4143832104
4143839489
4143846508
4143850902
4143856029
4143860119
4143865185
4143869884
4143875133
4143881359
4143885937
4143891979
4143895702
4143901195
4143906078
4143911815
4143916088
4143920910
4143926708
4143931530
4143936168
4143940990
4143946178
4143951366
4143955944
4143961376
4143965160
4143970897
4143976146
4143980907
4143986217
4143991344
4143995922
4144000743
4144005565
4144011852
4144017955
4144021984
4144027233
4144032115
4144036693
4144042125
4144046337
4144050548
4144054820
4144059459
4144065257
4144072093
4144077464
4144084300
4144090038
4144097362
4144102916
4144108897
4144114574
4144119823
4144125316
4144130870
4144137218
4144142589
4144147410
4144152171
4144158519
4144164561
4144170787
4144176463
4144181773
4144186656
4144191600
4144198008
4144205150
4144211436
4144217662
4144221995
4144227977
4144233043
4144240367
4144244822
4144252330
4144257579
4144263804
4144269664
4144273082
4144280894
4144289866
4144297557
4144304270
4144310313
4144315806
4144320262
4144326060
4144330393
4144335703
4144340525
4144344004
4144350840
4144354807
4144361704
4144367503
4144372019
4144375254
4144381480
4144386424
4144392100
4144396738
4144402781
4144407236
4144411021
4144417429
4144421519
4144426768
4144431773
4144437022
4144443857
4144449900
4144454844
4144459727
4144465403
4144468882
4144474619
4144479929
4144485422
4144489756
4144495371
4144499827
4144504648
4144509165
4144515574
4144519053
4144525034
4144529062
4144534555
4144539499
4144543833
4144549204
4144555063
4144559763
4144564524
4144568369
4144573557
4144577768
4144584177
4144588449
4144594126
4144599375
4144605417
4144611154
4144617136
4144621530
4144626352
4144632150
4144636301
4144641428
4144646982
4144652170
4144658395
4144663400
4144669138
4144674631
4144677988
4144682932
4144688059
4144694711
4144699411
4144703989
4144709238
4144714609
4144719980
4144726205
4144733041
4144738840
4144744272
4144751413
4144757638
4144763254
4144771127
4144777536
4144781747
4144785470
4144790414
4144795480
4144801217
4144805368
4144810495
4144813730
4144818673
4144823983
4144828317
4144833566
4144839303
4144845163
4144850229
4144855722
4144860543
4144865914
4144870187
4144876840
4144880868
4144887338
4144891549
4144898019
4144902352
4144908090
4144912972
4144918038
4144922311
4144929391
4144933969
4144939340
4144945809
4144953072
4144957955
4144965096
4144970834
4144977486
4144983956
4144987740
4144994515
4144998971
4145006234
4145011666
4145017403
4145025033
4145029610
4145035042
4145039803
4145044625
4145050057
4145055184
4145060616
4145067879
4145073495
4145078377
4145083626
4145088936
4145094430
4145098641
4145104805
4145111519
4145117379
4145123238
4145128670
4145133492
4145140572
4145144967
4145150460
4145156746
4145163643
4145168892
4145173165
4145180123
4145184578
4145190621
4145195503
4145202584
4145208809
4145214119
4145219490
4145224861
4145230660
4145234932
4145241280
4145246773
4145251900
4145258614
4145264961
4145270577
4145274056
4145283272
4145289803
4145297127
4145303780
4145308540
4145315987
4145320869
4145325203
4145329597
4145335884
4145341316
4145345772
4145350105
4145355354
4145361091
4145366401
4145373054
4145378486
4145382332
4145388801
4145394233
4145399482
4145403389
4145409187
4145415291
4145419380
4145424507
4145429329
4145433113
4145438606
4145443672
4145448738
4145453498
4145459480
4145463691
4145471199
4145476509
4145482978
4145489448
4145495979
4145499336
4145507636
4145512031
4145520027
4145525764
4145532234
4145538886
4145543464
4145551154
4145557380
4145562629
4145566779
4145570869
4145577033
4145583076
4145588813
4145593696
4145600349
4145605354
4145609870
4145616035
4145620734
4145625861
4145631049
4145636726
4145643989
4145650886
4145653632
4145660163
4145666633
4145671088
4145677253
4145682990
4145689582
4145696845
4145701606
4145706672
4145712897
4145717292
4145722052
4145726752
4145732306
4145737555
4145744696
4145748664
4145754035
4145759528
4145764838
4145769355
4145775336
4145780524
4145787421
4145791815
4145797736
4145803534
4145808783
4145812934
4145817877
4145823981
4145830451
4145836188
4145842658
4145851447
4145855780
4145862860
4145869879
4145876044
4145884772
4145889288
4145894659
4145899725
4145904608
4145908575
4145914496
4145921088
4145925116
4145929144
4145935248
4145939459
4145945929
4145949896
4145955694
4145963141
4145967352
4145971197
4145977240
4145983160
4145988165
4145991949
4145998236
4146004889
4146010016
4146012884
4146019476
4146023382
4146028936
4146034124
4146039679
4146044195
4146050726
4146055304
4146061529
4146067205
4146070501
4146076849
4146081121
4146088934
4146094793
4146100042
4146105413
4146110418
4146116583
4146121527
4146124334
4146132818
4146137396
4146144781
4146149725
4146154791
4146159918
4146165167
4146169927
4146175176
4146181097
4146187444
4146191839
4146198614
4146203008
4146211675
4146214971
4146222662
4146228887
4146236577
4146242254
4146248174
4146252141
4146258062
4146263433
4146268560
4146274969
4146280767
4146285833
4146290044
4146296087
4146301580
4146305364
4146311101
4146318975
4146323674
4146330632
4146334783
4146340398
4146343145
4146350286
4146357305
4146365850
4146370488
4146378118
4146385442
4146391667
4146398564
4146405400
4146415654
4146426335
4146433171
4146437932
4146450932
4146458562
4146465337
4146474736
4146479985
4146489384
4146495671
4146503667
4146509770
4146514836
4146523869
4146529118
4146536809
4146540654
4146549931
4146556889
4146562871
4146572575
4146577397
4146585209
4146592900
4146598576
4146604680
4146611210
4146618657
4146627690
4146632878
4146640324
4146647892
4146653996
4146659611
4146667912
4146673527
4146681401
4146689213
4146698002
4146704472
4146712406
4146719059
4146723881
4146731877
4146740299
4146746464
4146754154
4146760929
4146771244
4146780094
4146787174
4146794926
4146803287
4146812382
4146821171
4146826664
4146837040
4146845096
4146853092
4146859318
4146869205
4146876468
4146884098
4146890323
4146898929
4146903995
4146915043
4146922245
4146927005
4146934818
4146943119
4146949894
4146956607
4146964725
4146973026
4146975406
4146988529
4146992862
4147001895
4147010379
4147016544
4147023990
4147031558
4147037540
4147044986
4147051578
4147059757
4147067813
4147073306
4147079532
4147088382
4147094669
4147100833
4147108585
4147115176
4147123843
4147127750
4147137698
4147143924
4147150516
4147158206
4147165347
4147174258
4147181460
4147191043
4147198245
4147205752
4147213809
4147218692
4147225833
4147234134
4147240603
4147249270
4147260012
4147267825
4147276919
4147283877
4147290652
4147298770
4147304263
4147312930
4147319399
4147327822
4147336855
4147344546
4147351138
4147357363
4147362307
4147367739
4147374148
4147379031
4147385073
4147390688
4147395754
4147400027
4147405276
4147409914
4147412478
4147420473
4147426028
4147431155
4147436159
4147440249
4147445498
4147449892
4147454226
4147460756
4147465029
4147472231
4147477846
4147482424
4147486879
4147491579
4147494082
4147500979
4147507937
4147515078
4147517580
4147522707
4147527163
4147533388
4147537355
4147543337
4147548769
4147554872
4147558779
4147565126
4147569338
4147577333
4147580751
4147588503
4147596132
4147600710
4147606142
4147612306
4147616701
4147621645
4147626344
4147631593
4147640749
4147646730
4147652040
4147657167
4147662233
4147668398
4147674440
4147678896
4147684999
4147692018
4147698671
4147703920
4147708192
4147713441
4147718812
4147723695
4147728395
4147734498
4147739747
4147744996
4147750368
4147755495
4147760377
4147765565
4147770631
4147776124
4147781251
4147786561
4147791871
4147797303
4147802003
4147807191
4147814821
4147820314
4147825196
4147831788
4147838441
4147844361
4147850709
4147856874
4147867066
4147872499
4147879273
4147885682
4147891480
4147896913
4147902467
4147907655
4147912843
4147917115
4147921998
4147928101
4147934266
4147938355
4147944215
4147947999
4147955018
4147960328
4147964967
4147971864
4147976441
4147981507
4147986939
4147992310
4147997803
4148003480
4148007691
4148014039
4148019593
4148026124
4148028992
4148037293
4148041810
4148047364
4148051514
4148057679
4148064576
4148070191
4148074891
4148080262
4148084595
4148090577
4148094849
4148101136
4148106629
4148112732
4148117493
4148123169
4148128235
4148134156
4148139038
4148143372
4148148926
4148156800
4148163452
4148167115
4148173523
4148179077
4148184143
4148189636
4148194641
4148198487
4148206482
4148211487
4148216919
4148222046
4148226013
4148231934
4148237427
4148244141
4148249817
4148254761
4148262817
4148266785
4148273315
4148276123
4148282349
4148289001
4148295471
4148300537
4148305176
4148310303
4148314941
4148320007
4148325134
4148330627
4148335388
4148340820
4148345886
4148351562
4148357422
4148363342
4148369446
4148378418
4148387390
4148393249
4148401916
4148408630
4148413513
4148421203
4148427246
4148434692
4148440734
4148447021
4148453125
4148457458
4148461975
4148466857
4148473999
4148479248
4148483703
4148490295
4148494995
4148499816
4148505065
4148510558
4148518371
4148523193
4148527709
4148533141
4148538390
4148543517
4148547424
4148553588
4148559631
4148564819
4148569579
4148574523
4148578796
4148583984
4148589721
4148595336
4148599853
4148606567
4148611022
4148617309
4148621581
4148627318
4148632201
4148637633
4148642821
4148647277
4148654052
4148657775
4148664489
4148669311
4148674682
4148679625
4148684874
4148689635
4148697020
4148701781
4148707152
4148711852
4148716979
4148723632
4148729491
4148735167
4148740905
4148748229
4148752623
4148758116
4148763976
4148769713
4148772704
4148780455
4148785582
4148792479
4148797850
4148803771
4148809569
4148815184
4148820311
4148825926
4148833556
4148838255
4148844603
4148849364
4148854674
4148861266
4148866454
4148873228
4148879820
4148884825
4148890196
4148896544
4148901182
4148906065
4148912413
4148917601
4148923704
4148928831
4148932493
4148939390
4148942259
4148952086
4148955259
4148963255
4148969053
4148975828
4148980955
4148988585
4148994444
4148999815
4149006590
4149011290
4149017637
4149022032
4149026793
4149031004
4149036009
4149041868
4149045408
4149052793
4149059324
4149064573
4149070372
4149075071
4149080259
4149085081
4149090330
4149096617
4149101438
4149107603
4149112730
4149117979
4149123533
4149127500
4149132932
4149139402
4149145445
4149150144
4149156370
4149160642
4149165281
4149171568
4149175535
4149182127
4149187925
4149193418
4149199216
4149204343
4149208250
4149215208
4149219175
4149224729
4149230527
4149237852
4149240964
4149247800
4149252805
4149258115
4149262571
4149269346
4149273740
4149280332
4149285093
4149291868
4149296811
4149304258
4149310849
4149317136
4149320798
4149328305
4149335202
4149341367
4149347165
4149353208
4149359067
4149364926
4149368833
4149377744
4149383054
4149387631
4149392331
4149399106
4149403806
4149408872
4149415891
4149422604
4149428220
4149431943
4149438290
4149442746
4149448361
4149454770
4149463376
4149467770
4149473508
4149479489
4149484494
4149488705
4149494443
4149499936
4149508725
4149517331
4149523007
4149529111
4149536069
4149540402
4149546750
4149553402
4149560849
4149566403
4149572506
4149577389
4149583004
4149587094
4149593136
4149599240
4149604611
4149609555
4149616085
4149619198
4149627987
4149633602
4149638913
4149642392
4149650631
4149655636
4149661373
4149665402
4149671505
4149676998
4149683895
4149689450
4149693539
4149698178
4149703915
4149707699
4149713925
4149718624
4149723873
4149731136
4149738033
4149743099
4149747921
4149753475
4149758297
4149761349
4149768734
4149776119
4149781612
4149787594
4149792110
4149798214
4149803646
4149807796
4149813717
4149818722
4149826046
4149832699
4149836849
4149843014
4149848751
4149854427
4149857967
4149864437
4149869991
4149875484
4149880733
4149885555
4149891781
4149896724
4149903194
4149908443
4149913021
4149919674
4149924800
4149930355
4149935176
4149939937
4149944026
4149949031
4149955867
4149962764
4149967037
4149972164
4149977107
4149982295
4149987667
4149992610
4149997920
4150003597
4150009212
4150014522
4150020198
4150026058
4150031856
4150037776
4150044063
4150051082
4150057368
4150063106
4150066158
4150076595
4150081477
4150088374
4150096736
4150101802
4150109126
4150114863
4150120723
4150128047
4150133723
4150139644
4150145625
4150151607
4150156123
4150161677
4150166987
4150171626
4150178645
4150183284
4150190120
4150194026
4150201533
4150206782
4150212031
4150215144
4150222285
4150226741
4150233760
4150238581
4150245417
4150249629
4150255915
4150260371
4150266780
4150271723
4150277033
4150283930
4150288813
4150293635
4150299616
4150304560
4150309199
4150314509
4150321833
4150327204
4150331110
4150336604
4150341059
4150348200
4150353144
4150358637
4150364436
4150370905
4150375605
4150382136
4150387141
4150395258
4150400751
4150407648
4150413508
4150422358
4150427363
4150434626
4150439631
4150447077
4150453669
4150458002
4150465876
4150472223
4150479303
4150484308
4150489985
4150496882
4150502619
4150506098
4150514643
4150521418
4150527521
4150530146
4150536920
4150541254
4150547663
4150552118
4150557917
4150563654
4150569818
4150576044
4150581537
4150586176
4150590936
4150597345
4150601984
4150608881
4150614191
4150620294
4150625604
4150630853
4150637140
4150641779
4150647089
4150651849
4150658990
4150664911
4150673456
4150678033
4150687250
4150693292
4150701044
4150705438
4150716180
4150723993
4150729486
4150734064
4150741449
4150746271
4150753290
4150757928
4150765008
4150769464
4150775750
4150780267
4150785089
4150791436
4150795831
4150801080
4150808892
4150815973
4150820306
4150826532
4150831597
4150836724
4150840814
4150846063
4150852471
4150858514
4150863458
4150870721
4150876336
4150881585
4150889642
4150895806
4150900384
4150906365
4150911004
4150917840
4150922173
4150927178
4150932916
4150938104
4150944695
4150951470
4150956231
4150961236
4150966973
4150971856
4150974602
4150983086
4150989373
4150995354
4150998162
4151006829
4151011895
4151017205
4151022698
4151028130
4151034295
4151041192
4151045952
4151051079
4151056634
4151061577
4151067681
4151072686
4151078972
4151085808
4151091973
4151095879
4151102471
4151106743
4151111504
4151118706
4151124321
4151130791
4151136406
4151140984
4151147087
4151151177
4151157219
4151161675
4151167778
4151172356
4151180474
4151184990
4151190117
4151194023
4151200432
4151205559
4151211907
4151215691
4151221550
4151225823
4151234490
4151239616
4151246025
4151253166
4151260735
4151265251
4151271049
4151277641
4151283379
4151288444
4151294975
4151301567
4151308830
4151311821
4151318474
4151322807
4151329704
4151335563
4151341240
4151346855
4151353569
4151357475
4151363090
4151368767
4151374016
4151379997
4151385612
4151392021
4151397758
4151403556
4151409294
4151412590
4151420280
4151426261
4151433097
4151436882
4151445243
4151451408
4151457145
4151463676
4151469169
4151475028
4151480949
4151484428
4151492668
4151498893
4151504691
4151510124
4151515495
4151519645
4151525260
4151531181
4151538993
4151543449
4151547721
4151554679
4151559562
4151565055
4151570060
4151578056
4151582328
4151590751
4151594474
4151601859
4151607291
4151612357
4151617911
4151622977
4151630240
4151635795
4151641471
4151647025
4151652091
4151657584
4151662467
4151667960
4151676017
4151681998
4151687369
4151692618
4151697318
4151702872
4151707084
4151713004
4151717643
4151724051
4151730338
4151734427
4151741263
4151745963
4151752860
4151758048
4151763480
4151769156
4151775687
4151780692
4151785941
4151790518
4151796195
4151801749
4151807364
4151810599
4151821097
4151827750
4151833365
4151837820
4151843680
4151849417
4151855399
4151862112
4151868826
4151879813
4151882742
4151890494
4151893301
4151901724
4151906790
4151912466
4151916678
4151923697
4151926687
4151934256
4151937308
4151944143
4151949637
4151957205
4151962820
4151968130
4151972403
4151977896
4151982290
4151987906
4151995230
4152000723
4152006277
4152012381
4152016958
4152022573
4152028250
4152034048
4152038626
4152045034
4152051016
4152056448
4152061087
4152065603
4152072439
4152077871
4152083242
4152089651
4152096609
4152103018
4152108572
4152112356
4152118643
4152123586
4152128774
4152133718
4152140371
4152145376
4152150259
4152156484
4152161550
4152166189
4152171743
4152178884
4152184438
4152190603
4152195669
4152200246
4152205800
4152211477
4152215627
4152222341
4152228261
4152234243
4152240163
4152243825
4152252065
4152258657
4152264821
4152269216
4152278066
4152284169
4152290273
4152295156
4152301625
4152305410
4152309865
4152316701
4152321523
4152327932
4152333425
4152337819
4152343862
4152350270
4152354055
4152358937
4152366506
4152371999
4152379384
4152385671
4152393056
4152398427
4152407033
4152412404
4152422292
4152428822
4152433522
4152438405
4152445485
4152451100
4152459035
4152463673
4152470326
4152474354
4152480458
4152485585
4152491811
4152495961
4152502736
4152507496
4152514271
4152518788
4152523732
4152529774
4152534596
4152537404
4152545765
4152550709
4152556324
4152561574
4152566823
4152572438
4152577687
4152582814
4152588368
4152595692
4152603199
4152608998
4152614491
4152620106
4152625355
4152628163
4152635487
4152641590
4152650624
4152656300
4152662403
4152669239
4152675221
4152678883
4152687977
4152694447
4152700489
4152706165
4152711903
4152716541
4152723744
4152728504
4152734242
4152740589
4152746326
4152750904
4152755726
4152762623
4152766712
4152772694
4152777637
4152782520
4152788502
4152793934
4152798572
4152805469
4152810657
4152815479
4152818287
4152825550
4152832447
4152837024
4152842640
4152848255
4152853016
4152859974
4152867176
4152874683
4152881702
4152889148
4152894764
4152900562
4152906299
4152912891
4152916980
4152925952
4152934253
4152940296
4152944995
4152951404
4152956775
4152961963
4152966907
4152972522
4152978809
4152986682
4152992664
4152997485
4153004810
4153011462
4153017932
4153024585
4153031238
4153042346
4153047351
4153052356
4153056750
4153061694
4153067615
4153072375
4153076770
4153082568
4153087939
4153092578
4153097156
4153103442
4153108508
4153114673
4153118884
4153125049
4153129016
4153135730
4153139514
4153146228
4153152026
4153157214
4153162036
4153167407
4153172473
4153177966
4153182238
4153188708
4153193713
4153201281
4153207263
4153212756
4153216967
4153221606
4153228015
4153232409
4153237658
4153244189
4153251086
4153254870
4153261706
4153267077
4153272143
4153277453
4153283007
4153290270
4153296313
4153302599
4153307482
4153311877
4153317248
4153321642
4153327990
4153333422
4153341540
4153346301
4153351977
4153356799
4153362841
4153368517
4153372790
4153378283
4153385424
4153390429
4153395556
4153400683
4153406420
4153411669
4153416979
4153421862
4153429491
4153438769
4153444140
4153450487
4153454699
4153461107
4153466112
4153471422
4153478197
4153483629
4153489367
4153494677
4153499559
4153505846
4153509630
4153515123
4153524095
4153528917
4153533739
4153538378
4153542772
4153550218
4153556139
4153561571
4153570238
4153576402
4153582933
4153588915
4153595690
4153598558
4153609667
4153616686
4153621874
4153626085
4153631395
4153635912
4153639635
4153645433
4153650743
4153655809
4153660570
4153665453
4153672594
4153677598
4153684007
4153690782
4153694566
4153700426
4153706041
4153712633
4153718431
4153723131
4153729905
4153736680
4153740465
4153746568
4153751390
4153757371
4153763231
4153768296
4153772996
4153779466
4153784715
4153790757
4153795945
4153801805
4153807115
4153814683
4153820115
4153826341
4153832078
4153836961
4153842393
4153847886
4153852891
4153859178
4153863877
4153870774
4153876817
4153882554
4153887559
4153894761
4153899888
4153905564
4153910508
4153915391
4153920884
4153925095
4153931809
4153938401
4153944016
4153950059
4153954697
4153960435
4153965928
4153971238
4153975754
4153983079
4153988511
4153995225
4154001511
4154007187
4154010239
4154018479
4154025864
4154031479
4154037278
4154041367
4154045945
4154053269
4154057908
4154065049
4154069809
4154076096
4154083176
4154089341
4154092942
4154101914
4154105454
4154114304
4154120285
4154127854
4154137558
4154143234
4154146897
4154152329
4154158188
4154163193
4154167648
4154174423
4154179062
4154185227
4154191269
4154196152
4154199570
4154206650
4154212875
4154218247
4154223740
4154230942
4154234848
4154242111
4154248825
4154253769
4154258408
4154266159
4154272629
4154277878
4154282577
4154288620
4154295761
4154301193
4154304062
4154311386
4154314194
4154321640
4154326095
4154332626
4154337204
4154343796
4154348434
4154354416
4154358871
4154363510
4154369918
4154374008
4154381088
4154387191
4154391586
4154397750
4154403488
4154408920
4154414474
4154421615
4154426254
4154433090
4154437606
4154443771
4154447921
4154453842
4154458785
4154464034
4154468917
4154476119
4154483016
4154488143
4154492965
4154498519
4154503463
4154509139
4154514022
4154520614
4154527328
4154532882
4154539596
4154544234
4154549606
4154556014
4154561385
4154565658
4154572799
4154575973
4154582564
4154589339
4154595321
4154600570
4154604232
4154612044
4154618270
4154623336
4154629867
4154635909
4154641402
4154647750
4154654097
4154659285
4154667098
4154673751
4154679244
4154685347
4154691451
4154697493
4154703902
4154708052
4154718062
4154723250
4154728682
4154732955
4154738265
4154743941
4154749190
4154753951
4154760115
4154766646
4154771346
4154776412
4154782027
4154786910
4154793318
4154798567
4154806380
4154811507
4154817183
4154822310
4154826521
4154832198
4154838606
4154842696
4154850142
4154856001
4154861983
4154866133
4154871809
4154877180
4154881331
4154886336
4154892866
4154898115
4154903609
4154908980
4154913862
4154919172
4154925520
4154930281
4154935164
4154942061
4154947493
4154951094
4154958174
4154963850
4154968306
4154972517
4154978621
4154984480
4154991133
4154995954
4155001631
4155006453
4155012983
4155017622
4155023115
4155028364
4155034834
4155041792
4155046064
4155052351
4155057539
4155062422
4155067610
4155072920
4155078901
4155084760
4155090193
4155095747
4155101179
4155106428
4155112043
4155116193
4155123640
4155129255
4155134138
4155140241
4155144575
4155148969
4155155378
4155159956
4155167768
4155173139
4155179975
4155184431
4155190839
4155195600
4155200483
4155205488
4155210554
4155217145
4155225202
4155230451
4155234174
4155242353
4155246869
4155253949
4155259321
4155266462
4155271650
4155280561
4155287152
4155292157
4155297284
4155302655
4155308087
4155312970
4155317609
4155322919
4155328961
4155334149
4155339032
4155345258
4155350995
4155353681
4155361798
4155366986
4155373700
4155377545
4155383099
4155389264
4155394940
4155400800
4155406537
4155413434
4155418744
4155424725
4155430157
4155437054
4155443646
4155453107
4155460980
4155467999
4155477032
4155483685
4155491803
4155498211
4155504376
4155511639
4155517987
4155524457
4155530926
4155536847
4155544415
4155551007
4155557171
4155563031
4155568951
4155574017
4155577679
4155583477
4155588116
4155592327
4155596722
4155600933
4155605511
4155609661
4155614483
4155619122
4155623455
4155628765
4155633892
4155638226
4155642376
4155646527
4155651104
4155655560
4155660443
4155665875
4155670147
4155675762
4155681194
4155684734
4155689983
4155695232
4155699932
4155706219
4155711102
4155717022
4155722027
4155725506
4155733501
4155736065
4155743389
4155747845
4155752727
4155756939
4155765057
4155768841
4155776470
4155781109
4155789959
4155793438
4155800945
4155805889
4155810344
4155816509
4155821697
4155826214
4155830913
4155835918
4155839641
4155845134
4155850078
4155855388
4155860759
4155864055
4155868999
4155873516
4155878032
4155882854
4155888469
4155893047
4155897747
4155902874
4155907817
4155912761
4155917827
4155923198
4155928203
4155933818
4155938762
4155942546
4155948467
4155952373
4155958354
4155962688
4155970073
4155975200
4155980205
4155985271
4155990337
4155993083
4156000896
4156006938
4156012614
4156017986
4156023357
4156029582
4156035258
4156040996
4156046855
4156052592
4156057963
4156063579
4156070293
4156077312
4156082805
4156085918
4156093364
4156098369
4156105632
4156110576
4156117534
4156122050
4156130107
4156136577
4156142619
4156146098
4156153849
4156159831
4156163981
4156170085
4156176554
4156181193
4156187724
4156192546
4156197856
4156205119
4156210551
4156215983
4156219035
4156227091
4156233378
4156237834
4156243083
4156250773
4156256877
4156262370
4156267924
4156272624
4156279643
4156284770
4156289958
4156298380
4156302958
4156310038
4156316386
4156321635
4156328043
4156332194
4156340189
4156345866
4156354655
4156360148
4156366984
4156372477
4156376810
4156381815
4156386271
4156393229
4156397501
4156403422
4156407267
4156413920
4156417826
4156423929
4156430643
4156436075
4156441507
4156447123
4156451273
4156457071
4156462626
4156466959
4156473551
4156477762
4156484598
4156489054
4156493936
4156499735
4156504740
4156509806
4156515360
4156524027
4156529520
4156534769
4156539896
4156544840
4156551615
4156555826
4156561258
4156566934
4156572550
4156578348
4156583719
4156589700
4156597208
4156601846
4156609048
4156612772
4156619669
4156622964
4156631998
4156638223
4156644266
4156647806
4156655862
4156661661
4156667947
4156672647
4156679544
4156685892
4156690408
4156695840
4156701944
4156707193
4156714578
4156720376
4156725992
4156732889
4156738565
4156744424
4156749002
4156755105
4156760782
4156768533
4156773355
4156779336
4156785379
4156789712
4156796243
4156800943
4156805886
4156812844
4156817666
4156824136
4156827798
4156834207
4156840310
4156844399
4156849526
4156857522
4156862466
4156869363
4156875100
4156881081
4156884194
4156893105
4156896523
4156905190
4156912209
4156918923
4156924905
4156931313
4156936379
4156942788
4156948769
4156956765
4156962624
4156968178
4156972939
4156978554
4156983010
4156989724
4156994485
4157001076
4157007729
4157013283
4157017617
4157022927
4157028664
4157033913
4157038674
4157046608
4157051430
4157057595
4157061745
4157066689
4157072914
4157077858
4157082802
4157090615
4157095742
4157101662
4157106667
4157111977
4157117531
4157122597
4157128090
4157131325
4157138649
4157145241
4157150673
4157155312
4157160988
4157166603
4157170143
4157177651
4157185829
4157191078
4157196022
4157202187
4157206276
4157213356
4157217567
4157223854
4157229897
4157237343
4157242592
4157248207
4157254311
4157258705
4157265541
4157269203
4157276832
4157283729
4157290443
4157295021
4157300453
4157305824
4157312843
4157316688
4157323402
4157328407
4157334083
4157338783
4157345497
4157349769
4157355140
4157359596
4157365577
4157373512
4157378700
4157383461
4157388954
4157393592
4157399879
4157405250
4157410682
4157416908
4157422218
4157428199
4157433326
4157438270
4157449073
4157454261
4157460060
4157466163
4157473975
4157478248
4157485023
4157490516
4157496314
4157501197
4157507667
4157513282
4157521339
4157529334
4157535133
4157539893
4157547340
4157551307
4157557899
4157563148
4157568641
4157571387
4157579871
4157584754
4157590064
4157595069
4157600562
4157605506
4157612464
4157617103
4157623877
4157628089
4157634009
4157639808
4157643531
4157650306
4157654578
4157661231
4157665442
4157671912
4157676734
4157681494
4157687964
4157692725
4157700415
4157705603
4157711096
4157717566
4157721411
4157728308
4157732154
4157737647
4157744299
4157749915
4157755469
4157761023
4157767554
4157774085
4157780737
4157787878
4157792029
4157800147
4157806799
4157813513
4157819312
4157825354
4157829993
4157837378
4157842383
4157848242
4157855261
4157860815
4157865027
4157870764
4157875220
4157881750
4157887671
4157893469
4157900122
4157905798
4157909704
4157915869
4157921728
4157927710
4157931311
4157939734
4157945227
4157950659
4157957006
4157961035
4157967871
4157973181
4157978552
4157984533
4157991613
4157996191
4158002905
4158007482
4158012609
4158018530
4158023474
4158030004
4158037512
4158043371
4158049658
4158054907
4158059789
4158065771
4158074011
4158082739
4158090856
4158099096
4158108923
4158117773
4158123998
4158133520
4158141027
4158148534
4158159460
4158168493
4158175512
4158182409
4158188939
4158194494
4158200414
4158206640
4158213598
4158222448
4158230199
4158235753
4158243566
4158251989
4158260289
4158265599
4158275121
4158282506
4158291722
4158299962
4158305333
4158313207
4158321385
4158327672
4158334447
4158342076
4158350255
4158355443
4158366673
4158371800
4158382298
4158389500
4158397862
4158405980
4158413609
4158423192
4158432957
4158440160
4158448216
4158455235
4158463902
4158469212
4158480809
4158488743
4158495884
4158504612
4158513218
4158522740
4158526707
4158536168
4158542576
4158547215
4158555638
4158559788
4158571141
4158577977
4158582920
4158593174
4158598179
4158606724
4158613865
4158620152
4158626377
4158633152
4158639683
4158648228
4158656590
4158663670
4158670017
4158678501
4158682713
4158692234
4158694370
4158704868
4158711216
4158721714
4158728062
4158735142
4158741306
4158746311
4158754185
4158758396
4158768223
4158775303
4158782993
4158790561
4158797580
4158804783
4158812107
4158818210
4158824802
4158832493
4158840854
4158850681
4158856296
4158864475
4158870761
4158877780
4158885410
4158893466
4158900241
4158907138
4158914585
4158922519
4158931674
4158941318
4158948764
4158957065
4158966586
4158974155
4158981174
4158988803
4158997592
4159005283
4159013339
4159022250
4159029208
4159036288
4159041232
4159047580
4159055820
4159062167
4159067660
4159074191
4159078586
4159085666
4159091586
4159096652
4159103976
4159109530
4159115878
4159121371
4159128146
4159133456
4159136508
4159145541
4159148959
4159157565
4159162936
4159168734
4159174227
4159181918
4159187472
4159193331
4159200045
4159205111
4159210299
4159218356
4159224154
4159229830
4159235995
4159242587
4159246005
4159254427
4159259554
4159266451
4159270602
4159276827
4159283175
4159287264
4159293917
4159298434
4159305331
4159310152
4159315279
4159320895
4159326022
4159330416
4159337740
4159344271
4159349703
4159354525
4159359530
4159364962
4159372225
4159377169
4159384615
4159391268
4159397677
4159402071
4159409578
4159414278
4159421053
4159426363
4159431612
4159439425
4159444613
4159450655
4159456270
4159462191
4159467867
4159470797
4159479280
4159482515
4159490389
4159494661
4159501070
4159505342
4159511751
4159516023
4159522493
4159527315
4159534822
4159539888
4159546358
4159552522
4159557955
4159562105
4159567964
4159574617
4159580782
4159588411
4159595918
4159600679
4159608492
4159613924
4159619234
4159626863
4159634004
4159638460
4159644807
4159649751
4159654878
4159659517
4159666475
4159671419
4159676179
4159681428
4159686799
4159692720
4159698152
4159702852
4159708406
4159713044
4159721223
4159726472
4159732026
4159736360
4159740449
4159746736
4159752656
4159759126
4159764863
4159771028
4159775239
4159781709
4159785554
4159791658
4159796418
4159802705
4159808442
4159815156
4159819795
4159826631
4159830537
4159835847
4159841462
4159846772
4159854646
4159859895
4159864655
4159870515
4159879182
4159885163
4159891450
4159897065
4159901765
4159907746
4159912263
4159919648
4159923859
4159930207
4159934418
4159939301
4159945710
4159951203
4159957490
4159962556
4159967621
4159972931
4159977753
4159982819
4159988312
4159994721
4159999726
4160005646
4160011200
4160017609
4160022553
4160027131
4160031891
4160038849
4160045929
4160051606
4160055573
4160061676
4160067353
4160071381
4160078156
4160084931
4160089569
4160096466
4160100312
4160106110
4160111786
4160117035
4160120087
4160128815
4160135163
4160144684
4160152557
4160156342
4160167694
4160176849
4160185028
4160191498
4160196259
4160201813
4160208771
4160213654
4160219940
4160224884
4160230987
4160235321
4160240143
4160245636
4160250213
4160254791
4160260223
4160266693
4160272247
4160277008
4160283661
4160287262
4160294098
4160296905
4160303802
4160308380
4160315826
4160320404
4160326751
4160331512
4160337555
4160343292
4160348236
4160354583
4160360199
4160367157
4160370819
4160377044
4160382110
4160387359
4160392730
4160397796
4160401336
4160409454
4160415069
4160420684
4160428253
4160434539
4160441863
4160447601
4160455047
4160461211
4160466766
4160473113
4160477081
4160484954
4160490752
4160496856
4160501617
4160509734
4160515044
4160520721
4160525298
4160532622
4160537200
4160542815
4160547149
4160555266
4160560332
4160566009
4160569976
4160578399
4160584502
4160589080
4160595122
4160602019
4160607879
4160613311
4160618682
4160624663
4160628814
4160634795
4160639312
4160646636
4160651946
4160659026
4160662871
4160668486
4160674102
4160677886
4160685027
4160691680
4160697783
4160704009
4160709258
4160714568
4160720366
4160726592
4160731291
4160737395
4160745879
4160755278
4160760100
4160768034
4160773100
4160778838
4160785002
4160792143
4160799651
4160804472
4160810027
4160816313
4160820891
4160825896
4160832426
4160838469
4160842985
4160849211
4160855009
4160859160
4160865568
4160871733
4160876127
4160883207
4160887907
4160892912
4160897978
4160904081
4160908964
4160914213
4160919035
4160925627
4160931059
4160935331
4160940641
4160944792
4160951445
4160955717
4160962187
4160967131
4160973905
4160979765
4160985014
4160989347
4160994108
4161000456
4161006132
4161010588
4161016325
4161022489
4161027738
4161032560
4161037382
4161042753
4161047941
4161053312
4161058805
4161064115
4161068327
4161076139
4161080778
4161086210
4161090910
4161096708
4161101896
4161110502
4161115995
4161121915
4161128751
4161133756
4161138212
4161144315
4161149076
4161157072
4161162687
4161168058
4161173978
4161179166
4161184110
4161186796
4161193326
4161198148
4161205655
4161211820
4161217191
4161221097
4161227323
4161231656
4161237272
4161241666
4161247342
4161254544
4161259610
4161264249
4161269498
4161274747
4161280301
4161286283
4161292264
4161298368
4161306729
4161313138
4161320157
4161326688
4161333585
4161343106
4161358243
4161363309
4161369290
4161376126
4161381131
4161384671
4161389310
4161392606
4161397916
4161402005
4161405423
4161412808
4161416836
4161422574
4161427640
4161431973
4161435635
4161441250
4161445035
4161450772
4161454983
4161460660
4161465787
4161470486
4161475125
4161479641
4161483792
4161490384
4161496060
4161502224
4161506375
4161511563
4161516873
4161522610
4161528042
4161534634
4161540188
4161545864
4161551419
4161556912
4161562954
4161567349
4161573819
4161578396
4161583462
4161588223
4161593472
4161597561
4161603909
4161609951
4161615200
4161620144
4161625271
4161628079
4161635830
4161638577
4161645657
4161648464
4161658108
4161663906
4161669277
4161676540
4161681545
4161689358
4161693203
4161702114
4161708706
4161714992
4161720608
4161726650
4161732754
4161738796
4161746548
4161752285
4161757717
4161763271
4161769069
4161774380
4161777492
4161784450
4161790066
4161797268
4161804470
4161811855
4161817653
4161823879
4161832363
4161839992
4161848049
4161857631
4161865749
4161876796
4161884059
4161893398
4161903530
4161910488
4161920009
4161930812
4161938991
4161945888
4161952846
4161960536
4161966151
4161972499
4161979030
4161986659
4161994106
4162001247
4162008571
4162014369
4162021144
4162028163
4162037440
4162044032
4162049403
4162056788
4162065455
4162072352
4162080043
4162086513
4162092738
4162103053
4162108607
4162116237
4162123805
4162131678
4162138209
4162143336
4162150416
4162158412
4162165492
4162169642
4162178370
4162184840
4162191981
4162199549
4162205287
4162212977
4162219508
4162227015
4162233241
4162240016
4162247401
4162255702
4162264246
4162272547
4162279810
4162286768
4162295191
4162302576
4162310572
4162319300
4162327296
4162334315
4162340906
4162350062
4162357447
4162365748
4162371485
4162380457
4162386988
4162394495
4162403284
4162410181
4162417994
4162426844
4162434778
4162442652
4162447535
4162454370
4162464991
4162470056
4162480005
4162486536
4162491541
4162499903
4162505884
4162513025
4162518823
4162526453
4162536279
4162544275
4162551111
4162560083
4162566370
4162572473
4162581201
4162586389
4162593652
4162603357
4162611597
4162616113
4162626794
4162633508
4162639795
4162649927
4162657129
4162664697
4162675195
4162681421
4162687829
4162694238
4162704065
4162710290
4162719018
4162729150
4162737146
4162746484
4162757409
4162763879
4162772668
4162782312
4162795495
4162802453
4162809411
4162817285
4162821679
4162828698
4162833459
4162838891
4162845544
4162850427
4162857262
4162862695
4162866967
4162873681
4162878136
4162884423
4162889489
4162895104
4162901208
4162905663
4162911767
4162917382
4162923546
4162929101
4162935570
4162941735
4162946984
4162951562
4162957604
4162963341
4162969201
4162974572
4162979577
4162986657
4162991051
4162996605
4163002709
4163008385
4163013146
4163018151
4163025109
4163029747
4163034874
4163040551
4163046593
4163050316
4163055931
4163060570
4163066307
4163071678
4163075463
4163081505
4163086815
4163092064
4163095726
4163103478
4163110436
4163116234
4163121605
4163125939
4163133507
4163139183
4163143639
4163149315
4163154564
4163160057
4163164024
4163169762
4163176109
4163182640
4163187645
4163193504
4163200767
4163206139
4163212852
4163219688
4163224388
4163231163
4163236046
4163243248
4163246178
4163254906
4163262230
4163268394
4163275413
4163283653
4163291099
4163300255
4163305442
4163316429
4163328941
4163338890
4163345359
4163356102
4163362876
4163370262
4163376609
4163384300
4163392051
4163397727
4163404075
4163411643
4163418601
4163427329
4163434165
4163438682
4163446494
4163452903
4163461631
4163470542
4163475303
4163482505
4163488731
4163496604
4163500449
4163510764
4163517478
4163526267
4163533103
4163537864
4163545798
4163551841
4163559775
4163565574
4163571738
4163578818
4163587607
4163592978
4163596946
4163606711
4163612815
4163618491
4163628073
4163632712
4163641196
4163649680
4163656455
4163663352
4163672263
4163678794
4163685385
4163692832
4163697470
4163706748
4163714133
4163724997
4163731101
4163736044
4163744528
4163751364
4163758994
4163764548
4163770651
4163778647
4163788473
4163793051
4163798300
4163804404
4163808798
4163815329
4163820822
4163825766
4163830954
4163836752
4163839987
4163849020
4163855856
4163861654
4163867026
4163877951
4163884543
4163891317
4163895651
4163902731
4163908896
4163914450
4163920004
4163925741
4163931845
4163937948
4163941427
4163949118
4163955526
4163959799
4163965963
4163970480
4163977377
4163983297
4163990682
4163995260
4164000753
4164006552
4164013143
4164020162
4164026815
4164030538
4164040731
4164045919
4164052145
4164057882
4164061849
4164068807
4164074972
4164078451
4164085653
4164090292
4164096639
4164100790
4164106954
4164111104
4164117391
4164121664
4164130269
4164134786
4164138997
4164145406
4164151021
4164156026
4164161703
4164166646
4164171651
4164179036
4164183553
4164190633
4164196492
4164201741
4164208455
4164214193
4164219320
4164225728
4164230428
4164237508
4164242574
4164249471
4164255757
4164261129
4164267659
4164275533
4164284200
4164287435
4164294209
4164298421
4164305013
4164309224
4164316915
4164321858
4164328267
4164332662
4164338399
4164344258
4164347676
4164354756
4164360188
4164367390
4164372212
4164377827
4164384480
4164390767
4164393880
4164401448
4164406392
4164416768
4164422261
4164428181
4164433552
4164438435
4164445698
4164450520
4164455769
4164463948
4164469746
4164474141
4164480000
4164485493
4164491597
4164496235
4164503621
4164508870
4164515706
4164521199
4164526204
4164533100
4164537617
4164544453
4164546162
4164554402
4164563496
4164568928
4164574726
4164580952
4164584187
4164592121
4164598652
4164603352
4164609883
4164617451
4164622639
4164630940
4164636799
4164642841
4164648335
4164655109
4164661640
4164668171
4164675800
4164681599
4164685871
4164692036
4164697773
4164701984
4164707844
4164713337
4164719074
4164723957
4164729877
4164734943
4164740497
4164745380
4164752399
4164757526
4164762714
4164768207
4164774494
4164779865
4164784748
4164790180
4164794880
4164802326
4164808735
4164814167
4164819721
4164823749
4164830158
4164834247
4164840290
4164846698
4164851703
4164858417
4164864398
4164868244
4164875629
4164879901
4164886554
4164894245
4164900104
4164905841
4164911273
4164917072
4164923175
4164929035
4164934955
4164940753
4164947345
4164952594
4164956928
4164963886
4164968707
4164975665
4164981219
4164986896
4164993060
4164999103
4165005023
4165011676
4165019366
4165025775
4165031817
4165040790
4165047564
4165054217
4165059649
4165065875
4165072711
4165078753
4165082049
4165089923
4165094806
4165102801
4165108111
4165112933
4165120013
4165125262
4165130938
4165138446
4165144732
4165150531
4165156695
4165163287
4165167926
4165175067
4165179766
4165186175
4165192217
4165196917
4165204180
4165211443
4165216021
4165223040
4165229266
4165236102
4165241473
4165248431
4165253924
4165261980
4165267779
4165273394
4165280718
4165286272
4165293597
4165297991
4165302569
4165308062
4165313006
4165318865
4165322954
4165329119
4165334551
4165340655
4165345598
4165351214
4165357317
4165361590
4165367571
4165372027
4165378435
4165382830
4165389177
4165395342
4165399492
4165406023
4165410479
4165416704
4165420610
4165427019
4165433855
4165439104
4165444292
4165450701
4165454485
4165459917
4165465166
4165470842
4165477068
4165483415
4165489153
4165495256
4165500994
4165506304
4165513628
4165519182
4165524614
4165533281
4165539201
4165545305
4165550676
4165555376
4165561418
4165567339
4165573259
4165578813
4165585832
4165590898
4165597551
4165602251
4165607622
4165614458
4165619707
4165625017
4165631364
4165638566
4165643693
4165649248
4165657365
4165664384
4165670305
4165680192
4165682878
4165695695
4165700822
4165708757
4165717302
4165725846
4165733171
4165741777
4165748613
4165756913
4165765641
4165771562
4165781388
4165789018
4165795487
4165804032
4165809037
4165820939
4165829118
4165838822
4165845170
4165851334
4165858842
4165866776
4165873063
4165879594
4165886674
4165894303
4165904618
4165913285
4165921342
4165930192
4165935929
4165948807
4165954789
4165968155
4165975724
4165984635
4165993363
4166005265
4166012162
4166020340
4166027970
4166032852
4166041581
4166048661
4166059403
4166066483
4166072342
4166079666
4166083878
4166094254
4166100540
4166106644
4166113663
4166122940
4166131058
4166137589
4166145157
4166149063
4166157669
4166163467
4166168289
4166175796
4166183853
4166192093
4166198746
4166204361
4166210647
4166218399
4166225967
4166231949
4166239517
4166243667
4166253677
4166260025
4166265823
4166272964
4166279373
4166286758
4166292923
4166300613
4166306900
4166313369
4166322952
4166329788
4166334732
4166342483
4166348281
4166357254
4166361831
4166369766
4166379531
4166388748
4166393508
4166403762
4166411392
4166422256
4166429885
4166440322
4166447768
4166456252
4166464126
4166473464
4166480605
4166488052
4166494460
4166505874
4166508437
4166521316
4166526320
4166537185
4166544814
4166552810
4166560439
4166565322
4166573439
4166580031
4166588149
4166594985
4166603713
4166611892
4166620375
4166626540
4166633803
4166640334
4166647963
4166652663
4166669264
4166674147
4166684462
4166691664
4166696913
4166707106
4166711562
4166719801
4166726332
4166734816
4166741286
4166749464
4166759596
4166765944
4166773146
4166780287
4166789137
4166796156
4166803847
4166811354
4166820204
4166827955
4166833937
4166842543
4166852980
4166857618
4166863539
4166870802
4166879286
4166884840
4166889723
4166894728
4166898878
4166904982
4166910597
4166917006
4166923719
4166928663
4166933241
4166939527
4166945387
4166949842
4166955213
4166960096
4166968763
4166973280
4166978041
4166983961
4166988600
4166995374
4167000501
4167005567
4167014051
4167018324
4167022901
4167029676
4167035291
4167040296
4167046095
4167051038
4167056715
4167061964
4167067335
4167074842
4167081739
4167088270
4167094861
4167101819
4167109632
4167115247
4167123243
4167129041
4167134168
4167142408
4167148572
4167154737
4167161634
4167167615
4167171094
4167178907
4167184156
4167192151
4167197217
4167202222
4167209668
4167218030
4167222791
4167228955
4167234143
4167237256
4167245191
4167251844
4167256299
4167260938
4167269544
4167274671
4167281262
4167286328
4167291577
4167298596
4167303723
4167309155
4167312512
4167323010
4167326611
4167334912
4167338757
4167350598
4167357983
4167365369
4167369824
4167379040
4167385510
4167391919
4167402905
4167411023
4167419507
4167424512
4167434216
4167441845
4167450757
4167462719
4167469861
4167476757
4167486889
4167493542
4167500744
4167509533
4167517651
4167523754
4167533154
4167541271
4167550366
4167557080
4167562817
4167572216
4167578259
4167585400
4167589855
4167599804
4167607678
4167613537
4167622204
4167630261
4167635876
4167643200
4167649303
4167659435
4167667431
4167673290
4167680126
4167685436
4167690563
4167697887
4167703197
4167708385
4167714428
4167721020
4167726085
4167731090
4167736278
4167741283
4167745983
4167752819
4167758007
4167764049
4167769542
4167775280
4167778453
4167786022
4167790355
4167797069
4167801403
4167808849
4167814769
4167818553
4167824901
4167830516
4167835521
4167839550
4167846263
4167851695
4167858470
4167862926
4167869701
4167875438
4167881420
4167890025
4167895519
4167902232
4167909862
4167914378
4167919750
4167926830
4167932811
4167937877
4167944164
4167950023
4167956065
4167962169
4167967967
4167973765
4167979991
4167985118
4167992381
4167997264
4168004466
4168011363
4168016490
4168020579
4168027598
4168031444
4168038279
4168042979
4168049327
4168055674
4168061534
4168067210
4168073680
4168076854
4168084971
4168092906
4168100962
4168109446
4168115184
4168121592
4168131907
4168140147
4168148448
4168154246
4168164073
4168173472
4168181468
4168188487
4168197093
4168203684
4168214304
4168225047
4168237132
4168241770
4168251902
4168258494
4168265147
4168275034
4168282358
4168289439
4168296702
4168304331
4168308909
4168320078
4168324534
4168334238
4168340891
4168347849
4168354807
4168361094
4168369150
4168373911
4168386179
4168392466
4168398813
4168406260
4168413950
4168419199
4168425669
4168434885
4168441294
4168449716
4168458017
4168464121
4168470529
4168476816
4168486337
4168493112
4168497629
4168506052
4168510568
4168521738
4168528330
4168535471
4168542123
4168547556
4168560251
4168566293
4168572580
4168581857
4168589365
4168595529
4168602487
4168612436
4168619211
4168626047
4168633798
4168641366
4168645883
4168657480
4168662057
4168669442
4168679574
4168685434
4168693490
4168700998
4168707711
4168716256
4168724801
4168734445
4168740243
4168749276
4168757455
4168765450
4168772714
4168781808
4168790353
4168799203
4168807382
4168812814
4168822579
4168830087
4168838937
4168846322
4168853768
4168861947
4168866647
4168877083
4168883919
4168890145
4168897652
4168903268
4168911629
4168918892
4168927498
4168934456
4168944100
4168950631
4168958626
4168965218
4168971932
4168978096
4168988411
4168990731
4169001839
4169009407
4169016732
4169026741
4169035530
4169044319
4169052071
4169058602
4169065804
4169075081
4169082649
4169094246
4169105965
4169114815
4169119148
4169128426
4169134163
4169140205
4169146980
4169154854
4169161201
4169165840
4169173408
4169179146
4169184456
4169188850
4169194282
4169198738
4169207771
4169213508
4169217842
4169224129
4169228096
4169233833
4169238228
4169244636
4169252449
4169259407
4169264717
4169268989
4169274910
4169279426
4169284492
4169290962
4169297432
4169302375
4169306831
4169313362
4169318794
4169324165
4169328987
4169334968
4169338203
4169347907
4169351386
4169358039
4169362678
4169369453
4169374397
4169379585
4169386421
4169392951
4169399665
4169404426
4169410224
4169416694
4169422675
4169428169
4169434333
4169441108
4169446845
4169452033
4169462226
4169467841
4169473395
4169478950
4169485053
4169490241
4169497321
4169503364
4169508674
4169511909
4169519111
4169524360
4169529914
4169539435
4169545051
4169553351
4169558234
4169563666
4169570258
4169575141
4169582282
4169588507
4169596015
4169604621
4169610236
4169617926
4169623297
4169630561
4169638495
4169642951
4169648871
4169653021
4169656928
4169665351
4169670050
4169677741
4169684027
4169691107
4169697211
4169703558
4169708441
4169714972
4169719428
4169727118
4169732977
4169739203
4169744452
4169749762
4169754584
4169759833
4169763373
4169769598
4169775397
4169782172
4169787115
4169792303
4169797613
4169802679
4169808844
4169813849
4169816961
4169826910
4169832098
4169838812
4169843817
4169849188
4169854193
4169858221
4169865301
4169872198
4169877020
4169882574
4169888250
4169894171
4169898687
4169903692
4169909979
4169914740
4169921453
4169925970
4169932318
4169937567
4169942938
4169948065
4169954168
4169959722
4169968023
4169973333
4169979376
4169984808
4169991277
4169996160
4170002996
4170007696
4170015386
4170019415
4170025518
4170029791
4170035467
4170040594
4170046941
4170052251
4170055852
4170064214
4170069585
4170074895
4170079839
4170087835
4170092657
4170098882
4170102971
4170109563
4170115850
4170121282
4170125738
4170130681
4170137761
4170142827
4170147771
4170156377
4170161931
4170167424
4170174077
4170179143
4170186284
4170192693
4170197698
4170204717
4170212468
4170218083
4170223455
4170229375
4170234990
4170238103
4170246465
4170249822
4170259526
4170265691
4170274297
4170279607
4170286687
4170292668
4170299504
4170305058
4170313969
4170319707
4170327275
4170333623
4170339116
4170343510
4170349065
4170355473
4170361150
4170366276
4170371648
4170375798
4170382023
4170387944
4170393437
4170397954
4170405583
4170410161
4170415837
4170422429
4170427983
4170432194
4170438603
4170442936
4170449162
4170455510
4170460576
4170466496
4170471745
4170476262
4170481816
4170486637
4170491948
4170500004
4170505619
4170511418
4170514897
4170523442
4170528385
4170535099
4170539616
4170548222
4170555119
4170559757
4170566471
4170570988
4170578312
4170583195
4170589176
4170592655
4170602421
4170609562
4170615543
4170618839
4170626713
4170631596
4170638554
4170643375
4170651249
4170656254
4170662235
4170667423
4170673405
4170680607
4170685551
4170691044
4170697208
4170704471
4170709659
4170715275
4170721195
4170727298
4170730350
4170737430
4170742252
4170751407
4170756656
4170763675
4170768314
4170773441
4170778995
4170785709
4170791385
4170795841
4170803165
4170807437
4170815433
4170821048
4170827091
4170832340
4170836856
4170843204
4170852054
4170856998
4170861026
4170868228
4170873966
4170879642
4170887821
4170893619
4170902469
4170909854
4170918155
4170922183
4170929996
4170935428
4170942508
4170947635
4170955630
4170959537
4170965701
4170970035
4170976260
4170981021
4170986514
4170991702
4170997561
4171002810
4171008426
4171014834
4171020144
4171025210
4171030703
4171035464
4171041751
4171046512
4171052554
4171058719
4171064334
4171068728
4171074527
4171078921
4171084780
4171091616
4171095889
4171102298
4171106753
4171111575
4171117129
4171122195
4171128482
4171135012
4171140383
4171145266
4171151064
4171156497
4171162051
4171166628
4171171755
4171181216
4171186587
4171192385
4171199221
4171206667
4171216860
4171223330
4171230105
4171236819
4171241213
4171247134
4171251772
4171258791
4171263796
4171270998
4171275759
4171284792
4171289858
4171296023
4171301027
4171306276
4171312563
4171317873
4171325014
4171331118
4171336733
4171341982
4171347902
4171354555
4171358950
4171363527
4171370974
4171375368
4171384218
4171390932
4171395571
4171400515
4171407900
4171411989
4171416933
4171421816
4171430727
4171435915
4171441774
4171448183
4171452638
4171456301
4171463442
4171469362
4171477907
4171486391
4171492067
4171499025
4171505495
4171511903
4171517763
4171524355
4171530641
4171540956
4171545595
4171551759
4171555788
4171561586
4171568239
4171572755
4171577028
4171582704
4171588319
4171593812
4171598146
4171604555
4171610719
4171617616
4171621888
4171628236
4171632509
4171638734
4171644044
4171649049
4171652223
4171660890
4171664674
4171671510
4171676027
4171681520
4171686891
4171692262
4171695069
4171702333
4171708680
4171714112
4171718446
4171723817
4171729554
4171734986
4171739747
4171747193
4171752137
4171757630
4171763001
4171769715
4171775147
4171780885
4171786805
4171791810
4171799867
4171805177
4171812013
4171816956
4171823548
4171828126
4171833924
4171839478
4171846436
4171853516
4171858399
4171865662
4171871522
4171879395
4171886719
4171892518
4171900452
4171905701
4171910950
4171915650
4171922486
4171927796
4171933106
4171936036
4171945435
4171952881
4171958252
4171962464
4171969483
4171973694
4171979065
4171981812
4171990723
4171997376
4172002808
4172008728
4172013794
4172020081
4172025391
4172029968
4172037659
4172044495
4172050415
4172056397
4172062805
