4259753560
4259759724
4259764790
4259769002
4259774922
4259779622
4259784077
4259789448
4259794514
4259799519
4259805134
4259810689
4259815999
4259822468
4259828450
4259834309
4259841023
4259845906
4259852376
4259858296
4259865681
4259871602
4259878743
4259884053
4259889668
4259896565
4259904499
4259911274
4259917866
4259922993
4259930134
4259938618
4259946919
4259952900
4259958576
4259965473
4259972431
4259980427
4259987446
4259994282
4260001423
4260008686
4260013508
4260021198
4260029987
4260038532
4260045185
4260052875
4260059467
4260066120
4260072285
4260079975
4260088459
4260095356
4260102253
4260114338
4260121174
4260129108
4260137897
4260146137
4260151264
4260159321
4260166767
4260175129
4260183857
4260191303
4260197773
4260207172
4260218830
4260226032
4260239459
4260249103
4260262226
4260270465
4260278339
4260286456
4260295245
4260301776
4260308856
4260317035
4260325031
4260334064
4260340228
4260347308
4260354510
4260359698
4260368732
4260376483
4260384906
4260391070
4260399310
4260404376
4260413226
4260421039
4260427630
4260435016
4260442950
4260451373
4260458331
4260466204
4260473834
4260482196
4260492022
4260497638
4260505572
4260513201
4260520709
4260528582
4260537310
4260543658
4260550555
4260558184
4260564715
4260573016
4260582171
4260588397
4260596392
4260602496
4260610735
4260617938
4260625506
4260633501
4260641680
4260647539
4260654314
4260661761
4260669573
4260676470
4260684893
4260692644
4260700457
4260708208
4260716387
4260723040
4260732439
4260739031
4260747576
4260755510
4260762590
4260773027
4260782915
4260791399
4260798174
4260806597
4260815142
4260822283
4260831987
4260839250
4260848223
4260859087
4260868791
4260876116
4260886369
4260898454
4260908037
4260916155
4260923357
4260932085
4260938982
4260947771
4260956560
4260964067
4260970964
4260977922
4260986162
4260992082
4261001909
4261008134
4261016679
4261023454
4261031267
4261039567
4261048295
4261055925
4261061235
4261070146
4261078141
4261085466
4261091630
4261099931
4261108232
4261114640
4261121232
4261129472
4261136491
4261145646
4261153642
4261161942
4261170304
4261177201
4261181901
4261192155
4261200517
4261208207
4261216325
4261223893
4261231278
4261237382
4261246049
4261254594
4261261979
4261269120
4261277543
4261286271
4261292740
4261299515
4261310135
4261316422
4261325821
4261332596
4261341202
4261348710
4261354874
4261366044
4261371354
4261380021
4261386551
4261394730
4261403458
4261411209
4261420121
4261427872
4261436051
4261442887
4261450394
4261459488
4261467056
4261476090
4261484451
4261491287
4261500565
4261507462
4261514908
4261521988
4261534927
4261542252
4261550247
4261558548
4261565933
4261572769
4261580582
4261589187
4261596939
4261604141
4261610977
4261617752
4261625381
4261633926
4261638931
4261643326
4261648025
4261652115
4261656265
4261660782
4261665481
4261674453
4261678909
4261683242
4261687332
4261691665
4261694900
4261699478
4261705520
4261709915
4261714187
4261717605
4261723342
4261727737
4261732070
4261736404
4261742935
4261747146
4261751235
4261755691
4261759719
4261764480
4261772353
4261777419
4261781692
4261787856
4261793289
4261797256
4261802017
4261807143
4261811477
4261815871
4261820876
4261825393
4261829299
4261833572
4261837417
4261840408
4261845351
4261850234
4261854446
4261858413
4261863784
4261867568
4261871902
4261876906
4261881423
4261886794
4261891860
4261895644
4261901320
4261905410
4261910537
4261915725
4261920424
4261925429
4261930129
4261934829
4261939467
4261944228
4261949843
4261956069
4261960891
4261966628
4261970839
4261974257
4261980056
4261984206
4261990187
4261996108
4262000197
4262004653
4262012343
4262018019
4262022963
4262031081
4262034316
4262043410
4262048110
4262055007
4262061049
4262065138
4262069960
4262076003
4262081435
4262084792
4262089797
4262094801
4262098280
4262103590
4262109694
4262114577
4262119154
4262123488
4262126967
4262132826
4262137587
4262141920
4262146986
4262153700
4262157973
4262163649
4262167738
4262172438
4262178114
4262184401
4262189345
4262193251
4262198927
4262203749
4262208388
4262212782
4262218580
4262225538
4262229506
4262235182
4262240614
4262244948
4262250197
4262254713
4262262587
4262267469
4262272718
4262277601
4262282972
4262287855
4262294935
4262300550
4262306349
4262311170
4262315382
4262320509
4262325636
4262333143
4262337904
4262344190
4262348524
4262352979
4262358412
4262363416
4262367933
4262372877
4262378858
4262383253
4262387464
4262392896
4262396681
4262401930
4262408460
4262413831
4262418409
4262422681
4262427503
4262431837
4262437452
4262441968
4262446058
4262451124
4262456495
4262462659
4262467664
4262473951
4262481702
4262487195
4262496107
4262502454
4262507642
4262512525
4262518995
4262524732
4262531263
4262536268
4262541333
4262546521
4262551770
4262556531
4262561597
4262566541
4262572156
4262577344
4262582593
4262587476
4262592115
4262596509
4262601880
4262607068
4262612622
4262619153
4262622998
4262628247
4262634473
4262639661
4262644422
4262650769
4262655957
4262661694
4262666638
4262670056
4262675366
4262681531
4262685803
4262691846
4262697461
4262701978
4262707288
4262712354
4262717297
4262721509
4262729077
4262733655
4262738782
4262744153
4262749524
4262756238
4262761182
4262765454
4262771130
4262776196
4262781628
4262785840
4262790722
4262796033
4262801404
4262805798
4262810559
4262815320
4262821423
4262827160
4262831860
4262836499
4262842114
4262847790
4262851391
4262858288
4262863171
4262867016
4262872754
4262878552
4262883801
4262888378
4262892346
4262899426
4262904064
4262909741
4262914685
4262918652
4262924206
4262929394
4262935742
4262942333
4262947216
4262953320
4262958325
4262968090
4262974072
4262979565
4262984692
4262990978
4262995068
4263001049
4263007092
4263013683
4263018505
4263023449
4263029980
4263034618
4263039257
4263045483
4263050610
4263055920
4263060497
4263067333
4263072094
4263077709
4263082958
4263087841
4263092480
4263097362
4263102428
4263107921
4263113292
4263118480
4263122936
4263128917
4263133922
4263139660
4263144909
4263151012
4263156261
4263161571
4263167919
4263172741
4263176586
4263182567
4263188243
4263194591
4263202343
4263206920
4263214122
4263219615
4263225292
4263231212
4263236461
4263245128
4263250438
4263255931
4263260814
4263264903
4263271617
4263275951
4263281383
4263287181
4263294566
4263300060
4263305248
4263310374
4263315379
4263320262
4263325328
4263331554
4263337840
4263344432
4263349437
4263354076
4263360240
4263364085
4263369639
4263377208
4263383861
4263389049
4263394664
4263399363
4263404368
4263409068
4263413707
4263420237
4263424144
4263431163
4263434825
4263440501
4263444896
4263449962
4263456614
4263464061
4263471202
4263479686
4263485362
4263490489
4263497447
4263504344
4263509349
4263514537
4263518138
4263523142
4263528697
4263532969
4263538828
4263545847
4263549998
4263555125
4263559763
4263565257
4263570811
4263575572
4263581431
4263586314
4263592722
4263596751
4263603159
4263608836
4263613779
4263621043
4263625986
4263632029
4263637278
4263643076
4263647898
4263653330
4263658396
4263664622
4263668589
4263673167
4263679880
4263683909
4263689097
4263694163
4263699167
4263704477
4263709788
4263712717
4263720163
4263726572
4263732065
4263737925
4263743723
4263750376
4263754343
4263759653
4263768259
4263773020
4263778574
4263783762
4263788950
4263793344
4263800180
4263804392
4263809397
4263814218
4263821115
4263826608
4263831796
4263835642
4263840952
4263845224
4263852976
4263857858
4263863229
4263869028
4263874033
4263879526
4263885690
4263892709
4263902658
4263906320
4263913278
4263920847
4263924509
4263934396
4263939950
4263946481
4263953622
4263958505
4263963937
4263969491
4263975412
4263986093
4263991342
4263996896
4264002206
4264007211
4264012094
4264018869
4264026986
4264033761
4264040170
4264047372
4264054696
4264060373
4264065133
4264070993
4264075936
4264081247
4264086007
4264091073
4264094613
4264099984
4264104623
4264109689
4264115975
4264120553
4264124887
4264129098
4264133554
4264138558
4264143075
4264149972
4264156075
4264160043
4264165841
4264169442
4264175729
4264180062
4264184701
4264191842
4264196297
4264202767
4264207040
4264212106
4264217538
4264221261
4264227792
4264233895
4264238717
4264244515
4264248360
4264253853
4264258065
4264263741
4264269051
4264273995
4264278756
4264283822
4264288460
4264293282
4264299019
4264305611
4264310189
4264314278
4264319527
4264323616
4264328560
4264334481
4264339486
4264344490
4264349556
4264354988
4264360115
4264366097
4264371163
4264375191
4264382637
4264387642
4264392586
4264398262
4264402657
4264406990
4264415108
4264421089
4264427681
4264432991
4264436897
4264445381
4264449471
4264455879
4264461617
4264466438
4264471932
4264476570
4264482857
4264487007
4264492744
4264498238
4264507271
4264512215
4264517586
4264525093
4264530647
4264535957
4264541511
4264548592
4264553352
4264560005
4264564278
4264569771
4264575081
4264580269
4264583320
4264589241
4264595466
4264600471
4264605598
4264611397
4264615730
4264621589
4264625618
4264631965
4264637520
4264642341
4264647468
4264652168
4264657112
4264662849
4264667793
4264672432
4264677009
4264683906
4264688850
4264693794
4264699043
4264704231
4264709358
4264714363
4264720100
4264727180
4264731941
4264737129
4264742988
4264748298
4264753974
4264758125
4264764533
4264770149
4264773261
4264780525
4264784919
4264790229
4264796333
4264803352
4264808540
4264815681
4264820502
4264825874
4264830878
4264836616
4264841621
4264846259
4264851630
4264857978
4264863837
4264868049
4264874396
4264879279
4264884955
4264890021
4264895392
4264902656
4264908088
4264912787
4264917731
4264923652
4264929206
4264934089
4264939399
4264945319
4264951056
4264956977
4264961066
4264967475
4264973334
4264977851
4264983527
4264987799
4264995307
4265000128
4265005377
4265011542
4265015998
4265021063
4265026923
4265032111
4265038458
4265044379
4265050482
4265055975
4265063056
4265068305
4265075140
4265081732
4265087042
4265093817
4265100897
4265105414
4265111822
4265118414
4265123175
4265127814
4265132513
4265138495
4265142706
4265147406
4265153326
4265157477
4265162237
4265168036
4265173102
4265177862
4265184027
4265188971
4265195257
4265200140
4265207159
4265212042
4265217718
4265223944
4265228827
4265234259
4265241644
4265245489
4265251348
4265255377
4265260931
4265267767
4265270880
4265276678
4265281500
4265287298
4265291998
4265296575
4265302801
4265309271
4265314886
4265319952
4265325872
4265331121
4265337042
4265341924
4265346380
4265352300
4265357488
4265363226
4265368719
4265374578
4265379461
4265384893
4265389166
4265396612
4265401556
4265406927
4265412359
4265418768
4265423772
4265429754
4265434637
4265438909
4265445989
4265450567
4265456243
4265461309
4265466741
4265472845
4265476873
4265482671
4265488225
4265493474
4265498967
4265505498
4265509160
4265515630
4265518926
4265525396
4265532293
4265537420
4265541265
4265548528
4265553533
4265558538
4265563237
4265568486
4265574651
4265580266
4265586064
4265590093
4265595891
4265601873
4265606938
4265612248
4265616460
4265625920
4265631291
4265639653
4265644170
4265651616
4265657597
4265662908
4265668340
4265673894
4265679814
4265684514
4265688725
4265695195
4265699284
4265705571
4265710698
4265715337
4265719914
4265726384
4265731084
4265736394
4265741460
4265746464
4265751713
4265757146
4265762272
4265767155
4265772648
4265777958
4265783269
4265788090
4265792241
4265797368
4265802739
4265807744
4265814091
4265819035
4265823185
4265828129
4265833989
4265840458
4265843388
4265850163
4265856083
4265862126
4265866642
4265871708
4265875614
4265883061
4265888310
4265891789
4265897770
4265903935
4265909001
4265914860
4265919682
4265927677
4265932804
4265937199
4265944462
4265950504
4265958134
4265962895
4265969914
4265975529
4265981022
4265987309
4265993107
4265999638
4266005497
4266012150
4266018070
4266022770
4266029728
4266036808
4266041386
4266046757
4266052494
4266056644
4266062076
4266068485
4266073246
4266078678
4266083927
4266090641
4266094242
4266099613
4266105716
4266111149
4266115726
4266122318
4266128727
4266134342
4266137516
4266144352
4266148685
4266155094
4266160709
4266167789
4266172306
4266177249
4266183658
4266187992
4266195194
4266199283
4266205448
4266210025
4266218204
4266224063
4266230045
4266235843
4266242740
4266247684
4266252322
4266258426
4266263614
4266269229
4266273807
4266278629
4266283389
4266287173
4266292850
4266297916
4266304324
4266309573
4266314151
4266318729
4266324100
4266328372
4266334659
4266339419
4266346194
4266350284
4266356448
4266360660
4266367679
4266374148
4266380008
4266385806
4266391299
4266396792
4266402224
4266406924
4266412906
4266417483
4266421939
4266429141
4266436160
4266442141
4266447085
4266454348
4266459597
4266465335
4266471377
4266478335
4266483889
4266489505
4266495608
4266501467
4266505618
4266511294
4266517581
4266524172
4266528872
4266534487
4266539553
4266545352
4266550234
4266554629
4266561038
4266566348
4266573306
4266578555
4266584231
4266590151
4266595950
4266600954
4266606203
4266611391
4266616946
4266622195
4266627749
4266633486
4266639406
4266644411
4266649782
4266652651
4266661928
4266667360
4266672182
4266676943
4266683779
4266687685
4266693850
4266698305
4266704714
4266711306
4266715700
4266722109
4266726931
4266732058
4266737062
4266742617
4266748232
4266757875
4266762392
4266770449
4266775820
4266782534
4266787722
4266793825
4266800173
4266806581
4266811403
4266817629
4266822206
4266827516
4266831667
4266836794
4266842287
4266848085
4266852602
4266857546
4266861757
4266867983
4266873048
4266878114
4266882082
4266887514
4266892824
4266897951
4266904970
4266910097
4266914125
4266919374
4266924013
4266929689
4266935853
4266941591
4266945680
4266950868
4266955690
4266961549
4266966737
4266971803
4266978822
4266983644
4266988832
4266994752
4267000490
4267005678
4267011720
4267016969
4267022584
4267027711
4267034608
4267039613
4267045716
4267051393
4267054811
4267061158
4267069276
4267073793
4267079103
4267084169
4267089601
4267096009
4267099732
4267105348
4267110963
4267116700
4267122010
4267127931
4267134095
4267139588
4267144654
4267150086
4267155335
4267161805
4267167542
4267173097
4267179200
4267185059
4267189637
4267194032
4267200623
4267206544
4267211488
4267218140
4267222413
4267229615
4267234009
4267239503
4267245240
4267252564
4267256959
4267262330
4267267212
4267272156
4267281861
4267287110
4267294312
4267300293
4267305176
4267309937
4267315491
4267322022
4267327881
4267334534
4267338868
4267347901
4267354431
4267360169
4267366394
4267372315
4267377686
4267380188
4267389710
4267394654
4267399597
4267404358
4267409546
4267415283
4267420716
4267426941
4267433045
4267437805
4267443298
4267448731
4267454224
4267458862
4267464172
4267469971
4267476074
4267481445
4267486267
4267490906
4267496277
4267501892
4267507019
4267511658
4267518310
4267523193
4267528137
4267532410
4267538330
4267544006
4267547912
4267554993
4267560669
4267567077
4267572571
4267577575
4267582641
4267588135
4267593445
4267599365
4267605041
4267609985
4267614929
4267621826
4267626587
4267632324
4267638183
4267645446
4267650695
4267656250
4267661438
4267666259
4267673217
4267680114
4267687194
4267692748
4267697631
4267703369
4267708190
4267712097
4267718383
4267722045
4267729308
4267735717
4267740905
4267746826
4267751464
4267756957
4267761840
4267767272
4267775146
4267780883
4267786010
4267792052
4267797912
4267802856
4267808349
4267811217
4267819701
4267825378
4267830749
4267835815
4267841735
4267845519
4267850280
4267855529
4267863891
4267869567
4267878051
4267884032
4267889525
4267895446
4267901976
4267907775
4267913207
4267919494
4267925231
4267929931
4267935546
4267940001
4267945128
4267950743
4267956664
4267961302
4267967345
4267971678
4267975951
4267982299
4267986266
4267993529
4267998107
4268004515
4268008788
4268014403
4268019347
4268024413
4268030272
4268036009
4268041258
4268046629
4268052306
4268057555
4268062926
4268068297
4268071715
4268077757
4268081847
4268086607
4268092711
4268097044
4268101805
4268107848
4268112913
4268118895
4268124205
4268130064
4268135802
4268141295
4268147032
4268151793
4268157164
4268163023
4268169249
4268174559
4268180113
4268185362
4268188719
4268193846
4268200804
4268205320
4268210264
4268216856
4268222227
4268227415
4268233946
4268239439
4268244688
4268250059
4268256041
4268262693
4268268248
4268272520
4268278013
4268283934
4268287779
4268294493
4268298765
4268306822
4268309873
4268316953
4268321714
4268328306
4268334715
4268338926
4268345518
4268351499
4268356748
4268361509
4268368528
4268373411
4268378843
4268383176
4268388670
4268391599
4268400205
4268403623
4268410581
4268414915
4268420347
4268425962
4268432310
4268437864
4268445249
4268453855
4268460142
4268464719
4268471006
4268477109
4268483335
4268488523
4268493284
4268499692
4268503843
4268509824
4268513730
4268518735
4268524411
4268529721
4268535154
4268540586
4268545346
4268550534
4268555539
4268561032
4268565183
4268570066
4268575986
4268583066
4268586057
4268592588
4268596616
4268603269
4268607419
4268612668
4268619138
4268624021
4268629941
4268634885
4268639645
4268645688
4268650632
4268655270
4268660580
4268666013
4268672604
4268678037
4268683774
4268690060
4268694394
4268700253
4268705746
4268709958
4268716977
4268721615
4268725705
4268732175
4268737729
4268742612
4268746884
4268752438
4268757443
4268764828
4268769772
4268775570
4268780819
4268786557
4268792416
4268796628
4268801022
4268809201
4268814267
4268819760
4268824032
4268828976
4268835263
4268840512
4268845517
4268850582
4268858761
4268863034
4268868771
4268874874
4268880734
4268884945
4268890499
4268895077
4268903744
4268908444
4268913876
4268918270
4268924557
4268928829
4268934628
4268939755
4268945187
4268951778
4268955990
4268961300
4268965633
4268972775
4268977840
4268984127
4268987484
4268996578
4269003475
4269012203
4269017696
4269024654
4269030025
4269037472
4269044735
4269053036
4269060055
4269065059
4269070431
4269075435
4269080929
4269085994
4269088741
4269096431
4269102291
4269107540
4269112423
4269117733
4269122127
4269128841
4269132564
4269138973
4269144710
4269149654
4269152523
4269158260
4269163021
4269169368
4269174190
4269181453
4269187679
4269192501
4269199214
4269204463
4269210994
4269214961
4269221248
4269228572
4269234554
4269239253
4269243831
4269249141
4269255428
4269261348
4269265620
4269272639
4269277644
4269282649
4269288387
4269295894
4269301387
4269306758
4269312984
4269319209
4269325008
4269330745
4269336543
4269342036
4269345088
4269352900
4269357478
4269365169
4269370906
4269376765
4269381465
4269387446
4269392634
4269397395
4269404536
4269408748
4269416560
4269421199
4269428462
4269432368
4269438472
4269445491
4269451045
4269456233
4269461543
4269467158
4269472407
4269477839
4269484675
4269489985
4269494685
4269500788
4269508601
4269513056
4269519038
4269524775
4269531001
4269536738
4269539729
4269547663
4269552790
4269557795
4269564448
4269570063
4269575251
4269581293
4269587885
4269593745
4269599360
4269606135
4269610224
4269617976
4269623408
4269630366
4269635432
4269640131
4269645685
4269650446
4269656367
4269662348
4269667475
4269672175
4269678217
4269683283
4269689081
4269694025
4269699396
4269704523
4269709467
4269715082
4269721430
4269727289
4269733515
4269739557
4269744440
4269749506
4269754450
4269759882
4269764887
4269770502
4269776605
4269782038
4269786554
4269791986
4269797602
4269803095
4269808038
4269815607
4269820184
4269826349
4269830927
4269836908
4269841364
4269846430
4269852899
4269858209
4269863458
4269869318
4269876215
4269881158
4269885797
4269890375
4269897211
4269901239
4269908685
4269913568
4269919183
4269925104
4269930902
4269935785
4269941278
4269944147
4269951288
4269956170
4269962701
4269967340
4269973199
4269979791
4269984674
4269989740
4269993951
4270000970
4270006219
4270011529
4270017205
4270022699
4270027642
4270033136
4270037652
4270046441
4270051324
4270057122
4270062738
4270068597
4270073663
4270079278
4270083550
4270088983
4270094232
4270101434
4270105889
4270110650
4270117059
4270121148
4270126702
4270134576
4270141045
4270150445
4270155267
4270162530
4270167718
4270175774
4270180352
4270187676
4270192193
4270197930
4270203973
4270208001
4270213860
4270218682
4270223321
4270229302
4270235222
4270240105
4270244805
4270250298
4270256768
4270261040
4270267083
4270270928
4270277154
4270281243
4270287713
4270291558
4270298211
4270302666
4270307549
4270311943
4270320366
4270324700
4270331292
4270335137
4270340508
4270346001
4270351311
4270357170
4270363030
4270368218
4270373833
4270379753
4270385674
4270388542
4270394524
4270399346
4270406731
4270411675
4270417900
4270423271
4270429741
4270434929
4270439629
4270445061
4270450249
4270458672
4270464104
4270469902
4270475456
4270480705
4270483452
4270490471
4270494987
4270501579
4270508293
4270511650
4270516594
4270522331
4270528862
4270533867
4270538872
4270544487
4270549797
4270554985
4270560661
4270567192
4270572502
4270576652
4270582023
4270588798
4270594780
4270599723
4270605705
4270611381
4270617241
4270621940
4270627494
4270631828
4270640373
4270645317
4270650627
4270658134
4270664360
4270669242
4270677116
4270684013
4270692069
4270695365
4270702018
4270707328
4270713065
4270718314
4270724235
4270729728
4270737174
4270743095
4270749259
4270756767
4270760734
4270767204
4270774467
4270780021
4270786674
4270793571
4270798637
4270803886
4270809867
4270814994
4270819816
4270824760
4270827323
4270834281
4270840018
4270845450
4270850577
4270856009
4270859794
4270865775
4270869925
4270878287
4270884025
4270887381
4270892508
4270897879
4270904288
4270909354
4270914359
4270919486
4270925284
4270930594
4270936209
4270942008
4270947745
4270952933
4270958365
4270963492
4270970877
4270976248
4270983389
4270986563
4270994071
4270997977
4271002799
4271009207
4271014761
4271021353
4271026053
4271032645
4271038809
4271043631
4271049673
4271055411
4271062857
4271068472
4271074515
4271079703
4271085867
4271091421
4271097952
4271103079
4271107840
4271113455
4271119864
4271125662
4271130728
4271136526
4271142203
4271145743
4271152456
4271158194
4271164969
4271170279
4271174673
4271180044
4271185721
4271190481
4271195425
4271200491
4271206656
4271211843
4271216604
4271224905
4271229422
4271234243
4271240286
4271247366
4271252554
4271257681
4271262869
4271267691
4271273062
4271278494
4271284414
4271290762
4271298147
4271304922
4271311331
4271316274
4271323538
4271329153
4271335378
4271343252
4271350210
4271354726
4271361745
4271365957
4271370473
4271375845
4271382314
4271387868
4271393240
4271396230
4271402456
4271407461
4271413625
4271418752
4271424550
4271431142
4271436513
4271441396
4271446889
4271451894
4271457570
4271462453
4271467275
4271474050
4271478750
4271484243
4271488454
4271493825
4271500051
4271504262
4271508474
4271516713
4271522206
4271527394
4271530141
4271536733
4271541249
4271546804
4271553029
4271557302
4271563832
4271568227
4271575734
4271581471
4271587026
4271593251
4271598866
4271605763
4271611867
4271618642
4271623158
4271628774
4271636159
4271641835
4271647878
4271652882
4271660695
4271664540
4271672292
4271678334
4271682973
4271689503
4271694081
4271700795
4271708485
4271713917
4271719472
4271724476
4271728566
4271734974
4271738942
4271745839
4271749684
4271757008
4271762806
4271768178
4271773732
4271779713
4271784596
4271790150
4271795399
4271801930
4271805043
4271812245
4271817006
4271823841
4271828053
4271833058
4271839466
4271843861
4271850209
4271855702
4271861012
4271866383
4271872120
4271878041
4271884449
4271890431
4271898304
4271904225
4271910572
4271915211
4271922291
4271927784
4271934498
4271941578
4271946644
4271952625
4271957569
4271963551
4271970020
4271975025
4271979969
4271986072
4271991199
4271996204
4272001636
4272006092
4272012867
4272017078
4272022510
4272027454
4272036243
4272040577
4272046131
4272051075
4272056629
4272060901
4272067493
4272071705
4272076587
4272083240
4272088794
4272095630
4272101734
4272108142
4272114734
4272122608
4272129444
4272135303
4272140003
4272146350
4272152454
4272158802
4272165149
4272171375
4272174671
4272183154
4272190479
4272194995
4272199756
4272206531
4272210620
4272216174
4272222705
4272229175
4272234485
4272240772
4272245959
4272250415
4272257190
4272262012
4272267505
4272273181
4272279529
4272284534
4272290088
4272295703
4272301807
4272306811
4272312366
4272316699
4272323535
4272328357
4272333423
4272338305
4272344592
4272349658
4272354724
4272359607
4272365039
4272372485
4272377856
4272382861
4272387988
4272393481
4272398120
4272403430
4272409655
4272415576
4272421313
4272427172
4272433398
4272439440
4272444201
4272449633
4272453845
4272461657
4272470812
4272474963
4272481310
4272488696
4272494494
4272499987
4272505053
4272513354
4272520312
4272522936
4272529345
4272534045
4272539660
4272544115
4272553149
4272558398
4272563341
4272567187
4272572863
4272579089
4272582384
4272588854
4272594713
4272601183
4272605822
4272609423
4272615832
4272620348
4272626757
4272631273
4272639818
4272645434
4272651049
4272656359
4272661913
4272667894
4272673754
4272676928
4272686388
4272691210
4272696520
4272700853
4272707018
4272711473
4272717150
4272722216
4272728441
4272735582
4272740953
4272746569
4272751879
4272759081
4272764574
4272769884
4272774217
4272780626
4272788011
4272792711
4272799181
4272805162
4272811144
4272816942
4272822496
4272828600
4272834520
4272840624
4272845567
4272851244
4272855943
4272860277
4272866991
4272874559
4272880052
4272885301
4272891588
4272896104
4272903001
4272907396
4272912706
4272918382
4272925279
4272931016
4272935228
4272940538
4272946214
4272951951
4272955186
4272960679
4272968614
4272971422
4272979112
4272983506
4272990464
4272994127
4273001878
4273008043
4273014207
4273018724
4273024949
4273029710
4273034593
4273039720
4273048265
4273053392
4273059922
4273065415
4273073228
4273080430
4273086595
4273093003
4273097642
4273104356
4273108506
4273114549
4273119676
4273124497
4273130235
4273136704
4273142625
4273147630
4273152940
4273159043
4273163071
4273169419
4273174302
4273180466
4273186997
4273192795
4273197678
4273202622
4273207932
4273212510
4273217332
4273222275
4273227646
4273233323
4273238694
4273244370
4273249802
4273255906
4273261948
4273267502
4273272629
4273279709
4273284836
4273290512
4273295273
4273302536
4273306870
4273311997
4273317063
4273322739
4273329270
4273334580
4273339829
4273345261
4273349961
4273354538
4273359909
4273365647
4273372727
4273378647
4273384262
4273390000
4273395920
4273400681
4273405991
4273410446
4273415451
4273423325
4273427292
4273433823
4273438583
4273445053
4273450363
4273455307
4273460312
4273468430
4273473556
4273478744
4273483322
4273489670
4273493820
4273499313
4273504257
4273510910
4273516037
4273521347
4273526108
4273533310
4273537887
4273543380
4273548507
4273554306
4273561203
4273567184
4273572738
4273578598
4273583786
4273588119
4273594955
4273599289
4273606002
4273615219
4273619796
4273627365
4273631881
4273639633
4273644699
4273651290
4273659286
4273666000
4273671920
4273676620
4273682235
4273688400
4273694320
4273701217
4273706405
4273711593
4273716598
4273721969
4273728011
4273731368
4273736495
4273742843
4273749007
4273754440
4273758651
4273763412
4273768905
4273772933
4273778976
4273785567
4273791671
4273795211
4273801742
4273807235
4273812118
4273817061
4273822188
4273826095
4273834762
4273838973
4273844710
4273851363
4273856917
4273861800
4273865340
4273871749
4273878157
4273882552
4273890120
4273895736
4273901351
4273907332
4273913863
4273920150
4273926680
4273929671
4273937606
4273943526
4273949690
4273952803
4273958907
4273965987
4273971236
4273976790
4273983016
4273988631
4273993697
4273999678
4274005660
4274010115
4274017012
4274024397
4274027998
4274035445
4274040327
4274046675
4274052229
4274056990
4274062971
4274067732
4274074568
4274081099
4274087141
4274092207
4274098128
4274101790
4274107161
4274112044
4274119063
4274124434
4274130537
4274135786
4274140974
4274146773
4274152449
4274157759
4274162092
4274168379
4274174604
4274178816
4274183271
4274190474
4274195539
4274201399
4274209944
4274216902
4274223188
4274227644
4274236250
4274242170
4274248396
4274255537
4274260359
4274265119
4274271955
4274277021
4274282881
4274289716
4274294233
4274300337
4274304792
4274310163
4274317548
4274321516
4274327924
4274332563
4274337507
4274343916
4274348859
4274354841
4274360151
4274365034
4274370466
4274376691
4274380842
4274386823
4274392133
4274396955
4274403486
4274410139
4274415449
4274418622
4274424787
4274431379
4274436567
4274442304
4274448285
4274455121
4274460798
4274465925
4274470258
4274477460
4274482648
4274488019
4274492414
4274499189
4274504743
4274510297
4274515973
4274521466
4274526349
4274531720
4274535932
4274543988
4274548383
4274553327
4274559979
4274565534
4274571576
4274578839
4274585004
4274593060
4274598248
4274603803
4274610944
4274616254
4274623883
4274629681
4274635846
4274644086
4274649823
4274655194
4274663556
4274668133
4274674542
4274680951
4274687604
4274693951
4274701764
4274709881
4274716046
4274721356
4274726971
4274730572
4274737713
4274742230
4274749859
4274755291
4274761151
4274766461
4274773785
4274779400
4274784832
4274790081
4274794598
4274803875
4274812908
4274818890
4274826214
4274829815
4274839154
4274844342
4274850140
4274857281
4274866924
4274871929
4274879559
4274883587
4274891155
4274897686
4274902630
4274908978
4274914410
4274919537
4274926495
4274932537
4274937969
4274942425
4274949688
4274954632
4274961285
4274966106
4274971661
4274976360
4274981853
4274987224
4274994488
4274997906
4275004009
4275010967
4275014507
4275020977
4275024883
4275031414
4275036419
4275043133
4275049175
4275054241
4275059307
4275064434
4275068706
4275075603
4275080181
4275087078
4275092937
4275099041
4275102703
4275111003
4275115276
4275120769
4275126018
4275133342
4275138286
4275146038
4275150554
4275156413
4275162456
4275171001
4275176128
4275181926
4275189006
4275194621
4275200969
4275207866
4275215556
4275220866
4275226604
4275232524
4275238994
4275246074
4275252544
4275257976
4275264506
4275269878
4275276225
4275281474
4275287089
4275293376
4275301494
4275307963
4275314921
4275321208
4275328044
4275335490
4275342997
4275348308
4275353801
4275358928
4275365214
4275370402
4275376445
4275384074
4275391703
4275396586
4275402507
4275409343
4275415507
4275421366
4275426982
4275434916
4275441752
4275450724
4275455729
4275461466
4275469340
4275473185
4275480570
4275485270
4275489787
4275495097
4275499735
4275505961
4275512431
4275515665
4275521708
4275528056
4275533488
4275536845
4275542521
4275548197
4275553202
4275559489
4275564677
4275569804
4275575968
4275581217
4275586893
4275593058
4275598185
4275603129
4275608072
4275614359
4275619425
4275624979
4275630777
4275635294
4275640177
4275645670
4275651835
4275657511
4275663919
4275668985
4275673380
4275680155
4275684793
4275692362
4275698526
4275703287
4275709330
4275713236
4275718485
4275722391
4275730081
4275736673
4275741129
4275745951
4275751749
4275756388
4275761209
4275767069
4275773172
4275779825
4275784952
4275789346
4275794595
4275800760
4275805582
4275812845
4275817911
4275823160
4275828714
4275833597
4275840982
4275846353
4275851541
4275859781
4275864481
4275870584
4275876688
4275883279
4275887857
4275895730
4275900430
4275907144
4275913309
4275918863
4275926065
4275929178
4275938089
4275944436
4275952127
4275958535
4275963113
4275966836
4275976236
4275982217
4275992715
4275998819
4276007119
4276012002
4276019326
4276025369
4276031106
4276038247
4276043740
4276047952
4276054299
4276059548
4276065774
4276070901
4276076028
4276081033
4276087747
4276092385
4276097512
4276103616
4276108621
4276114236
4276119180
4276124734
4276130593
4276136086
4276141701
4276146523
4276152566
4276155678
4276162575
4276168008
4276174843
4276180398
4276186013
4276192422
4276197487
4276202859
4276207070
4276214333
4276219460
4276227395
4276231911
4276237526
4276242959
4276249550
4276254677
4276259621
4276264443
4276272255
4276276467
4276282265
4276287270
4276292580
4276298806
4276302040
4276309059
4276314064
4276319924
4276324806
4276330605
4276337441
4276343117
4276347756
4276353249
4276358925
4276366554
4276372231
4276378334
4276383034
4276388649
4276394142
4276400002
4276405495
4276410622
4276418312
4276422951
4276428383
4276434547
4276440651
4276445656
4276451698
4276456581
4276465126
4276470497
4276476601
4276481178
4276488136
4276495521
4276501625
4276510597
4276517677
4276522072
4276527687
4276533607
4276539039
4276545753
4276551124
4276557228
4276566749
4276572242
4276580543
4276586280
4276590248
4276597328
4276603065
4276607460
4276613197
4276619606
4276624794
4276630897
4276636207
4276642250
4276647376
4276652625
4276657569
4276662086
4276666786
4276673377
4276678382
4276683570
4276688575
4276693275
4276700477
4276704810
4276710365
4276715614
4276722022
4276726905
4276732520
4276738258
4276744361
4276749671
4276755469
4276761024
4276766395
4276770911
4276775184
4276781776
4276788184
4276793494
4276799598
4276804786
4276809791
4276814918
4276820289
4276825843
4276831519
4276837134
4276842383
4276847998
4276853858
4276859473
4276865821
4276870337
4276875708
4276884253
4276889380
4276895118
4276898841
4276906226
4276910620
4276916053
4276922461
4276927466
4276932898
4276940772
4276945471
4276951392
4276956153
4276960608
4276967505
4276971411
4276979407
4276984717
4276990759
4276996069
4277001746
4277006567
4277012061
4277017859
4277023901
4277028601
4277034033
4277036902
4277044897
4277049658
4277055334
4277060644
4277066870
4277071997
4277080237
4277083655
4277091528
4277096106
4277101111
4277106482
4277111914
4277120947
4277128759
4277133520
4277140905
4277146582
4277152319
4277158423
4277165930
4277172277
4277177099
4277184118
4277188208
4277194372
4277199072
4277203894
4277208898
4277215734
4277221289
4277226843
4277231726
4277238317
4277242346
4277247412
4277251989
4277258947
4277263647
4277268774
4277274145
4277279760
4277284887
4277290075
4277294408
4277300939
4277307043
4277313146
4277320226
4277325780
4277332128
4277337743
4277340856
4277349584
4277356115
4277361120
4277368139
4277374242
4277379552
4277385229
4277390111
4277397130
4277402074
4277407079
4277414220
4277419835
4277425939
4277431554
4277437780
4277443578
4277449071
4277454381
4277459142
4277465856
4277471044
4277475438
4277481969
4277487584
4277492711
4277497289
4277503636
4277507787
4277514867
4277519383
4277527135
4277531529
4277538060
4277544164
4277550206
4277556493
4277562352
4277568395
4277573461
4277581822
4277585545
4277592198
4277597997
4277604527
4277612096
4277619420
4277623814
4277628026
4277635289
4277641331
4277646031
4277652135
4277656346
4277662694
4277669102
4277674168
4277680028
4277684666
4277691685
4277697362
4277704625
4277713719
4277720982
4277727391
4277731785
4277738926
4277744236
4277751011
4277756077
4277760594
4277766392
4277770909
4277776036
4277781895
4277786167
4277793675
4277799229
4277804112
4277809971
4277814732
4277820347
4277825352
4277830052
4277838719
4277842747
4277849583
4277853550
4277858982
4277864658
4277870213
4277873081
4277880955
4277886143
4277891148
4277897190
4277902744
4277907444
4277912998
4277917332
4277922398
4277928989
4277935764
4277940708
4277945591
4277951389
4277955234
4277962009
4277966160
4277971897
4277977512
4277983005
4277988926
4277994480
4277999668
4278004978
4278008030
4278017795
4278023227
4278028599
4278033848
4278039707
4278046421
4278052524
4278055881
4278064182
4278069370
4278076084
4278081821
4278087070
4278092868
4278097995
4278102695
4278110324
4278118259
4278123752
4278129184
4278136753
4278140964
4278146396
4278151279
4278158054
4278164462
4278170322
4278175937
4278181491
4278186801
4278193332
4278198825
4278207248
4278214267
4278219638
4278224704
4278229831
4278235446
4278240024
4278244723
4278251620
4278257358
4278261874
4278270358
4278275058
4278281405
4278288363
4278294223
4278300265
4278307162
4278314853
4278320163
4278325229
4278330661
4278336032
4278342502
4278347018
4278353976
4278360568
4278366549
4278372897
4278379061
4278382113
4278389559
4278395297
4278400302
4278406161
4278411593
4278416720
4278422030
4278428073
4278435458
4278440768
4278446200
4278451327
4278456698
4278459506
4278465548
4278470919
4278477511
4278484408
4278490817
4278495333
4278501254
4278506197
4278511813
4278516940
4278521639
4278528109
4278534823
4278539767
4278544283
4278550326
4278553133
4278560457
4278564730
4278571505
4278577242
4278582552
4278587862
4278593783
4278599215
4278605135
4278609835
4278617342
4278623324
4278627169
4278634249
4278640596
4278645357
4278651461
4278656588
4278662569
4278669344
4278673738
4278680574
4278686495
4278691194
4278696688
4278701937
4278706758
4278715303
4278720919
4278726473
4278730806
4278738375
4278743746
4278747774
4278752229
4278759920
4278766939
4278771150
4278777681
4278781465
4278788179
4278792574
4278799043
4278802766
4278810274
4278816194
4278821565
4278825838
4278831514
4278837862
4278841890
4278849397
4278857210
4278865205
4278871431
4278877717
4278883821
4278889985
4278896821
4278903291
4278909700
4278915254
4278921480
4278925203
4278931733
4278936372
4278941316
4278945100
4278952852
4278958101
4278963533
4278968904
4278974214
4278978791
4278984407
4278988618
4278995759
4279000154
4279006623
4279011079
4279016450
4279021455
4279026460
4279031404
4279036042
4279044587
4279049836
4279055329
4279061006
4279066377
4279071931
4279077241
4279082368
4279090241
4279093659
4279103120
4279109101
4279117341
4279123505
4279132905
4279140595
4279147736
4279156342
4279164094
4279171052
4279177582
4279184113
4279190095
4279195893
4279204682
4279210480
4279217621
4279223908
4279228974
4279233490
4279237519
4279242524
4279247712
4279252472
4279256684
4279261017
4279264740
4279269806
4279274384
4279279389
4279284516
4279288971
4279293427
4279297638
4279301605
4279306427
4279310944
4279314484
4279319123
4279324066
4279328400
4279333161
4279336945
4279343231
4279347870
4279352814
4279356659
4279360626
4279365509
4279371124
4279377899
4279382965
4279390167
4279398224
4279404388
4279409698
4279416290
4279421539
4279427216
4279433563
4279438629
4279442840
4279446747
4279451874
4279457184
4279461151
4279465851
4279470062
4279474518
4279479034
4279483307
4279489166
4279494110
4279498016
4279501800
4279507293
4279511200
4279516021
4279520416
4279526947
4279531524
4279536041
4279541900
4279545929
4279550201
4279555694
4279560028
4279566070
4279571624
4279576263
4279581390
4279587188
4279590484
4279596649
4279601287
4279609344
4279614410
4279619476
4279624420
4279631133
4279635650
4279641326
4279644134
4279653167
4279658172
4279663787
4279668487
4279673797
4279678008
4279683013
4279689422
4279694061
4279700835
4279705718
4279712005
4279717193
4279722137
4279726165
4279733062
4279738006
4279743865
4279749236
4279754729
4279760284
4279765838
4279770904
4279776275
4279779326
4279785857
4279790862
4279797454
4279802703
4279810882
4279816863
4279825347
4279830413
4279839080
4279843718
4279851165
4279856170
4279863616
4279868682
4279873992
4279879973
4279886199
4279892974
4279899932
4279904448
4279911711
4279916655
4279921355
4279927641
4279933440
4279941435
4279950957
4279960051
4279965849
4279972624
4279979521
4279986784
4279993681
4280001006
4280006438
4280011320
4280014983
4280021330
4280025786
4280030547
4280035612
4280041106
4280046171
4280050749
4280055083
4280060026
4280065153
4280070463
4280076567
4280082915
4280088408
4280093779
4280099211
4280104765
4280112761
4280115996
4280124724
4280130095
4280134977
4280140715
4280145842
4280151274
4280161711
4280167082
4280174955
4280180693
4280187529
4280193327
4280198332
4280203520
4280208341
4280214201
4280220304
4280225736
4280231840
4280238676
4280243376
4280249662
4280254667
4280259916
4280268339
4280274198
4280279630
4280284147
4280288908
4280292509
4280299589
4280305875
4280311369
4280316007
4280323026
4280327360
4280332609
4280337492
4280346281
4280352872
4280357694
4280362638
4280369169
4280373563
4280380338
4280383817
4280391202
4280398282
4280403165
4280408170
4280415067
4280419217
4280426664
4280432340
4280438199
4280445157
4280450040
4280457181
4280461454
4280466642
4280471463
4280478971
4280485440
4280491544
4280497708
4280503690
4280509793
4280516324
4280519803
4280528653
4280537259
4280543668
4280549283
4280554898
4280561307
4280565518
4280571988
4280578458
4280584012
4280589993
4280594937
4280600186
4280605679
4280611233
4280616788
4280621548
4280627591
4280634244
4280639798
4280643704
4280649258
4280654874
4280660489
4280665127
4280671658
4280676175
4280683255
4280687588
4280692898
4280699124
4280703702
4280708645
4280715664
4280720730
4280725552
4280732571
4280737820
4280742825
4280747525
4280753018
4280757962
4280765103
4280770596
4280776333
4280781826
4280787869
4280792385
4280797940
4280803128
4280809780
4280814114
4280819851
4280827175
4280833767
4280840908
4280847805
4280851467
4280861538
4280866604
4280874538
4280879787
4280885281
4280892849
4280896877
4280905056
4280910183
4280917202
4280923244
4280929104
4280933681
4280939602
4280944729
4280950649
4280955959
4280962002
4280969326
4280974514
4280979885
4280985683
4280991787
4280997280
4281003322
4281006679
4281014736
4281021145
4281025234
4281034572
4281041347
4281045070
4281054042
4281061733
4281066616
4281074428
4281079250
4281085903
4281092800
4281099086
4281105251
4281111782
4281117946
4281127529
4281132289
4281142604
4281149196
4281156703
4281165065
4281171535
4281177882
4281182826
4281188747
4281193752
4281198634
4281204616
4281209499
4281216090
4281222560
4281227809
4281234279
4281239467
4281246059
4281250941
4281255946
4281260341
4281267421
4281272975
4281279017
4281283595
4281289821
4281294642
4281299525
4281305140
4281311244
4281316554
4281322169
4281326686
4281332057
4281334864
4281342128
4281347926
4281353968
4281358302
4281365199
4281369715
4281376673
4281381983
4281389613
4281394984
4281401454
4281409876
4281414698
4281421229
4281426356
4281433497
4281439234
4281444544
4281448695
4281458521
4281464625
4281470362
4281476099
4281482630
4281487086
4281492945
4281499171
4281503382
4281509364
4281517054
4281522547
4281529078
4281534815
4281540797
4281546229
4281550867
4281558069
4281564722
4281570948
4281575770
4281582483
4281586939
4281594019
4281598658
4281604578
4281610499
4281616175
4281622889
4281627344
4281633509
4281638392
4281644556
4281651270
4281657740
4281663050
4281669153
4281676538
4281683679
4281687952
4281697595
4281705103
4281712854
4281720850
4281725794
4281733179
4281740198
4281749658
4281757044
4281764002
4281771753
4281777734
4281791528
4281803613
4281811487
4281814050
4281826318
4281833765
4281839319
4281847070
4281854211
4281864953
4281872583
4281878564
4281884973
4281891015
4281897668
4281903772
4281911279
4281915246
4281922998
4281930444
4281939782
4281947046
4281953393
4281959680
4281966516
4281974389
4281980310
4281987390
4281996423
4282003686
4282010217
4282018151
4282023828
4282030969
4282036950
4282045617
4282049828
4282058312
4282065698
4282074487
4282082360
4282089684
4282096215
4282102929
4282109521
4282116967
4282123254
4282133263
4282140465
4282148095
4282152550
4282159691
4282170128
4282178307
4282184411
4282192345
4282201867
4282206994
4282217492
4282222069
4282232567
4282239037
4282245201
4282253441
4282259178
4282269615
4282276696
4282284569
4282290734
4282295677
4282303673
4282312218
4282318199
4282324486
4282333458
4282340843
4282346886
4282354759
4282361107
4282367210
4282373314
4282380760
4282387962
4282393822
4282402672
4282409996
4282414818
4282422386
4282428551
4282438377
4282444298
4282450584
4282457603
4282463524
4282474632
4282482872
4282488609
4282499107
4282505638
4282513023
4282521141
4282526878
4282534629
4282545127
4282551780
4282560081
4282566917
4282572349
4282581687
4282588706
4282594322
4282602867
4282611900
4282625083
4282632713
4282641258
4282648460
4282657920
4282665977
4282673301
4282681358
4282688255
4282697105
4282704063
4282710654
4282717857
4282722922
4282728477
4282734580
4282738547
4282745322
4282751121
4282757346
4282762290
4282767783
4282774131
4282779075
4282784018
4282790427
4282795676
4282801413
4282806540
4282812888
4282817832
4282822165
4282827842
4282830771
4282838950
4282845542
4282849936
4282854331
4282861289
4282865561
4282871237
4282876181
4282882224
4282889792
4282895835
4282900046
4282907675
4282911704
4282917441
4282922385
4282927939
4282934470
4282939475
4282944785
4282950888
4282956259
4282961386
4282967062
4282971762
4282978720
4282984579
4282990195
4282995810
4282999411
4283004843
4283010397
4283016928
4283022055
4283027182
4283032980
4283039755
4283044882
4283050192
4283054159
4283061117
4283065512
4283073813
4283078390
4283084189
4283089254
4283095297
4283100363
4283105978
4283110373
4283115439
4283120626
4283127646
4283133383
4283138876
4283145773
4283152731
4283159872
4283164205
4283172201
4283178549
4283184164
4283190206
4283196493
4283202902
4283209493
4283216085
4283220907
4283224447
4283233846
4283237264
4283246298
4283251119
4283256735
4283263082
4283270040
4283276510
4283284383
4283290365
4283296712
4283302206
4283308370
4283313558
4283319051
4283325216
4283330282
4283335592
4283341024
4283346517
4283349447
4283356283
4283360433
4283367452
4283372152
4283379537
4283383870
4283390401
4283395162
4283401815
4283406514
4283414205
4283419088
4283423848
4283429830
4283435506
4283439717
4283446859
4283451070
4283456441
4283462178
4283468221
4283473836
4283478841
4283484700
4283491048
4283496907
4283501363
4283509786
4283515035
4283521321
4283526814
4283533406
4283536824
4283543416
4283548909
4283554402
4283560689
4283567586
4283573201
4283577962
4283584065
4283588826
4283594868
4283599446
4283606282
4283612630
4283619099
4283623555
4283627217
4283634236
4283639302
4283644795
4283648762
4283657124
4283661397
4283666890
4283672505
4283678547
4283684163
4283687764
4283694111
4283699421
4283704792
4283711079
4283716023
4283721516
4283726399
4283731709
4283737324
4283742695
4283749897
4283754658
4283760029
4283766133
4283769856
4283774922
4283780964
4283785969
4283792195
4283799275
4283803120
4283809956
4283815571
4283822041
4283826801
4283831684
4283837544
4283845234
4283851460
4283856770
4283862934
4283870869
4283880146
4283885151
4283892109
4283898518
4283906269
4283909077
4283915119
4283921650
4283926777
4283931843
4283937519
4283944416
4283948200
4283955219
4283959858
4283965412
4283970417
4283975971
4283978718
4283987873
4283993000
4283999164
4284004657
4284008014
4284014728
4284020221
4284024677
4284030841
4284037616
4284043720
4284048908
4284054706
4284059833
4284064960
4284070514
4284075458
4284081378
4284086566
4284092121
4284097797
4284103961
4284108844
4284114215
4284118549
4284123859
4284130390
4284135639
4284140888
4284147479
4284152362
4284158099
4284163287
4284167926
4284173785
4284179767
4284185565
4284190570
4284196368
4284201434
4284207294
4284210284
4284216998
4284222186
4284228961
4284233478
4284239459
4284244281
4284249957
4284255084
4284258685
4284267352
4284271686
4284277423
4284283221
4284288775
4284293231
4284298724
4284303180
4284310077
4284317157
4284321124
4284327044
4284333575
4284339862
4284344622
4284351763
4284359881
4284370196
4284374835
4284384173
4284391497
4284402789
4284410784
4284419756
4284428423
4284436541
4284443926
4284452105
4284457415
4284465350
4284471819
4284481097
4284489580
4284498614
4284503741
4284515215
4284525652
4284531939
4284545000
4284552996
4284560869
4284567888
4284575518
4284580950
4284586077
4284596026
4284601397
4284608782
4284616961
4284624956
4284634417
4284642900
4284650652
4284659685
4284664263
4284672136
4284679521
4284689470
4284696672
4284702410
4284711077
4284715471
4284727007
4284731218
4284741716
4284748003
4284752702
4284760210
4284764543
4284775102
4284781633
4284789201
4284798784
4284804704
4284813249
4284818315
4284828081
4284834001
4284839189
4284847429
4284854204
4284860368
4284868730
4284879350
4284885820
4284893998
4284903276
4284910783
4284919999
4284928422
4284934892
4284939531
4284948686
4284956742
4284964616
4284972489
4284979692
4284986650
4284993791
4284999833
4285010819
4285017777
4285026872
4285034928
4285040421
4285047929
4285053239
4285061784
4285070145
4285076737
4285083390
4285091019
4285098588
4285105241
4285113846
4285121476
4285126542
4285133988
4285140092
4285153702
4285159012
4285167496
4285172257
4285181962
4285189713
4285195572
4285203629
4285210953
4285218399
4285225113
4285232682
4285242630
4285251480
4285260269
4285266434
4285276322
4285281265
4285293717
4285301712
4285310135
4285316422
4285324906
4285331192
4285340042
4285349197
4285357925
4285360611
4285375137
4285384781
4285390457
4285400589
4285408829
4285417984
4285425491
4285432327
4285436844
4285448562
4285458816
4285484634
4285486953
4285488968
4285491104
4285493545
4285495193
4285497146
4285499405
4285501114
4285503738
4285505691
4285507827
4285509719
4285512832
4285515884
4285518631
4285521011
4285523086
4285525283
4285527298
4285529495
4285531448
4285533340
4285535354
4285537429
4285539688
4285542190
4285544509
4285546279
4285548599
4285550430
4285552261
4285554458
4285556411
4285558609
4285560440
4285562454
4285564468
4285566970
4285568801
4285570816
4285573440
4285578994
4285581008
4285583389
4285585220
4285587356
4285589126
4285591140
4285592849
4285594863
4285596816
4285599502
4285601516
4285603774
4285605483
4285607620
4285609695
4285611465
4285613296
4285615249
4285617141
4285619277
4285621230
4285623245
4285625198
4285628188
4285630935
4285633071
4285635085
4285637588
4285639663
4285641555
4285643996
4285646194
4285647842
4285649917
4285651748
4285653884
4285655532
4285657424
4285659621
4285661452
4285663589
4285665237
4285667800
4285670181
4285671767
4285673598
4285675674
4285677627
4285680312
4285683059
4285685989
4285687698
4285689590
4285691543
4285693557
4285695388
4285697585
4285699599
4285701369
4285703200
4285705398
4285707168
4285709243
4285711074
4285713393
4285715224
4285717788
4285719436
4285721877
4285723647
4285725539
4285727675
4285729507
4285731521
4285733901
4285736770
4285739272
4285741286
4285743300
4285745437
4285747512
4285749465
4285751479
4285754043
4285755691
4285757644
4285759719
4285762038
4285763930
4285765822
4285767531
4285769545
4285771560
4285773696
4285775466
4285777602
4285779494
4285781569
4285783461
4285785903
4285788955
4285792922
4285794875
4285796645
4285799208
4285800917
4285803481
4285805312
4285807387
4285809340
4285811049
4285813308
4285815200
4285816848
4285818801
4285820693
4285822402
4285826003
4285827834
4285830031
4285831740
4285833876
4285836989
4285838942
4285841079
4285844130
4285846877
4285849562
4285851515
4285853774
4285855788
4285857863
4285859938
4285862685
4285864882
4285867079
4285869216
4285871291
4285873305
4285875563
4285877516
4285879470
4285881240
4285883498
4285885390
4285887221
4285888869
4285891005
4285893080
4285895033
4285897475
4285900405
4285903456
4285905409
4285907301
4285909133
4285911208
4285913283
4285915297
4285917006
4285919386
4285921278
4285923354
4285925124
4285927199
4285928908
4285930800
4285932814
4285934706
4285936903
4285938857
4285940810
4285942763
4285944777
4285946730
4285948988
4285951979
4285954543
4285957167
4285959364
4285961012
4285963271
4285965102
4285966994
4285969252
4285971266
4285973280
4285975111
4285977492
4285979750
4285981825
4285984084
4285985670
4285987318
4285989271
4285991469
4285993361
4285995131
4285997084
4285999281
4286001112
4286003065
4286005873
4286008803
4286011305
4286013197
4286015089
4286017042
4286018873
4286020949
4286022902
4286024916
4286027113
4286028944
4286031141
4286033156
4286035414
4286036940
4286039259
4286040968
4286042982
4286044935
4286046950
4286048842
4286051161
4286052687
4286054945
4286057020
4286060011
4286062941
4286065870
4286067946
4286070082
4286072096
4286073988
4286076124
4286078199
4286080214
4286082045
4286083937
4286086744
4286088453
4286091017
4286092604
4286094923
4286097120
4286099806
4286103163
4286105238
4286107252
4286109388
4286111830
4286113661
4286116346
4286119215
4286122450
4286125074
4286127455
4286129713
4286131666
4286133863
4286135939
4286137770
4286139723
4286141737
4286143690
4286145704
4286147901
4286149671
4286151625
4286153517
4286155836
4286157789
4286159925
4286161939
4286163832
4286166151
4286167921
4286170362
4286173048
4286175123
4286176954
4286179762
4286182569
4286185499
4286187513
4286189649
4286191969
4286193800
4286196546
4286198438
4286200697
4286202528
4286204603
4286206556
4286208509
4286210340
4286212293
4286214613
4286216322
4286218458
4286220533
4286223158
4286225111
4286226942
4286229139
4286230787
4286233228
4286235243
4286237257
4286240125
4286242994
4286245496
4286247511
4286249830
4286251722
4286253980
4286255933
4286258192
4286260023
4286262159
4286264051
4286265760
4286268140
4286269849
4286271802
4286273573
4286275770
4286277662
4286279676
4286281873
4286284009
4286285780
4286287794
4286289930
4286291883
4286293958
4286295728
4286298475
4286300916
4286303785
4286305677
4286308057
4286309827
4286312147
4286313917
4286316358
4286318372
4286320569
4286322217
4286324537
4286327222
4286329175
4286331067
4286333082
4286335523
4286337598
4286339918
4286341932
4286344068
4286346204
4286348340
4286350660
4286352552
4286354444
4286356885
4286359632
4286362317
4286364393
4286366590
4286368482
4286370618
4286372632
4286374708
4286376416
4286378919
4286381177
4286383741
4286385572
4286387525
4286389356
4286391431
4286393567
4286395398
4286397351
4286399183
4286401502
4286403455
4286405652
4286407605
4286409681
4286412000
4286414014
4286416944
4286419934
4286422681
4286424939
4286426953
4286428968
4286430677
4286432447
4286434339
4286436475
4286438489
4286440686
4286442639
4286444776
4286447034
4286448987
4286450940
4286453015
4286454969
4286456922
4286458997
4286461011
4286462964
4286464795
4286466626
4286468946
4286470838
4286472730
4286475598
4286478467
4286480969
4286483106
4286485059
4286486829
4286488843
4286490796
4286492810
4286494702
4286496900
4286498975
4286501233
4286502942
4286505078
4286506970
4286508985
4286511426
4286513440
4286515332
4286517163
4286519544
4286521497
4286523328
4286525464
4286527722
4286530103
4286531873
4286535107
4286537671
4286540479
4286542981
4286546582
4286548474
4286550427
4286552258
4286554089
4286556104
4286557935
4286559888
4286561841
4286564282
4286566113
4286567944
4286570081
4286572156
4286574475
4286576550
4286578931
4286580823
4286582837
4286584973
4286587109
4286589001
4286590893
4286592725
4286595471
4286598706
4286601391
4286603467
4286605298
4286607800
4286609570
4286611584
4286613537
4286615491
4286617444
4286619458
4286621655
4286623669
4286625500
4286627576
4286630017
4286632275
4286634106
4286636304
4286638257
4286640515
4286642407
4286644238
4286646191
4286648266
4286650281
4286652356
4286655163
4286657727
4286660718
4286662732
4286664929
4286666821
4286669140
4286671032
4286672925
4286675244
4286677258
4286679272
4286681408
4286683239
4286685254
4286687024
4286689160
4286691479
4286693493
4286695507
4286697705
4286699353
4286701550
4286703259
4286705822
4286707714
4286709729
4286711499
4286714428
4286717785
4286720532
4286722546
4286724560
4286726635
4286728894
4286731213
4286733044
4286735241
4286737561
4286739514
4286741833
4286743908
4286745800
4286747570
4286749951
4286751843
4286754040
4286755871
4286757641
4286759838
4286761853
4286764355
4286766369
4286768444
4286770214
4286772534
4286775097
4286778027
4286780590
4286782665
4286784619
4286786755
4286789196
4286790966
