4230240025
4230244907
4230249790
4230254002
4230258213
4230263889
4230268894
4230274082
4230279453
4230284336
4230288608
4230293186
4230298374
4230303196
4230308018
4230313328
4230318516
4230321995
4230326877
4230332798
4230337497
4230341648
4230346592
4230351230
4230356723
4230360935
4230366245
4230370700
4230376743
4230383213
4230388645
4230394199
4230400058
4230406223
4230413425
4230421360
4230426670
4230432895
4230439609
4230446933
4230452732
4230460910
4230466342
4230474277
4230479892
4230486789
4230494113
4230501926
4230508518
4230516330
4230522678
4230530612
4230537265
4230545383
4230551669
4230558322
4230566440
4230573581
4230581943
4230587985
4230595004
4230602389
4230610873
4230618991
4230626803
4230634738
4230641391
4230647555
4230656100
4230663607
4230669955
4230675998
4230681979
4230687655
4230693454
4230703036
4230708590
4230715304
4230723605
4230730319
4230737216
4230744540
4230751071
4230759738
4230766451
4230774264
4230779818
4230788180
4230795382
4230802889
4230810397
4230817172
4230822604
4230829928
4230836642
4230843417
4230851778
4230857638
4230866793
4230872591
4230879854
4230885958
4230893160
4230902010
4230907625
4230916903
4230923250
4230930208
4230936373
4230943636
4230951815
4230959383
4230965181
4230973299
4230979464
4230987947
4230994600
4231002535
4231010164
4231019564
4231025911
4231032686
4231041231
4231047579
4231056856
4231065279
4231072237
4231079073
4231086092
4231092073
4231099580
4231108553
4231116792
4231123872
4231129610
4231136568
4231144502
4231150117
4231158235
4231165315
4231171419
4231180391
4231187471
4231196077
4231202669
4231210115
4231218171
4231225923
4231232454
4231240449
4231248750
4231255769
4231263398
4231270539
4231278718
4231285493
4231291169
4231298371
4231303987
4231310762
4231316621
4231322602
4231328950
4231334870
4231341462
4231350434
4231358186
4231366364
4231373200
4231380769
4231386933
4231394929
4231401704
4231409333
4231416718
4231423127
4231429169
4231435395
4231442841
4231451874
4231458161
4231466096
4231474335
4231480683
4231487153
4231494782
4231501313
4231509186
4231517487
4231525055
4231531952
4231538117
4231545685
4231551972
4231560517
4231568207
4231576264
4231584198
4231590912
4231597931
4231606049
4231613556
4231622223
4231628510
4231636200
4231642975
4231648895
4231657379
4231663361
4231670441
4231677765
4231685944
4231694794
4231700470
4231707367
4231715485
4231722443
4231729156
4231736664
4231743133
4231749969
4231759186
4231768219
4231774322
4231783417
4231791046
4231798370
4231807586
4231813568
4231822601
4231829437
4231837249
4231844452
4231850494
4231857330
4231866241
4231872711
4231879425
4231888580
4231895965
4231901886
4231907806
4231916412
4231922821
4231929290
4231936004
4231943572
4231950958
4231957549
4231963775
4231972808
4231979888
4231986175
4231993621
4232000518
4232008697
4232016448
4232022796
4232029205
4232037688
4232042693
4232051971
4232057525
4232066375
4232072784
4232079803
4232086272
4232093535
4232102630
4232108855
4232116240
4232122649
4232128570
4232134551
4232144072
4232152373
4232159636
4232165435
4232173919
4232180510
4232187346
4232194121
4232201995
4232209197
4232216155
4232222685
4232229460
4232235930
4232241545
4232246489
4232250640
4232255095
4232259306
4232263701
4232267973
4232272063
4232277007
4232282195
4232286345
4232290068
4232295012
4232299712
4232304045
4232309843
4232313506
4232317595
4232321684
4232325163
4232329680
4232335722
4232340056
4232343596
4232351652
4232357390
4232362212
4232368132
4232371733
4232376005
4232379668
4232384489
4232389189
4232395781
4232400175
4232405729
4232409880
4232414030
4232418364
4232423796
4232428007
4232432463
4232437590
4232445097
4232451384
4232456327
4232464506
4232469938
4232475004
4232479521
4232485258
4232489714
4232493864
4232498381
4232503324
4232508757
4232512236
4232516813
4232520414
4232526274
4232529203
4232536894
4232541532
4232545988
4232550566
4232555326
4232560026
4232564115
4232568632
4232574491
4232579496
4232584074
4232588041
4232593534
4232597868
4232602079
4232606352
4232612333
4232617094
4232622892
4232627531
4232633634
4232638090
4232642789
4232647428
4232654935
4232659452
4232665372
4232670316
4232675199
4232679410
4232684415
4232688260
4232693693
4232699186
4232704252
4232709684
4232714933
4232719571
4232724515
4232729581
4232734708
4232740995
4232744474
4232751310
4232755948
4232760038
4232764737
4232768827
4232776700
4232782987
4232789334
4232792508
4232799039
4232804166
4232809598
4232817288
4232823514
4232829679
4232837186
4232842435
4232846646
4232851895
4232856595
4232863004
4232868253
4232873563
4232879788
4232883695
4232888455
4232894070
4232900113
4232905118
4232910489
4232916776
4232919766
4232926663
4232929654
4232935025
4232943448
4232949979
4232953274
4232962674
4232968411
4232973843
4232979153
4232985562
4232992886
4232997281
4233002163
4233007290
4233011685
4233016202
4233022061
4233026394
4233030972
4233035855
4233040860
4233048184
4233052029
4233059048
4233064907
4233069363
4233073941
4233078213
4233083950
4233088650
4233096096
4233099942
4233107022
4233112149
4233116665
4233120999
4233127102
4233130398
4233136807
4233141689
4233147122
4233151699
4233156765
4233161404
4233167324
4233171719
4233176602
4233180447
4233186367
4233193081
4233196255
4233201626
4233206997
4233212063
4233217068
4233222561
4233227749
4233232876
4233238186
4233243618
4233248928
4233253689
4233258938
4233263637
4233269985
4233275722
4233281338
4233286342
4233291042
4233297451
4233302151
4233305568
4233312404
4233319179
4233324367
4233328212
4233334072
4233339870
4233345119
4233350673
4233356166
4233360500
4233365932
4233371608
4233376857
4233382778
4233389308
4233395534
4233401821
4233409938
4233414760
4233419948
4233426967
4233431972
4233438259
4233443935
4233448879
4233454677
4233460414
4233466274
4233471462
4233478236
4233483241
4233488429
4233496425
4233502223
4233510768
4233518764
4233525844
4233529933
4233536403
4233540675
4233544826
4233551601
4233556666
4233561610
4233566676
4233571437
4233576381
4233580287
4233586024
4233592921
4233601344
4233604457
4233609157
4233614039
4233620082
4233624659
4233628749
4233635646
4233640468
4233646327
4233650477
4233655909
4233660670
4233665614
4233671168
4233676417
4233681483
4233686671
4233691859
4233696986
4233701808
4233706752
4233712123
4233719081
4233723170
4233728053
4233734278
4233739405
4233743739
4233748866
4233754359
4233761256
4233766688
4233772181
4233778162
4233783961
4233787989
4233792933
4233799891
4233807337
4233812525
4233818690
4233823939
4233829493
4233833826
4233838648
4233844569
4233848780
4233855921
4233860804
4233867151
4233872401
4233877711
4233881922
4233887964
4233893091
4233900904
4233905848
4233911585
4233917566
4233923243
4233928675
4233934168
4233938623
4233944300
4233949732
4233955713
4233961145
4233966394
4233972315
4233977076
4233982508
4233986658
4233994043
4234001062
4234006861
4234011621
4234016992
4234023096
4234028650
4234033228
4234039514
4234045252
4234053064
4234060144
4234066065
4234073206
4234080347
4234086023
4234094141
4234100122
4234104334
4234109460
4234115442
4234120447
4234125024
4234132410
4234136865
4234140100
4234146875
4234151208
4234156335
4234159326
4234166101
4234171289
4234176294
4234181909
4234186304
4234191675
4234197046
4234201867
4234206872
4234212732
4234217920
4234223291
4234228784
4234234094
4234239099
4234244348
4234250024
4234254358
4234261010
4234265161
4234270898
4234276452
4234282189
4234285485
4234292504
4234297753
4234305078
4234310144
4234315942
4234321984
4234328027
4234332482
4234337792
4234343591
4234350121
4234356957
4234360192
4234367150
4234370629
4234376305
4234381799
4234388085
4234395287
4234399621
4234405236
4234410729
4234416344
4234421716
4234424889
4234431664
4234438805
4234445214
4234449303
4234456261
4234461816
4234466332
4234471032
4234476891
4234481957
4234487938
4234493493
4234499779
4234505089
4234510399
4234514916
4234520165
4234526696
4234532494
4234536950
4234542443
4234547692
4234553063
4234558556
4234563927
4234568261
4234573449
4234580590
4234584557
4234591393
4234596703
4234601769
4234606407
4234614647
4234620934
4234628868
4234635399
4234642845
4234648216
4234653832
4234659142
4234666161
4234671349
4234677269
4234683006
4234687645
4234692406
4234697472
4234702721
4234708824
4234714867
4234719444
4234725670
4234730675
4234736046
4234743187
4234747581
4234752647
4234759178
4234764488
4234770042
4234775291
4234778709
4234783165
4234787681
4234792564
4234799766
4234804344
4234809654
4234814476
4234819603
4234825279
4234828636
4234833885
4234839744
4234846214
4234849327
4234855613
4234860496
4234864891
4234870079
4234876121
4234880577
4234886863
4234893272
4234898643
4234904930
4234911521
4234918113
4234924949
4234931968
4234938682
4234944969
4234951682
4234956199
4234962547
4234969077
4234974021
4234980247
4234987205
4234993736
4234999961
4235003806
4235010215
4235016196
4235021140
4235024619
4235033347
4235040000
4235044456
4235049522
4235053855
4235058677
4235064353
4235068503
4235074363
4235080771
4235085227
4235091514
4235096274
4235102622
4235105918
4235114524
4235119346
4235125693
4235132224
4235137229
4235140952
4235145835
4235152182
4235158408
4235165671
4235174033
4235183310
4235186789
4235192954
4235200949
4235209189
4235213828
4235218588
4235223899
4235228354
4235233908
4235240012
4235244528
4235249533
4235254172
4235260336
4235264914
4235269125
4235273215
4235279196
4235284079
4235289755
4235293051
4235299033
4235303976
4235308554
4235313254
4235320944
4235326193
4235330466
4235335348
4235340536
4235346091
4235351401
4235356344
4235362631
4235367636
4235371054
4235378378
4235382101
4235388266
4235393820
4235398825
4235404867
4235410299
4235415609
4235420797
4235426535
4235431601
4235436911
4235442282
4235447897
4235452475
4235459066
4235464498
4235469931
4235475058
4235479818
4235485433
4235490377
4235498373
4235503378
4235507040
4235514608
4235519857
4235524008
4235529440
4235534872
4235541708
4235546652
4235552450
4235558309
4235564230
4235569296
4235574911
4235580160
4235586324
4235592184
4235598226
4235602926
4235608419
4235613119
4235618063
4235624837
4235630270
4235637899
4235641134
4235647542
4235652181
4235658102
4235663106
4235668722
4235674703
4235679159
4235685689
4235690328
4235695455
4235700826
4235706563
4235711385
4235718892
4235724386
4235731221
4235739339
4235745137
4235751607
4235757528
4235763143
4235768026
4235773763
4235778951
4235784322
4235789205
4235794820
4235800618
4235805928
4235810567
4235815755
4235823750
4235828816
4235834249
4235838887
4235845418
4235850179
4235855611
4235860371
4235866902
4235873067
4235878621
4235883626
4235889180
4235893452
4235899007
4235903950
4235909016
4235915425
4235921468
4235925984
4235930928
4235937276
4235942158
4235947774
4235951985
4235960652
4235965657
4235969258
4235975667
4235981648
4235987691
4235993062
4235997395
4236003193
4236008381
4236014058
4236018391
4236023335
4236030049
4236033345
4236038960
4236045613
4236052204
4236057331
4236063069
4236068501
4236075703
4236080586
4236087361
4236093098
4236099385
4236105671
4236112202
4236118122
4236123310
4236127827
4236132649
4236140095
4236144611
4236151142
4236157490
4236160969
4236167988
4236171406
4236178364
4236184467
4236189350
4236195271
4236199970
4236206440
4236212971
4236216267
4236221760
4236231037
4236236896
4236242451
4236247516
4236252277
4236257465
4236263508
4236267597
4236275715
4236288837
4236295978
4236303180
4236308674
4236314594
4236324299
4236332416
4236341816
4236349872
4236359394
4236364521
4236372455
4236378376
4236386249
4236391132
4236400714
4236405658
4236413043
4236420307
4236428241
4236434528
4236441913
4236447650
4236454425
4236461627
4236468463
4236476032
4236483234
4236489337
4236495868
4236502643
4236507648
4236515155
4236524310
4236531695
4236537555
4236544330
4236551044
4236558246
4236564410
4236570025
4236577838
4236582660
4236591937
4236599383
4236602740
4236612018
4236620501
4236627337
4236632403
4236641619
4236647906
4236655780
4236664630
4236671099
4236678363
4236686114
4236691851
4236698260
4236706622
4236712481
4236720172
4236725726
4236734820
4236740923
4236749835
4236755328
4236763018
4236770281
4236775896
4236783953
4236790728
4236797869
4236804705
4236811602
4236817889
4236825701
4236832415
4236838030
4236844927
4236851763
4236857012
4236864336
4236872088
4236877154
4236885027
4236890825
4236897661
4236902422
4236911272
4236917315
4236923540
4236931902
4236938799
4236946367
4236952776
4236964312
4236970537
4236980425
4236988787
4236999040
4237005449
4237012041
4237018816
4237027727
4237034380
4237039690
4237049700
4237054216
4237065813
4237082231
4237091814
4237102922
4237111406
4237126298
4237134782
4237146135
4237154985
4237170061
4237182451
4237191118
4237201494
4237209123
4237221940
4237228959
4237241227
4237250199
4237261796
4237269609
4237277848
4237286820
4237295548
4237304093
4237312089
4237320024
4237327775
4237335832
4237340409
4237345109
4237350053
4237354264
4237359940
4237365006
4237371049
4237375077
4237378800
4237382890
4237387284
4237394181
4237398453
4237402360
4237406937
4237409928
4237417069
4237422440
4237426224
4237431473
4237437089
4237440934
4237445145
4237449967
4237456620
4237462967
4237466691
4237471024
4237475968
4237480485
4237485062
4237491837
4237497513
4237502274
4237506180
4237511734
4237516068
4237521927
4237525589
4237533585
4237540726
4237544754
4237549576
4237555191
4237560257
4237564347
4237571305
4237576798
4237582108
4237586808
4237592728
4237597489
4237602677
4237607987
4237613114
4237618851
4237623795
4237629166
4237635452
4237640152
4237644791
4237652237
4237657486
4237663101
4237667984
4237674759
4237677994
4237683853
4237690811
4237695938
4237703995
4237709061
4237714554
4237719925
4237726517
4237731644
4237738418
4237744339
4237750015
4237753799
4237758865
4237764419
4237770279
4237775589
4237783828
4237790054
4237795425
4237802078
4237807632
4237812942
4237816787
4237821914
4237828262
4237832595
4237838333
4237842666
4237847122
4237852432
4237855484
4237862319
4237867446
4237873672
4237878860
4237883804
4237888381
4237893020
4237897659
4237903091
4237907668
4237913284
4237918960
4237924026
4237928604
4237933425
4237939163
4237943984
4237952163
4237957534
4237963027
4237967727
4237973037
4237977309
4237983535
4237989700
4237997573
4238002273
4238007705
4238012527
4238018386
4238025100
4238031692
4238038894
4238043960
4238049026
4238053847
4238060134
4238065627
4238070998
4238076552
4238080703
4238086440
4238092666
4238098647
4238103713
4238107131
4238113234
4238118117
4238124953
4238130446
4238136733
4238141738
4238145583
4238151442
4238156447
4238162307
4238167922
4238172927
4238178725
4238183425
4238189345
4238194655
4238199965
4238205458
4238209303
4238214552
4238220046
4238226088
4238231947
4238235915
4238241408
4238246291
4238251967
4238257155
4238262404
4238268935
4238274489
4238281569
4238285048
4238291701
4238297377
4238301222
4238307631
4238312208
4238320509
4238324293
4238332167
4238338759
4238344130
4238347670
4238354628
4238364393
4238369337
4238375075
4238381910
4238385450
4238391127
4238396559
4238401930
4238407545
4238412916
4238418715
4238423903
4238429335
4238434156
4238439589
4238444349
4238449049
4238456861
4238460462
4238466139
4238472120
4238475843
4238482740
4238486219
4238492628
4238497328
4238504286
4238509779
4238515150
4238520826
4238525343
4238530714
4238535780
4238541578
4238547682
4238551710
4238558424
4238563856
4238569471
4238574415
4238579359
4238585584
4238590345
4238598157
4238601881
4238607679
4238613416
4238620069
4238624158
4238630018
4238635633
4238641614
4238647474
4238652662
4238656873
4238662610
4238667920
4238673169
4238676709
4238685621
4238690992
4238694837
4238701795
4238708143
4238713269
4238718274
4238723096
4238729566
4238735547
4238739453
4238745984
4238749707
4238755567
4238760633
4238765332
4238774671
4238779370
4238786145
4238790845
4238796521
4238801343
4238806836
4238812329
4238815991
4238822034
4238829419
4238833508
4238838818
4238844434
4238851086
4238855908
4238860974
4238865674
4238873486
4238877515
4238884473
4238889661
4238896497
4238903455
4238911572
4238919141
4238924695
4238931409
4238935315
4238942944
4238946667
4238953259
4238961560
4238968274
4238974438
4238979260
4238984265
4238989087
4238992627
4238999341
4239007580
4239012707
4239016308
4239023755
4239027295
4239033093
4239038464
4239044323
4239048535
4239055432
4239061047
4239066052
4239069653
4239076733
4239080334
4239085949
4239090161
4239098705
4239103832
4239108715
4239114941
4239120312
4239124523
4239129955
4239134777
4239140514
4239146069
4239152111
4239157116
4239162975
4239169994
4239176830
4239183971
4239190502
4239196056
4239202465
4239207531
4239213512
4239220104
4239223766
4239230907
4239236584
4239242870
4239248607
4239252880
4239258312
4239265453
4239270336
4239274242
4239281383
4239287121
4239294750
4239299633
4239306530
4239311168
4239317577
4239323497
4239328441
4239331737
4239341564
4239347728
4239352245
4239357250
4239362621
4239367321
4239373241
4239378124
4239385082
4239390026
4239395519
4239401744
4239407604
4239412425
4239418407
4239424266
4239429637
4239437328
4239442333
4239448314
4239453685
4239458873
4239465038
4239470653
4239475780
4239480846
4239491222
4239497081
4239503917
4239509349
4239514903
4239519786
4239527965
4239532970
4239539073
4239543651
4239548961
4239554881
4239560557
4239565257
4239571422
4239576182
4239581187
4239586009
4239591563
4239595775
4239601329
4239606517
4239613536
4239620005
4239625743
4239630015
4239635875
4239643870
4239647593
4239653819
4239659800
4239667185
4239673167
4239680003
4239684092
4239690013
4239695689
4239701975
4239708384
4239714060
4239720042
4239724864
4239730174
4239734812
4239740489
4239746043
4239751475
4239757517
4239762949
4239769236
4239774363
4239780833
4239785715
4239789439
4239796641
4239802866
4239807871
4239813547
4239819590
4239823923
4239830637
4239834421
4239840281
4239845530
4239853708
4239859629
4239863352
4239869211
4239875376
4239881357
4239886973
4239892710
4239897043
4239904062
4239909678
4239914438
4239919870
4239924997
4239930124
4239935984
4239943430
4239948862
4239954660
4239960825
4239964487
4239970957
4239975534
4239981699
4239986826
4239992502
4240000925
4240005258
4240011179
4240017465
4240020822
4240028513
4240032114
4240039987
4240048532
4240053842
4240059579
4240064096
4240070139
4240076242
4240080209
4240088937
4240093149
4240102487
4240107919
4240114389
4240118722
4240124338
4240130319
4240135629
4240140756
4240146493
4240151742
4240156198
4240161569
4240166940
4240173166
4240178415
4240184518
4240190194
4240195504
4240199838
4240204538
4240210946
4240216073
4240223092
4240226998
4240233407
4240238351
4240243722
4240248666
4240253915
4240258370
4240265451
4240272531
4240276376
4240283212
4240289193
4240293710
4240298959
4240304391
4240310189
4240315194
4240320931
4240326363
4240331918
4240336617
4240341317
4240346200
4240352486
4240357491
4240363961
4240370614
4240375130
4240381783
4240386910
4240392953
4240398324
4240404610
4240410653
4240416695
4240422921
4240429024
4240436165
4240440987
4240447884
4240454232
4240460335
4240466012
4240470833
4240477181
4240483101
4240488778
4240494698
4240501656
4240506844
4240512520
4240517830
4240525338
4240531624
4240537056
4240544197
4240548714
4240554695
4240560555
4240565865
4240571419
4240576241
4240581978
4240588204
4240595528
4240599800
4240606392
4240611275
4240617622
4240622505
4240629646
4240638496
4240646736
4240651375
4240657845
4240663277
4240667732
4240677254
4240682503
4240689583
4240694099
4240699715
4240705208
4240710701
4240717659
4240722969
4240728706
4240734199
4240739631
4240744575
4240750068
4240754280
4240759956
4240766548
4240772224
4240776436
4240781624
4240787422
4240792183
4240798225
4240802986
4240809394
4240814033
4240820320
4240824409
4240829963
4240834846
4240840583
4240845283
4240851814
4240857978
4240863410
4240868843
4240871955
4240877754
4240883003
4240888008
4240892951
4240900092
4240905464
4240911811
4240916450
4240919929
4240927619
4240931342
4240936836
4240944160
4240948798
4240955940
4240960273
4240965522
4240970893
4240976203
4240980842
4240988166
4240994086
4240999946
4241004401
4241009650
4241015754
4241019721
4241027656
4241033942
4241040229
4241046088
4241051703
4241055976
4241062201
4241067328
4241071723
4241078132
4241084052
4241089911
4241096808
4241102179
4241107673
4241111518
4241116767
4241122199
4241127326
4241133918
4241138434
4241143988
4241148688
4241154242
4241160346
4241168952
4241173895
4241180060
4241186530
4241191657
4241196173
4241201911
4241208075
4241215216
4241222418
4241229437
4241233832
4241238654
4241247137
4241251227
4241257636
4241266669
4241272406
4241277289
4241283026
4241288153
4241292853
4241296515
4241302618
4241310980
4241315008
4241320196
4241326300
4241329779
4241337713
4241341986
4241350592
4241354864
4241361700
4241366583
4241372686
4241376104
4241381720
4241387213
4241392584
4241398382
4241405096
4241409613
4241415350
4241420782
4241425177
4241430731
4241436773
4241442266
4241449041
4241454840
4241460394
4241465643
4241469122
4241474432
4241480169
4241486517
4241493841
4241499578
4241503912
4241509893
4241516119
4241522772
4241529485
4241536260
4241543707
4241548956
4241554876
4241561040
4241566656
4241572393
4241576726
4241584295
4241589788
4241595708
4241601873
4241607244
4241614934
4241619756
4241627386
4241634466
4241641485
4241647710
4241653142
4241659246
4241664373
4241670415
4241677068
4241681096
4241688054
4241694524
4241700261
4241705816
4241711431
4241717900
4241723333
4241728826
4241736882
4241742009
4241753728
4241759526
4241765630
4241774358
4241782109
4241789617
4241795415
4241804936
4241812200
4241820683
4241826970
4241833623
4241844060
4241854619
4241861089
4241866887
4241879399
4241888554
4241894353
4241902165
4241907231
4241915837
4241921452
4241929143
4241933720
4241939457
4241949467
4241954411
4241963810
4241971623
4241978215
4241982792
4241987675
4241995732
4242008732
4242013493
4242021305
4242028569
4242036564
4242042851
4242049443
4242054631
4242063236
4242070744
4242078434
4242086247
4242092045
4242096928
4242104191
4242109501
4242115727
4242120792
4242129643
4242134159
4242139774
4242145206
4242150578
4242155399
4242160892
4242164860
4242169682
4242175968
4242181400
4242187992
4242193241
4242197941
4242204166
4242207706
4242213871
4242220829
4242225406
4242231022
4242238163
4242242985
4242254642
4242258732
4242266483
4242273319
4242278812
4242284977
4242289859
4242296085
4242301029
4242306461
4242312381
4242317997
4242323673
4242329288
4242333805
4242339420
4242343936
4242349796
4242354618
4242359439
4242367557
4242372745
4242378360
4242382999
4242388919
4242394229
4242399600
4242404239
4242410159
4242415836
4242422244
4242427737
4242433048
4242438785
4242444339
4242450137
4242456058
4242461246
4242466861
4242473086
4242478458
4242484561
4242488467
4242495364
4242502078
4242508853
4242515628
4242521548
4242527408
4242532168
4242539065
4242544620
4242550906
4242556643
4242560855
4242567202
4242570620
4242577639
4242581302
4242586551
4242592654
4242599246
4242603457
4242610232
4242614321
4242620181
4242625552
4242630618
4242634219
4242642214
4242647891
4242652224
4242656558
4242662600
4242667361
4242672976
4242677249
4242687136
4242692263
4242697878
4242703311
4242707095
4242713198
4242720705
4242726199
4242730898
4242738345
4242743166
4242748415
4242753664
4242759707
4242764529
4242769961
4242776736
4242784243
4242789980
4242793886
4242799990
4242806216
4242812563
4242816958
4242822756
4242828982
4242833864
4242839785
4242845034
4242848025
4242854250
4242859011
4242863405
4242867373
4242874147
4242879519
4242884584
4242891237
4242895327
4242900087
4242904665
4242908998
4242915590
4242921267
4242926943
4242932131
4242937502
4242942385
4242946718
4242950930
4242960024
4242965944
4242970827
4242976137
4242981752
4242986757
4242993349
4242998354
4243004396
4243013002
4243019106
4243030153
4243037904
4243046693
4243053529
4243061647
4243071168
4243078126
4243085390
4243091432
4243100404
4243112916
4243119447
4243129884
4243138978
4243147767
4243155092
4243162721
4243169374
4243177369
4243183595
4243191652
4243196840
4243203065
4243211610
4243219117
4243223878
4243231141
4243238160
4243243714
4243251039
4243255982
4243262940
4243271546
4243278626
4243283509
4243290345
4243299073
4243306703
4243312562
4243319581
4243327088
4243333131
4243341737
4243350343
4243357240
4243362244
4243371705
4243378663
4243384217
4243393006
4243400208
4243408997
4243414734
4243419922
4243428956
4243437256
4243444153
4243450318
4243456849
4243464051
4243471558
4243480103
4243488709
4243495911
4243501526
4243509278
4243516053
4243524109
4243530152
4243535218
4243547119
4243555054
4243558228
4243568054
4243577393
4243583679
4243588684
4243597229
4243601563
4243611450
4243618469
4243626282
4243631592
4243638611
4243643433
4243651001
4243658447
4243666321
4243672851
4243680786
4243686462
4243695557
4243699585
4243707764
4243715332
4243722534
4243731201
4243735962
4243747619
4243755554
4243762146
4243768310
4243775818
4243781494
4243791259
4243799865
4243805053
4243812988
4243821838
4243829650
4243836486
4243843872
4243852600
4243858093
4243864562
4243872924
4243881957
4243889343
4243898620
4243907775
4243914001
4243922546
4243927551
4243935302
4243940429
4243948486
4243956054
4243966064
4243976134
4243984069
4243989745
4243998168
4244004638
4244011535
4244018004
4244026244
4244032409
4244039489
4244044799
4244050231
4244056090
4244060973
4244066588
4244071288
4244077758
4244083068
4244086669
4244094054
4244099059
4244103148
4244108519
4244113402
4244121337
4244126342
4244132323
4244136962
4244142394
4244147338
4244152098
4244157897
4244162718
4244168883
4244173888
4244180663
4244186156
4244191588
4244196105
4244201537
4244206419
4244212096
4244218626
4244223204
4244228392
4244233763
4244238890
4244243773
4244250609
4244255919
4244266356
4244271910
4244275938
4244282591
4244286680
4244291929
4244297240
4244302061
4244308592
4244315062
4244320799
4244325682
4244331114
4244335997
4244341429
4244346007
4244350767
4244359984
4244365965
4244370726
4244375914
4244381163
4244385923
4244391539
4244395811
4244401731
4244407164
4244413206
4244418943
4244424620
4244431761
4244435606
4244442015
4244448423
4244454588
4244460020
4244467344
4244471128
4244477354
4244484312
4244490965
4244497007
4244504026
4244510252
4244515440
4244522581
4244528867
4244535215
4244542905
4244549314
4244553953
4244559934
4244566770
4244574094
4244580991
4244587888
4244592771
4244599546
4244605894
4244611936
4244617612
4244623411
4244627805
4244632932
4244637327
4244643796
4244649900
4244654233
4244659482
4244664609
4244669431
4244674436
4244680051
4244683469
4244692807
4244696592
4244702207
4244706967
4244713864
4244718686
4244722104
4244727841
4244733701
4244739011
4244745175
4244751096
4244755368
4244761045
4244766416
4244771604
4244777402
4244783627
4244787717
4244794370
4244797727
4244803952
4244808835
4244812192
4244819882
4244823850
4244830075
4244836484
4244843503
4244847836
4244856992
4244861813
4244869687
4244874325
4244883359
4244887753
4244894101
4244900021
4244905331
4244911252
4244917111
4244921017
4244929196
4244935177
4244940915
4244946591
4244951596
4244955929
4244961239
4244967343
4244974240
4244980160
4244987912
4244993954
4245001339
4245008114
4245012875
4245021847
4245029293
4245034725
4245038510
4245045162
4245051022
4245055721
4245061825
4245067013
4245070248
4245078365
4245084042
4245088741
4245094235
4245100338
4245105221
4245110836
4245116390
4245124569
4245131100
4245137508
4245142513
4245148067
4245153072
4245158626
4245163814
4245167660
4245176815
4245183834
4245190548
4245196163
4245200802
4245206539
4245212520
4245218807
4245224849
4245228817
4245234310
4245239437
4245244320
4245250484
4245255855
4245262935
4245268978
4245274166
4245278438
4245283504
4245288265
4245293331
4245297664
4245301937
4245309688
4245313289
4245318843
4245323604
4245329402
4245333797
4245339351
4245344966
4245351985
4245358577
4245362422
4245368221
4245373592
4245378230
4245383540
4245389400
4245395137
4245400813
4245406856
4245411006
4245415706
4245421199
4245426204
4245432002
4245437007
4245441341
4245448543
4245453853
4245458919
4245464473
4245470821
4245474849
4245481258
4245485774
4245492305
4245498347
4245503657
4245507075
4245513728
4245519404
4245523677
4245528377
4245537654
4245542659
4245549434
4245554805
4245558955
4245565242
4245571589
4245576350
4245582698
4245588923
4245593623
4245598445
4245603938
4245609431
4245615107
4245621028
4245626277
4245635066
4245640498
4245646601
4245652522
4245657099
4245662470
4245667353
4245672419
4245680232
4245685786
4245691584
4245697993
4245703242
4245707575
4245712946
4245719721
4245726557
4245733088
4245738764
4245745844
4245752192
4245756098
4245764765
4245770014
4245778315
4245784907
4245788630
4245794611
4245800410
4245805781
4245810969
4245816279
4245820307
4245826777
4245832514
4245839106
4245843744
4245849604
4245855219
4245860529
4245866816
4245872431
4245878412
4245883295
4245888788
4245894770
4245900568
4245906183
4245911859
4245917719
4245922052
4245926935
4245931879
4245937982
4245942987
4245946466
4245953852
4245961969
4245967706
4245971979
4245978449
4245984613
4245990045
4245996210
4246001154
4246007623
4246014948
4246019220
4246025446
4246030939
4246034906
4246039972
4246046075
4246051324
4246059198
4246064386
4246069696
4246074640
4246080194
4246084711
4246090509
4246095758
4246100274
4246106683
4246112665
4246117853
4246122064
4246127435
4246132318
4246138482
4246143792
4246150628
4246154535
4246161981
4246167169
4246171258
4246177240
4246183282
4246189508
4246194513
4246201043
4246207086
4246211358
4246216912
4246223016
4246226495
4246233148
4246237969
4246244866
4246250665
4246257440
4246263970
4246269586
4246274468
4246280206
4246286309
4246292535
4246300286
4246304681
4246310784
4246316949
4246322686
4246328179
4246333001
4246339410
4246344781
4246351434
4246359246
4246363274
4246369866
4246375909
4246380913
4246389519
4246395440
4246399651
4246405633
4246410882
4246415703
4246421135
4246426568
4246432427
4246439019
4246443718
4246449639
4246455193
4246460320
4246463860
4246470086
4246475029
4246482170
4246486077
4246492730
4246497551
4246501152
4246506951
4246512322
4246518425
4246523491
4246530815
4246536919
4246542046
4246548332
4246553703
4246557671
4246564751
4246571098
4246577263
4246583122
4246587639
4246592583
4246599236
4246604057
4246607475
4246614922
4246621574
4246626884
4246630547
4246637077
4246644829
4246649651
4246655693
4246661430
4246668083
4246674309
4246680290
4246685783
4246691093
4246695793
4246701347
4246705986
4246711174
4246717155
4246722648
4246729301
4246734428
4246738517
4246745720
4246750053
4246755851
4246761650
4246767570
4246771843
4246777763
4246783134
4246788322
4246793937
4246800163
4246803581
4246811821
4246818534
4246823966
4246828605
4246833610
4246837333
4246842216
4246847282
4246851493
4246859123
4246863029
4246869132
4246875236
4246880485
4246886527
4246892143
4246899345
4246904960
4246911369
4246918205
4246922599
4246929252
4246935355
4246942008
4246947013
4246955253
4246960929
4246965812
4246971305
4246976554
4246982352
4246987601
4246993155
4246998405
4247004447
4247009391
4247013480
4247020499
4247023917
4247029960
4247036796
4247042594
4247048087
4247053824
4247059501
4247063712
4247070243
4247074454
4247081290
4247086051
4247091544
4247095755
4247101371
4247107413
4247114859
4247119803
4247128287
4247134635
4247141348
4247146903
4247152152
4247157034
4247161612
4247168753
4247174124
4247179434
4247185538
4247190970
4247196463
4247201834
4247209036
4247214713
4247220816
4247226431
4247233023
4247239004
4247244681
4247250906
4247256033
4247264090
4247269583
4247274771
4247280264
4247285025
4247289602
4247297598
4247304251
4247309317
4247317251
4247324026
4247334890
4247339102
4247347220
4247352713
4247359488
4247365347
4247371267
4247377188
4247383413
4247387136
4247395681
4247401602
4247405996
4247412344
4247417593
4247422781
4247429739
4247435049
4247443044
4247448355
4247451956
4247458914
4247464773
4247470571
4247475942
4247481374
4247486746
4247494680
4247501028
4247506948
4247511221
4247516836
4247522451
4247528738
4247533804
4247541738
4247547048
4247551870
4247556997
4247561758
4247566213
4247571950
4247576284
4247583120
4247587881
4247593618
4247598256
4247604970
4247609792
4247613210
4247620595
4247625051
4247633046
4247638601
4247643117
4247649282
4247655568
4247662893
4247668081
4247672231
4247678395
4247684011
4247691457
4247695180
4247702260
4247707814
4247712270
4247718007
4247724233
4247731130
4247735951
4247741445
4247746327
4247751821
4247757741
4247764150
4247769948
4247775685
4247780080
4247785695
4247791371
4247796742
4247801381
4247806203
4247813100
4247818410
4247822133
4247829640
4247833180
4247838612
4247844105
4247849232
4247855214
4247861867
4247867543
4247872487
4247877919
4247883229
4247888722
4247894459
4247899769
4247906605
4247911915
4247915883
4247923268
4247927479
4247933400
4247940297
4247946034
4247950551
4247957936
4247964589
4247970631
4247976185
4247980824
4247986378
4247990162
4247996571
4248004383
4248009449
4248015003
4248018971
4248024342
4248041615
4248050038
4248055714
4248062061
4248067982
4248073414
4248080250
4248088001
4248094654
4248100086
4248107899
4248114735
4248120777
4248125843
4248131275
4248137379
4248142261
4248146351
4248152149
4248159656
4248165333
4248169910
4248173206
4248180530
4248184009
4248189197
4248196277
4248201587
4248207020
4248212574
4248217579
4248222522
4248228077
4248233143
4248239002
4248243946
4248250049
4248254566
4248260059
4248266468
4248269764
4248275684
4248281910
4248287830
4248292896
4248298755
4248303455
4248309192
4248313648
4248319141
4248325061
4248329639
4248335681
4248341663
4248346485
4248352039
4248357776
4248363330
4248368579
4248374378
4248380542
4248386096
4248390552
4248395557
4248401965
4248406787
4248412341
4248416736
4248423816
4248428088
4248434192
4248440906
4248444995
4248451587
4248458118
4248465747
4248470202
4248478442
4248482654
4248491382
4248495776
4248501636
4248508777
4248515796
4248520984
4248528064
4248534472
4248541491
4248550219
4248558032
4248561633
4248568835
4248574206
4248578234
4248585742
4248592700
4248596118
4248602648
4248608569
4248613024
4248617663
4248626940
4248631762
4248637194
4248642138
4248648974
4248653857
4248660143
4248665576
4248669848
4248678881
4248685412
4248690356
4248695910
4248700793
4248707018
4248712389
4248718676
4248724718
4248729723
4248735522
4248740771
4248745531
4248750597
4248754931
4248760607
4248766161
4248772570
4248778490
4248783983
4248789965
4248795214
4248799486
4248805407
4248811754
4248817919
4248822435
4248827746
4248833239
4248838610
4248844530
4248850573
4248858263
4248864305
4248869677
4248875109
4248879198
4248884142
4248889757
4248894396
4248901049
4248907518
4248912950
4248918016
4248924974
4248930834
4248938585
4248944505
4248949022
4248955065
4248961595
4248969591
4248974230
4248980760
4248986986
4248994249
4248999193
4249005418
4249011583
4249016466
4249022935
4249028612
4249034166
4249038866
4249043809
4249051256
4249059190
4249065172
4249069749
4249076219
4249081468
4249085985
4249091356
4249096361
4249102586
4249108018
4249113145
4249118150
4249123338
4249128648
4249135667
4249140001
4249147142
4249151292
4249157457
4249161973
4249165269
4249170884
4249176866
4249185166
4249191148
4249196397
4249205003
4249210984
4249218553
4249224595
4249232835
4249238450
4249244554
4249251267
4249259202
4249264512
4249272447
4249278306
4249285325
4249292771
4249298081
4249303757
4249310105
4249315110
4249319138
4249324265
4249331162
4249336106
4249340195
4249346604
4249350571
4249356003
4249360581
4249367661
4249373459
4249379380
4249385483
4249390915
4249395859
4249401230
4249405442
4249411240
4249418137
4249422532
4249429001
4249432358
4249438340
4249443283
4249448960
4249453171
4249460801
4249467209
4249472947
4249477646
4249484543
4249491135
4249496628
4249501877
4249508957
4249513657
4249520188
4249525376
4249533005
4249538742
4249544052
4249549179
4249555771
4249561997
4249569992
4249575058
4249581833
4249587570
4249594040
4249601181
4249604172
4249613083
4249619186
4249623764
4249630051
4249636093
4249642685
4249649216
4249655929
4249662887
4249667709
4249674423
4249681076
4249687118
4249691208
4249698776
4249704391
4249712448
4249718185
4249725082
4249730758
4249735641
4249742721
4249748947
4249754074
4249760360
4249767196
4249773422
4249777511
4249783615
4249790695
4249796005
4249799850
4249805343
4249812789
4249822433
4249828536
4249833358
4249839523
4249845016
4249851058
4249856429
4249860336
4249870284
4249877303
4249884261
4249889999
4249895736
4249901534
4249907027
4249911849
4249917831
4249926376
4249931869
4249936446
4249941756
4249946212
4249951278
4249956893
4249962447
4249967208
4249975204
4249979720
4249985274
4249990828
4249996810
4250001815
4250007918
4250015242
4250021041
4250025863
4250031783
4250038619
4250044173
4250049666
4250054305
4250061263
4250066878
4250071212
4250076888
4250082930
4250086165
4250092574
4250100997
4250106978
4250112715
4250117171
4250122054
4250127669
4250132430
4250137679
4250141890
4250148787
4250155257
4250161238
4250166670
4250172041
4250176985
4250182539
4250187666
4250190901
4250198836
4250204512
4250208418
4250213789
4250220930
4250226118
4250230208
4250235579
4250241438
4250247237
4250253279
4250258772
4250265242
4250273787
4250278670
4250286787
4250292097
4250300825
4250307478
4250314924
4250321150
4250325789
4250331953
4250337080
4250343916
4250351545
4250356245
4250362349
4250368269
4250373640
4250378706
4250382612
4250389997
4250397444
4250402571
4250409712
4250415449
4250423261
4250430036
4250436811
4250442549
4250447248
4250456098
4250460188
4250469343
4250474348
4250481306
4250487836
4250493635
4250501020
4250508588
4250514631
4250522077
4250525617
4250531721
4250537092
4250542585
4250548017
4250553083
4250558881
4250563886
4250569318
4250575849
4250579877
4250585370
4250591047
4250597516
4250603437
4250608136
4250613447
4250619245
4250624738
4250629987
4250634626
4250641217
4250644941
4250651288
4250656293
4250662885
4250667829
4250673017
4250677411
4250686200
4250691144
4250697003
4250701398
4250707074
4250712628
4250718549
4250723798
4250730939
4250737348
4250743512
4250749005
4250754559
4250759564
4250765485
4250770856
4250776166
4250783368
4250788922
4250794720
4250801129
4250806805
4250812421
4250821271
4250827191
4250832623
4250838360
4250844769
4250852399
4250859051
4250863934
4250869855
4250875287
4250882489
4250889142
4250895672
4250901959
4250906537
4250913128
4250917584
4250923993
4250930035
4250935894
4250942364
4250947369
4250952679
4250959088
4250963787
4250969952
4250975567
4250980389
4250986065
4250992474
4250998455
4251002178
4251009747
4251015118
4251020611
4251025311
4251030377
4251039105
4251045635
4251050762
4251056988
4251062908
4251068890
4251073895
4251079083
4251086651
4251093182
4251100140
4251105938
4251113018
4251121014
4251126507
4251132427
4251139141
4251145550
4251150188
4251156414
4251161358
4251166668
4251171856
4251177471
4251182049
4251188823
4251193462
4251199260
4251205425
4251209820
4251215618
4251221355
4251226909
4251232586
4251237224
4251242778
4251248149
4251252788
4251258770
4251263469
4251268840
4251275432
4251281169
4251285930
4251289470
4251295330
4251301433
4251308452
4251313091
4251320964
4251326152
4251332561
4251336955
4251343547
4251347148
4251354106
4251359477
4251364421
4251373210
4251378947
4251383586
4251388164
4251394328
4251400127
4251406474
4251412700
4251418742
4251425029
4251430583
4251434550
4251441081
4251446513
4251454021
4251458781
4251466838
4251471782
4251478374
4251484782
4251489177
4251495891
4251500224
4251505473
4251510722
4251518596
4251525187
4251530497
4251535868
4251539714
4251546977
4251553080
4251558573
4251563395
4251569926
4251575846
4251580119
4251585612
4251590922
4251596171
4251602458
4251608073
4251612345
4251620768
4251624858
4251632548
4251636698
4251642802
4251649333
4251654521
4251660380
4251669169
4251675089
4251679606
4251685648
4251691874
4251698222
4251704752
4251710612
4251716410
4251724894
4251731974
4251737162
4251742960
4251747843
4251754679
4251759684
4251765360
4251770426
4251776285
4251781473
4251787027
4251791483
4251796427
4251801737
4251807901
4251812845
4251820170
4251824320
4251830301
4251835672
4251840921
4251846415
4251851969
4251858011
4251863321
4251869852
4251874735
4251880899
4251886270
4251891458
4251897257
4251901895
4251906656
4251914652
4251920755
4251926004
4251931741
4251936990
4251942850
4251947550
4251954385
4251961221
4251967691
4251972757
4251978311
4251983255
4251988687
4251994608
4251999246
4252006570
4252011636
4252018289
4252025064
4252029520
4252036050
4252040689
4252047281
4252050943
4252059427
4252065164
4252071390
4252078164
4252084329
4252089822
4252095315
4252099954
4252106546
4252113565
4252119790
4252125467
4252131021
4252136453
4252142862
4252148416
4252154275
4252159463
4252166238
4252171853
4252175393
4252182473
4252188211
4252192666
4252199990
4252207742
4252214272
4252223001
4252229165
4252237771
4252245644
4252250283
4252259255
4252266641
4252272195
4252279885
4252292702
4252300881
4252307656
4252313515
4252322549
4252328103
4252333596
4252341653
4252350503
4252361367
4252368935
4252375954
4252385354
4252393227
4252399819
4252408425
4252413979
4252424294
4252430764
4252438759
4252444130
4252451027
4252457741
4252462685
4252468239
4252474160
4252482033
4252488014
4252493569
4252496865
4252503639
4252509316
4252513832
4252518532
4252525124
4252530007
4252536293
4252541237
4252547218
4252552101
4252557716
4252562111
4252567848
4252574562
4252578407
4252584389
4252590248
4252595680
4252601234
4252607216
4252613319
4252620033
4252626381
4252630714
4252636207
4252641701
4252647072
4252652870
4252658607
4252663917
4252669044
4252675758
4252681312
4252686317
4252690956
4252697426
4252702308
4252707557
4252714454
4252718361
4252723182
4252728798
4252735511
4252740944
4252745094
4252751319
4252760047
4252766456
4252770545
4252776222
4252781715
4252787147
4252793251
4252798438
4252802711
4252811378
4252816444
4252820594
4252826454
4252834022
4252837867
4252845619
4252849830
4252856910
4252863624
4252869300
4252876441
4252882362
4252887244
4252892738
4252900733
4252906226
4252913856
4252919898
4252926002
4252934058
4252940162
4252946448
4252953589
4252958228
4252966468
4252970374
4252977515
4252985877
4252990516
4252996924
4253004371
4253011145
4253018287
4253024390
4253030860
4253036475
4253043799
4253049536
4253055945
4253060767
4253067054
4253072303
4253078589
4253084265
4253088660
4253094031
4253100562
4253106543
4253111487
4253116736
4253121741
4253126685
4253132971
4253137427
4253143225
4253150183
4253154334
4253161536
4253166541
4253170935
4253176306
4253182227
4253186377
4253193884
4253200049
4253206091
4253211645
4253216650
4253220190
4253227148
4253232458
4253238623
4253244299
4253251379
4253256872
4253264319
4253270422
4253277502
4253283911
4253293982
4253301611
4253307104
4253314306
4253322424
4253329748
4253337255
4253343115
4253351904
4253358557
4253366308
4253374548
4253381384
4253388403
4253398657
4253406042
4253415136
4253422521
4253431249
4253440832
4253447057
4253452490
4253461584
4253470190
4253477209
4253482641
4253488561
4253497655
4253507543
4253515234
4253521276
4253530981
4253536169
4253541479
4253551244
4253557531
4253563451
4253570836
4253576879
4253586034
4253594335
4253603246
4253610631
4253620397
4253627416
4253637731
4253643590
4253650365
4253661168
4253668309
4253676610
4253685765
4253691442
4253700658
4253706639
4253716527
4253723729
4253731786
4253744420
4253751012
4253761449
4253768529
4253773717
4253782506
4253789830
4253798680
4253805943
4253816563
4253823765
4253829564
4253836827
4253843480
4253848729
4253855748
4253864049
4253871983
4253878087
4253885411
4253890049
4253897984
4253903904
4253911595
4253917515
4253925511
4253932530
4253940281
4253944920
4253952244
4253959141
4253966099
4253971043
4253977635
4253984287
4253989598
4253995579
4254001682
4254005833
4254011265
4254016148
4254021397
4254026158
4254033299
4254038303
4254044163
4254049290
4254055759
4254061436
4254069065
4254075169
4254079502
4254087925
4254092380
4254097935
4254104038
4254109531
4254115635
4254121128
4254127109
4254133335
4254139866
4254144810
4254150120
4254154331
4254160984
4254167087
4254173069
4254180027
4254185032
4254191868
4254197178
4254203281
4254207859
4254213169
4254219394
4254224704
4254230747
4254236423
4254243747
4254248935
4254252964
4254259738
4254265476
4254270725
4254274997
4254282932
4254289035
4254293247
4254298435
4254306125
4254311679
4254316318
4254323154
4254328830
4254336887
4254344943
4254350986
4254355685
4254363925
4254372348
4254377231
4254385471
4254394565
4254402438
4254412021
4254418063
4254423068
4254432162
4254443088
4254451632
4254460849
4254469882
4254479098
4254490207
4254498385
4254505587
4254511081
4254519015
4254527133
4254535006
4254540622
4254547457
4254555636
4254563998
4254568881
4254574069
4254582369
4254590975
4254598422
4254614230
4254638155
4254649264
4254660677
4254671236
4254682162
4254691134
4254699679
4254708773
4254718539
4254723116
4254733492
4254737765
4254743624
4254749850
4254755037
4254760286
4254766085
4254771212
4254775545
4254780672
4254785494
4254790377
4254795931
4254801058
4254807833
4254813387
4254819307
4254825289
4254830965
4254836153
4254842379
4254848421
4254854158
4254860628
4254867647
4254872774
4254878694
4254885042
4254888338
4254894563
4254900118
4254906465
4254912569
4254917452
4254922090
4254927644
4254933382
4254938936
4254945345
4254952364
4254957979
4254963350
4254968660
4254972566
4254977693
4254987642
4254992342
4254999055
4255004732
4255010591
4255016450
4255021272
4255028535
4255035371
4255039522
4255044832
4255050569
4255055879
4255062471
4255067964
4255074739
4255083223
4255087800
4255094697
4255099702
4255106172
4255112397
4255119050
4255125703
4255129792
4255135652
4255139924
4255143098
4255149018
4255154878
4255159516
4255165315
4255170137
4255174531
4255179658
4255185212
4255190766
4255198030
4255204255
4255208833
4255214448
4255219575
4255225739
4255231416
4255237153
4255242341
4255247224
4255253815
4255258576
4255262727
4255268220
4255276093
4255281220
4255285676
4255292512
4255297761
4255302643
4255309174
4255314179
4255321198
4255323579
4255325715
4255327668
4255330170
4255332184
4255334382
4255336213
4255338532
4255340485
4255342682
4255345063
4255347016
4255349640
4255351899
4255354767
4255358124
4255360505
4255363251
4255365204
4255367341
4255369355
4255371369
4255373810
4255375763
4255377717
4255379548
4255381745
4255383637
4255385834
4255388215
4255390046
4255392060
4255393952
4255395966
4255398591
4255400605
4255402924
4255404938
4255407074
4255409577
4255411591
4255413727
4255416352
4255418549
4255420685
4255423737
4255426789
4255429108
4255431000
4255433197
4255435150
4255437714
4255439850
4255441925
4255443940
4255445893
4255447907
4255449860
4255452118
4255454132
4255456024
4255458466
4255460358
4255462616
4255464691
4255466461
4255468964
4255471039
4255473297
4255475189
4255477570
4255480011
4255482453
4255484894
4255486969
4255490082
4255492401
4255494904
4255497406
4255499359
4255501679
4255503815
4255506073
4255507965
4255510224
4255512360
4255514374
4255516327
4255518280
4255520722
4255522675
4255524811
4255527130
4255529083
4255531830
4255533844
4255536224
4255538300
4255540253
4255542938
4255544952
4255546845
4255548981
4255551605
4255554169
4255556793
4255559235
4255561066
4255563690
4255565460
4255567719
4255569916
4255571686
4255574249
4255576263
4255578461
4255580475
4255582489
4255584503
4255586700
4255588592
4255590607
4255592621
4255594757
4255596893
4255599274
4255601349
4255603668
4255605682
4255608002
4255609955
4255612396
4255614654
4255616730
4255619537
4255622467
4255624847
4255626739
4255628815
4255630890
4255632782
4255634735
4255637115
4255639068
4255641205
4255643158
4255645355
4255647430
4255649444
4255651947
4255654205
4255656097
4255658050
4255660309
4255662323
4255664459
4255666595
4255668548
4255670929
4255673431
4255675811
4255678253
4255680206
4255682708
4255685455
4255687957
4255690155
4255692230
4255694549
4255696502
4255698517
4255700409
4255702179
4255704315
4255706939
4255709381
4255712066
4255714569
4255716522
4255718475
4255721038
4255722808
4255724701
4255726654
4255728424
4255730499
4255732757
4255734649
4255736602
4255738617
4255740448
4255742523
4255745574
4255747833
4255751129
4255753631
4255756134
4255758514
4255760406
4255762359
4255764434
4255766448
4255768524
4255770416
4255772796
4255774688
4255776336
4255778839
4255780792
4255782989
4255784942
4255787383
4255789520
4255791534
4255794097
4255796111
4255798126
4255800628
4255803008
4255804778
4255806793
4255809051
4255811981
4255814727
4255818267
4255822479
4255826629
4255829070
4255831451
4255833587
4255835662
4255837737
4255839568
4255841888
4255843780
4255845489
4255848113
4255850555
4255852874
4255855071
4255857330
4255859100
4255860931
4255863128
4255865142
4255867461
4255869720
4255871795
4255873931
4255875823
4255877776
4255879729
4255882415
4255884856
4255887603
4255890472
4255893218
4255896087
4255898040
4255900359
4255902251
4255904265
4255906341
4255908416
4255910552
4255912322
4255914336
4255917998
4255919951
4255922637
4255924590
4255926665
4255929961
4255931853
4255934112
4255936248
4255938506
4255940276
4255942962
4255944976
4255946868
4255948638
4255951385
4255953582
4255956145
4255959136
4255962005
4255964263
4255966582
4255968718
4255970550
4255972991
4255975249
4255977385
4255979583
4255981963
4255983733
4255985625
4255987761
4255989776
4255991912
4255993926
4255995940
4255997954
4255999907
4256002349
4256004363
4256006621
4256009856
4256012542
4256015837
4256018950
4256022002
4256025481
4256028655
4256031585
4256034758
4256037993
4256040923
4256044097
4256047454
4256050444
4256053618
4256056853
4256061064
4256064360
4256067839
4256071807
4256076018
4256079558
4256083464
4256087370
4256092620
4256097075
4256101470
4256107207
4256111907
4256116789
4256122466
4256128142
4256133086
4256137969
4256143218
4256149382
4256153838
4256157744
4256161528
4256166472
4256170744
4256176176
4256180327
4256185149
4256190337
4256195463
4256200346
4256204497
4256208403
4256213042
4256217741
4256221831
4256226347
4256230498
4256235136
4256239348
4256244780
4256249052
4256253569
4256258207
4256263090
4256269011
4256272917
4256277739
4256282744
4256286711
4256292265
4256296110
4256301725
4256306852
4256311735
4256316557
4256321623
4256326750
4256331877
4256336393
4256340422
4256344755
4256349272
4256354826
4256359587
4256364408
4256369352
4256373197
4256378263
4256382963
4256386564
4256391447
4256395597
4256399748
4256404203
4256409391
4256414762
4256420377
4256425016
4256429350
4256434721
4256439298
4256442045
4256448331
4256452421
4256457914
4256462858
4256467619
4256483976
4256487760
4256493375
4256498807
4256503141
4256508512
4256512784
4256518094
4256522123
4256527067
4256531400
4256536344
4256541349
4256546903
4256554715
4256559232
4256565091
4256569913
4256574430
4256579618
4256584317
4256591459
4256595853
4256602018
4256606839
4256612821
4256617215
4256621854
4256628812
4256635648
4256641141
4256646817
4256653226
4256657743
4256663175
4256671720
4256678311
4256683621
4256689420
4256694180
4256699674
4256706021
4256710355
4256718289
4256724149
4256728421
4256733487
4256738492
4256743863
4256748502
4256754666
4256760770
4256768948
4256774380
4256780484
4256785367
4256791653
4256797085
4256801907
4256805020
4256811185
4256817166
4256821866
4256826626
4256832364
4256839871
4256846402
4256851407
4256856656
4256861722
4256867520
4256873562
4256877530
4256883938
4256889981
4256894864
4256899929
4256905667
4256910000
4256914517
4256920437
4256927212
4256932461
4256938504
4256944119
4256950527
4256954312
4256960842
4256967739
4256973110
4256978359
4256984097
4256989895
4256995938
4256999905
4257005032
4257011746
4257017117
4257024136
4257029446
4257035244
4257040188
4257046597
4257051540
4257058071
4257066189
4257072414
4257077724
4257083950
4257088528
4257093899
4257099575
4257104641
4257111538
4257118801
4257124477
4257129970
4257134182
4257141811
4257147487
4257155056
4257160732
4257169216
4257174099
4257181484
4257189479
4257194423
4257203457
4257211574
4257217556
4257223842
4257229641
4257243251
4257249904
4257257106
4257266017
4257274196
4257284694
4257291957
4257300807
4257308437
4257317836
4257325710
4257332118
4257338649
4257351039
4257360255
4257366603
4257374782
4257380763
4257388026
4257399013
4257404994
4257413539
4257418910
4257428493
4257435878
4257445216
4257451930
4257460109
4257466212
4257472316
4257480555
4257487269
4257494654
4257501307
4257507533
4257516749
4257524684
4257532252
4257538172
4257544886
4257553187
4257559230
4257566249
4257571375
4257581202
4257590357
4257597315
4257603480
4257609705
4257616969
4257622279
4257631251
4257639796
4257642542
4257655909
4257664637
4257672327
4257679285
4257688502
4257698267
4257705836
4257711756
4257723108
4257728602
4257738062
4257745569
4257755518
4257763758
4257772852
4257780481
4257789698
4257797449
4257806116
4257812647
4257820764
4257826685
4257836512
4257846460
4257852747
4257862818
4257869837
4257878320
4257886865
4257893518
4257900964
4257909815
4257920801
4257927759
4257936670
4257942712
4257953882
4257960291
4257966394
4257976831
4257986291
4257992029
4258000635
4258006616
4258016809
4258024133
4258034936
4258041772
4258048181
4258056115
4258061609
4258069848
4258075341
4258084924
4258089868
4258099633
4258108545
4258115319
4258122644
4258130273
4258136071
4258144677
4258151086
4258158776
4258166711
4258171899
4258183007
4258192407
4258197656
4258206078
4258212609
4258220178
4258226037
4258232934
4258242089
4258251244
4258257714
4258267113
4258274987
4258280968
4258290368
4258299828
4258306969
4258316674
4258324120
4258333520
4258340966
4258354332
4258362084
4258369469
4258374535
4258383141
4258389183
4258398461
4258404320
4258412621
4258417870
4258425743
4258432518
4258437401
4258446739
4258454674
4258467797
4258475975
4258482018
4258486778
4258494103
4258500328
4258507835
4258514183
4258521874
4258530174
4258535667
4258544334
4258548485
4258556053
4258562279
4258569908
4258575767
4258582970
4258588463
4258598595
4258607628
4258615196
4258621239
4258628502
4258635582
4258641685
4258649559
4258657921
4258665794
4258671714
4258681114
4258688316
4258693626
4258700950
4258709007
4258716026
4258721519
4258730857
4258738365
4258744651
4258752159
4258760703
4258767173
4258772239
4258781028
4258787803
4258793907
4258803184
4258811973
4258817039
4258823997
4258832175
4258839011
4258847068
4258852988
4258861106
4258868125
4258875754
4258881919
4258888816
4258897056
4258903586
4258908652
4258917991
4258924399
4258930503
4258940146
4258946250
4258953574
4258958335
4258965232
4258971701
4258979941
4258986472
4258991965
4259001670
4259009970
4259014670
4259021811
4259029624
4259035300
4259043479
4259050681
4259057517
4259062705
4259073203
4259079428
4259086203
4259093955
4259102255
4259107199
4259115927
4259123068
4259131125
4259139487
4259146628
4259154196
4259161215
4259166098
4259175497
4259182394
