4079352838
4079357965
4079361627
4079366021
4079371453
4079376031
4079380486
4079384820
4079390374
4079395318
4079399224
4079404839
4079409844
4079415582
4079420525
4079425103
4079430169
4079434075
4079439446
4079444390
4079448968
4079455132
4079460137
4079465691
4079471184
4079476128
4079480767
4079488152
4079493828
4079500359
4079507439
4079514031
4079520012
4079527215
4079533867
4079541008
4079546990
4079553338
4079561272
4079568718
4079575310
4079582512
4079589348
4079595696
4079601799
4079609124
4079616570
4079622307
4079630669
4079637139
4079643242
4079651238
4079656426
4079665154
4079671868
4079677910
4079684990
4079692314
4079700371
4079707939
4079715202
4079722893
4079728447
4079736443
4079743706
4079750847
4079754875
4079768120
4079774589
4079783317
4079790459
4079797783
4079804680
4079813164
4079819633
4079830131
4079837944
4079845024
4079851432
4079858635
4079868522
4079875785
4079883720
4079892265
4079899406
4079907157
4079915092
4079925163
4079933158
4079939933
4079948539
4079954276
4079964103
4079968192
4079979362
4079985954
4079993156
4080000663
4080009208
4080017692
4080023551
4080032523
4080040275
4080046867
4080055778
4080061393
4080069266
4080073356
4080083365
4080091056
4080098258
4080105094
4080110770
4080119193
4080123649
4080135489
4080141288
4080148368
4080155997
4080163321
4080170279
4080176322
4080186271
4080193656
4080200980
4080208426
4080214225
4080220816
4080226432
4080236930
4080241873
4080251273
4080258536
4080266165
4080272574
4080281363
4080289847
4080296683
4080304007
4080312491
4080318350
4080326346
4080333426
4080340323
4080348807
4080353873
4080362540
4080368399
4080376517
4080382681
4080392142
4080401236
4080408682
4080415640
4080421988
4080430777
4080438589
4080445669
4080453848
4080461233
4080467459
4080472769
4080482290
4080489981
4080497061
4080505423
4080512625
4080518606
4080524526
4080535086
4080539114
4080549002
4080557302
4080563650
4080571890
4080577505
4080585256
4080588857
4080600576
4080608450
4080615591
4080623098
4080629568
4080637197
4080641164
4080650503
4080659292
4080666494
4080673940
4080680166
4080689138
4080693471
4080704030
4080712453
4080718129
4080726919
4080732900
4080741750
4080749929
4080758779
4080766103
4080774343
4080782338
4080788381
4080796315
4080803884
4080811818
4080817922
4080827321
4080834096
4080841298
4080848439
4080855947
4080864186
4080871938
4080880238
4080888356
4080895680
4080902882
4080908620
4080918446
4080926869
4080935048
4080939626
4080948354
4080955922
4080963002
4080971364
4080979237
4080987172
4080993703
4081002553
4081007008
4081015614
4081019703
4081031910
4081038746
4081046132
4081053090
4081059315
4081067372
4081075184
4081084401
4081090687
4081101124
4081108753
4081114491
4081125721
4081134083
4081145680
4081153065
4081160267
4081168141
4081174122
4081181629
4081191761
4081199696
4081206715
4081213673
4081221058
4081228809
4081236317
4081242237
4081251881
4081256824
4081266773
4081274341
4081281544
4081288380
4081295948
4081304432
4081310291
4081317493
4081325916
4081332081
4081338978
4081344654
4081354664
4081363880
4081370655
4081378772
4081385486
4081392749
4081398426
4081403736
4081409412
4081413562
4081418506
4081422779
4081427295
4081432971
4081437122
4081441028
4081445911
4081450000
4081455310
4081458728
4081464343
4081468555
4081472339
4081478137
4081481738
4081486499
4081491748
4081496326
4081501209
4081505908
4081511279
4081518726
4081523120
4081528857
4081534167
4081539111
4081543506
4081548267
4081552417
4081558765
4081564014
4081569079
4081574634
4081579028
4081583118
4081587817
4081593005
4081600146
4081604541
4081611255
4081617663
4081622790
4081628161
4081632068
4081638049
4081642932
4081647326
4081651904
4081656848
4081661059
4081665332
4081667712
4081675952
4081679858
4081684130
4081686511
4081692492
4081696521
4081701342
4081706164
4081710559
4081715441
4081720080
4081723803
4081728381
4081732409
4081737353
4081742907
4081747424
4081752734
4081758410
4081763476
4081767931
4081773058
4081777087
4081783679
4081788195
4081793139
4081798510
4081804064
4081808337
4081813525
4081818041
4081825854
4081830614
4081836169
4081840563
4081848009
4081853564
4081859362
4081863573
4081870531
4081873705
4081880358
4081884997
4081890429
4081894945
4081899462
4081904955
4081910753
4081915209
4081919787
4081925463
4081930895
4081936144
4081943224
4081949083
4081954699
4081959887
4081964708
4081968981
4081974535
4081980028
4081984423
4081988268
4081994921
4081999559
4082005724
4082010118
4082016344
4082021593
4082029100
4082035021
4082041979
4082047777
4082052599
4082059618
4082064928
4082069628
4082076647
4082081590
4082086595
4082094530
4082100023
4082105455
4082108690
4082115343
4082119859
4082126634
4082131822
4082140977
4082149278
4082155382
4082161668
4082165941
4082170701
4082176378
4082181993
4082186754
4082192491
4082197496
4082203905
4082208909
4082213487
4082217882
4082225694
4082228990
4082235582
4082240342
4082245408
4082249620
4082254991
4082258897
4082268174
4082272874
4082278123
4082282273
4082288743
4082292344
4082299180
4082303819
4082309007
4082313706
4082319566
4082327073
4082333055
4082337937
4082342820
4082348374
4082353929
4082360032
4082364060
4082369676
4082375047
4082379258
4082385667
4082389939
4082393235
4082401536
4082405869
4082415330
4082420335
4082425767
4082430650
4082434861
4082440903
4082447983
4082451951
4082458054
4082463242
4082469102
4082472703
4082479600
4082484177
4082490647
4082495530
4082500718
4082507371
4082512620
4082516831
4082522019
4082527756
4082534653
4082539170
4082545884
4082550278
4082555161
4082560837
4082566636
4082570969
4082574143
4082583847
4082587754
4082594040
4082599411
4082605088
4082609909
4082615708
4082620407
4082625717
4082632248
4082637619
4082642014
4082649155
4082656540
4082663010
4082669602
4082676621
4082683212
4082692551
4082698105
4082706162
4082711594
4082718307
4082723434
4082731552
4082735702
4082742233
4082746017
4082751511
4082755844
4082761886
4082766220
4082769516
4082779342
4082783310
4082790329
4082793625
4082800827
4082804367
4082810776
4082816086
4082822616
4082827560
4082833419
4082837570
4082843734
4082848068
4082854416
4082858566
4082861801
4082871078
4082876815
4082882614
4082886032
4082891952
4082896652
4082902694
4082907455
4082913497
4082918441
4082923995
4082928268
4082933700
4082939437
4082944564
4082950118
4082954330
4082960616
4082966354
4082970687
4082977218
4082982345
4082985885
4082994369
4082999740
4083006454
4083012374
4083016830
4083021468
4083026900
4083031051
4083036849
4083042586
4083048690
4083052901
4083059676
4083064071
4083069930
4083074264
4083080367
4083084579
4083087813
4083096297
4083099959
4083106856
4083110457
4083118331
4083123824
4083128035
4083132613
4083140365
4083143721
4083151046
4083156173
4083160506
4083166426
4083171675
4083176070
4083183699
4083188216
4083194503
4083200179
4083205428
4083209639
4083215560
4083219771
4083224532
4083231734
4083235396
4083241683
4083246810
4083253157
4083259322
4083264327
4083269820
4083279036
4083286055
4083292464
4083300154
4083306807
4083311568
4083316573
4083320723
4083327315
4083331648
4083337935
4083342085
4083348006
4083354109
4083358809
4083364363
4083369307
4083375105
4083381453
4083385847
4083391218
4083396895
4083398848
4083406782
4083410017
4083417891
4083421553
4083428267
4083433577
4083438520
4083443159
4083449080
4083453779
4083458723
4083465132
4083471785
4083476606
4083483931
4083487776
4083496565
4083500837
4083509382
4083515364
4083520552
4083523908
4083532087
4083536299
4083541914
4083547041
4083555464
4083559736
4083567548
4083573713
4083578108
4083583662
4083589094
4083594526
4083601362
4083606977
4083611372
4083616499
4083623395
4083628889
4083633771
4083638349
4083644697
4083649641
4083654829
4083659223
4083664838
4083669050
4083675214
4083680829
4083685651
4083693342
4083699628
4083703962
4083707258
4083715741
4083719343
4083725629
4083730268
4083736921
4083742475
4083749128
4083754438
4083760175
4083764875
4083770795
4083775495
4083778974
4083788495
4083795270
4083799481
4083805463
4083809796
4083814618
4083819806
4083825849
4083832562
4083837811
4083845258
4083850995
4083857099
4083862164
4083867169
4083872174
4083880536
4083885358
4083891583
4083897137
4083901837
4083907391
4083911786
4083917462
4083920941
4083930218
4083935101
4083940716
4083943951
4083949933
4083954816
4083960248
4083964703
4083973736
4083983441
4083995038
4083999981
4084010357
4084016766
4084023358
4084032086
4084039959
4084048382
4084063519
4084068585
4084073162
4084077191
4084081890
4084086407
4084090924
4084094708
4084099224
4084103375
4084107952
4084113629
4084119000
4084123516
4084128216
4084134197
4084139813
4084146221
4084152752
4084157452
4084162518
4084166424
4084173443
4084178448
4084183636
4084188274
4084193462
4084197979
4084202007
4084206646
4084210491
4084216839
4084220806
4084226849
4084232464
4084238079
4084242657
4084248089
4084256451
4084260906
4084266155
4084270855
4084277935
4084282085
4084288738
4084294903
4084298748
4084301494
4084309307
4084315532
4084319317
4084324749
4084327495
4084333233
4084338176
4084343670
4084348552
4084353862
4084358501
4084364666
4084369976
4084376873
4084383464
4084389080
4084395427
4084403728
4084407268
4084414348
4084420024
4084425029
4084429485
4084434673
4084438762
4084443889
4084447002
4084453838
4084459331
4084466228
4084469829
4084475871
4084479045
4084486308
4084491252
4084496684
4084501445
4084508769
4084514079
4084519694
4084524028
4084530437
4084534526
4084540324
4084544170
4084549419
4084555522
4084561687
4084565959
4084571513
4084577312
4084581645
4084586467
4084589519
4084596232
4084601481
4084607158
4084610392
4084617045
4084621867
4084627360
4084632182
4084639201
4084644572
4084650309
4084657328
4084663371
4084667704
4084672831
4084677287
4084684733
4084689738
4084695841
4084700968
4084707499
4084712138
4084717753
4084722575
4084727397
4084733683
4084738444
4084744608
4084749735
4084756205
4084761942
4084767619
4084776225
4084781290
4084787394
4084792582
4084799357
4084805094
4084811198
4084816141
4084825114
4084830302
4084835856
4084840494
4084846903
4084854044
4084859415
4084864481
4084871500
4084876688
4084882731
4084888956
4084893351
4084899210
4084902506
4084908732
4084913309
4084920084
4084926981
4084933268
4084938517
4084945230
4084951761
4084957193
4084961283
4084970926
4084975931
4084981180
4084987955
4084991983
4084996988
4085002176
4085007547
4085013223
4085019632
4085023722
4085029520
4085033792
4085039713
4085043985
4085047281
4085054910
4085058511
4085065897
4085069681
4085076212
4085081583
4085087442
4085090677
4085098734
4085103860
4085109293
4085114358
4085121439
4085126260
4085131692
4085136453
4085142801
4085147623
4085153421
4085158060
4085164590
4085169107
4085174661
4085180826
4085186380
4085192788
4085195047
4085202920
4085206155
4085214029
4085219400
4085225869
4085231668
4085239236
4085244302
4085249185
4085255716
4085261148
4085266153
4085273233
4085279031
4085285684
4085291360
4085296121
4085302835
4085309365
4085314675
4085319253
4085324441
4085331704
4085336892
4085341958
4085349526
4085356057
4085360146
4085366860
4085372048
4085380288
4085387002
4085400857
4085405007
4085409890
4085413613
4085420876
4085425698
4085429177
4085434365
4085440835
4085444253
4085448708
4085452614
4085456826
4085461770
4085467385
4085472451
4085478005
4085483254
4085489663
4085495705
4085500405
4085503762
4085509682
4085513405
4085517189
4085522866
4085526406
4085531105
4085536538
4085542275
4085546242
4085550698
4085556313
4085560341
4085563942
4085569130
4085572670
4085579079
4085582009
4085587746
4085590798
4085597756
4085600685
4085607033
4085611305
4085617714
4085622780
4085627114
4085631325
4085637489
4085641884
4085646217
4085651772
4085658608
4085663307
4085669777
4085674416
4085679054
4085684731
4085689980
4085694130
4085697487
4085705666
4085711708
4085717567
4085722938
4085728126
4085731911
4085737038
4085741310
4085749367
4085752907
4085759926
4085763283
4085770241
4085774879
4085780128
4085784523
4085790870
4085795143
4085801491
4085805702
4085812294
4085816566
4085822548
4085826820
4085830055
4085837989
4085841713
4085848671
4085852211
4085858009
4085864112
4085868202
4085874305
4085879127
4085885475
4085889930
4085895668
4085897560
4085905860
4085911781
4085916725
4085923011
4085930457
4085933997
4085941261
4085945167
4085951759
4085957130
4085961341
4085966224
4085973487
4085978370
4085984534
4085989967
4085999549
4086006812
4086013953
4086021155
4086027137
4086033424
4086038550
4086043250
4086049110
4086055091
4086061317
4086067298
4086073524
4086079322
4086084205
4086088538
4086094031
4086099036
4086104651
4086110083
4086114417
4086120520
4086124793
4086130347
4086136329
4086139563
4086145484
4086150428
4086156775
4086161841
4086167762
4086172522
4086178382
4086184546
4086190161
4086194434
4086200720
4086206824
4086212317
4086217078
4086222327
4086228186
4086233557
4086238989
4086245886
4086252539
4086257483
4086264136
4086268591
4086273901
4086280493
4086284766
4086290564
4086294592
4086303076
4086309119
4086313635
4086318335
4086323950
4086328894
4086335120
4086339941
4086346716
4086353125
4086357947
4086362463
4086368445
4086372778
4086378699
4086384375
4086390173
4086396765
4086401831
4086406164
4086409399
4086417090
4086420630
4086427588
4086432226
4086438513
4086443396
4086448767
4086453283
4086458960
4086463110
4086469641
4086474035
4086480810
4086485815
4086493200
4086497473
4086503515
4086507726
4086513159
4086518652
4086524084
4086529943
4086535070
4086541174
4086546423
4086552648
4086556310
4086561498
4086566991
4086576208
4086582861
4086589330
4086596593
4086603490
4086609472
4086614965
4086619237
4086625280
4086631689
4086636144
4086642980
4086648717
4086653905
4086659704
4086665319
4086672399
4086678319
4086682714
4086685949
4086693395
4086696691
4086703283
4086708349
4086716161
4086721166
4086726293
4086731542
4086738012
4086742650
4086747350
4086752965
4086757665
4086763707
4086769445
4086773839
4086777196
4086784703
4086787877
4086795629
4086801610
4086807469
4086812352
4086817845
4086821446
4086827672
4086832311
4086838292
4086843114
4086847691
4086854894
4086861913
4086867345
4086873998
4086880223
4086885472
4086889928
4086896275
4086900609
4086907262
4086911473
4086917149
4086922642
4086928136
4086933873
4086938512
4086944432
4086949925
4086955479
4086959691
4086965367
4086969945
4086975865
4086980748
4086988560
4086993687
4086999363
4087004857
4087010777
4087015110
4087020848
4087025120
4087030613
4087037083
4087042454
4087048008
4087053624
4087057896
4087063267
4087068760
4087072300
4087080906
4087084873
4087092320
4087097630
4087101963
4087106785
4087112156
4087118748
4087124058
4087128697
4087134617
4087140354
4087146214
4087151402
4087157505
4087163242
4087171482
4087178745
4087184788
4087189121
4087194431
4087200046
4087204197
4087209873
4087215183
4087220920
4087224644
4087232395
4087236240
4087242710
4087247471
4087253208
4087257419
4087263950
4087270542
4087276035
4087280430
4087285495
4087291172
4087296726
4087301059
4087307163
4087314182
4087318088
4087325290
4087330722
4087334751
4087341037
4087345798
4087350193
4087356174
4087362583
4087368015
4087372470
4087377353
4087382907
4087388889
4087393405
4087396762
4087405612
4087411655
4087415866
4087419162
4087426730
4087432407
4087437351
4087442111
4087448764
4087453708
4087459323
4087463718
4087470126
4087474399
4087480441
4087485934
4087491306
4087497470
4087501926
4087507724
4087512546
4087518344
4087523715
4087528232
4087532870
4087538791
4087544040
4087549960
4087555270
4087560214
4087564486
4087571200
4087575595
4087581759
4087586398
4087592990
4087598727
4087603488
4087607760
4087614291
4087618625
4087624179
4087631381
4087634982
4087641207
4087646579
4087652316
4087657138
4087663241
4087667697
4087674838
4087679232
4087686068
4087690524
4087696749
4087701449
4087707308
4087712740
4087719882
4087727572
4087734103
4087739535
4087747347
4087753878
4087758395
4087764498
4087770419
4087774813
4087781100
4087785311
4087791598
4087795992
4087802828
4087807406
4087810641
4087818758
4087824679
4087829134
4087832918
4087840304
4087843539
4087851168
4087855868
4087862642
4087867830
4087873263
4087877962
4087883150
4087889254
4087894259
4087898409
4087904146
4087911287
4087916658
4087922396
4087927950
4087932283
4087935701
4087943453
4087946749
4087955416
4087962191
4087966463
4087971895
4087976595
4087981539
4087987886
4087992830
4087997957
4088005159
4088013826
4088020479
4088025728
4088033357
4088037935
4088044344
4088050935
4088056307
4088060945
4088068391
4088074678
4088080232
4088085359
4088089204
4088098787
4088103853
4088111421
4088115083
4088121675
4088126802
4088133760
4088139070
4088143648
4088150117
4088156160
4088161653
4088166780
4088170991
4088177034
4088181733
4088187715
4088194429
4088198274
4088205110
4088210847
4088215974
4088220796
4088227388
4088233003
4088237275
4088244722
4088250459
4088256074
4088257966
4088265840
4088269441
4088277009
4088280549
4088288972
4088293366
4088299897
4088305634
4088311799
4088319001
4088324189
4088330537
4088336701
4088344880
4088351899
4088356049
4088361420
4088367280
4088369111
4088376984
4088380280
4088388764
4088392304
4088400056
4088403290
4088409638
4088414277
4088420136
4088426301
4088431611
4088437897
4088442841
4088447236
4088452363
4088458405
4088463044
4088467194
4088473847
4088480378
4088486298
4088490448
4088496247
4088502106
4088505463
4088511261
4088515961
4088522492
4088527375
4088533722
4088538605
4088543122
4088547455
4088553131
4088558930
4088563629
4088571137
4088577484
4088581818
4088585541
4088592926
4088599640
4088604767
4088610871
4088619110
4088627411
4088631622
4088638397
4088642792
4088649017
4088653107
4088659027
4088666107
4088672272
4088676544
4088682281
4088686371
4088689667
4088697113
4088702423
4088710480
4088714081
4088720795
4088725555
4088730316
4088736420
4088741241
4088745392
4088751556
4088758270
4088763153
4088767547
4088773712
4088778167
4088783478
4088789215
4088792511
4088800506
4088804168
4088810760
4088817047
4088821441
4088826202
4088832367
4088836944
4088842987
4088848480
4088855072
4088861236
4088869598
4088876007
4088883575
4088890716
4088899200
4088909698
4088916412
4088923370
4088932952
4088941253
4088950713
4088957427
4088964019
4088972991
4088979827
4088985809
4088994720
4089001922
4089008880
4089014739
4089022368
4089029021
4089033843
4089046538
4089054656
4089063933
4089068450
4089078032
4089084990
4089087737
4089097381
4089104094
4089112334
4089119292
4089129668
4089136626
4089139739
4089149321
4089156157
4089163726
4089170989
4089176299
4089187285
4089195464
4089203032
4089210051
4089213042
4089222807
4089230559
4089238677
4089245879
4089249052
4089268462
4089273833
4089281767
4089288420
4089296965
4089303007
4089308745
4089315520
4089322294
4089329985
4089336699
4089349394
4089355436
4089358610
4089372221
4089375273
4089385710
4089390715
4089398893
4089405790
4089414579
4089420927
4089427641
4089440580
4089445463
4089454130
4089460478
4089467558
4089476530
4089485929
4089492399
4089500578
4089506376
4089511137
4089519621
4089526273
4089533659
4089542509
4089549101
4089554166
4089561369
4089566251
4089572233
4089576322
4089582487
4089588468
4089594022
4089599760
4089603178
4089608976
4089613981
4089620328
4089625761
4089631620
4089638822
4089644193
4089648649
4089655301
4089659452
4089665372
4089669767
4089676481
4089680936
4089687772
4089691922
4089695829
4089704435
4089707975
4089716336
4089720060
4089729398
4089736417
4089742643
4089746915
4089752591
4089756803
4089762723
4089768338
4089774442
4089777982
4089784818
4089790128
4089795377
4089800015
4089804715
4089810452
4089814481
4089820218
4089825040
4089830777
4089837613
4089843778
4089850186
4089854153
4089862759
4089866299
4089873074
4089878506
4089886197
4089891812
4089897549
4089904568
4089910916
4089916592
4089923001
4089928067
4089933011
4089938687
4089943448
4089949002
4089955105
4089961880
4089966763
4089973233
4089978299
4089983120
4089988308
4089995327
4090001797
4090008450
4090013394
4090020657
4090024807
4090032376
4090036526
4090042569
4090047024
4090053311
4090059353
4090064785
4090068936
4090072354
4090080960
4090086270
4090090359
4090097317
4090101711
4090107693
4090113064
4090118130
4090124111
4090127712
4090135342
4090141079
4090146938
4090152859
4090158962
4090164639
4090169094
4090175320
4090179958
4090183559
4090193203
4090197475
4090204006
4090209255
4090217617
4090222500
4090228054
4090233852
4090239162
4090245815
4090251430
4090255825
4090259975
4090266811
4090270046
4090276272
4090282070
4090290432
4090297268
4090302395
4090312587
4090317409
4090324733
4090329067
4090335659
4090341457
4090347194
4090351345
4090357509
4090363552
4090369594
4090374660
4090380580
4090385585
4090391872
4090396022
4090402553
4090406947
4090412196
4090417751
4090419643
4090428249
4090434352
4090439906
4090445216
4090449489
4090453029
4090459865
4090464687
4090472621
4090476161
4090481959
4090488063
4090493312
4090498439
4090504054
4090508388
4090514064
4090520106
4090525905
4090530177
4090533595
4090541041
4090544337
4090551295
4090556849
4090562282
4090567592
4090573634
4090579127
4090585231
4090591822
4090595973
4090601649
4090609462
4090613856
4090620265
4090624659
4090630091
4090635829
4090639796
4090645472
4090651087
4090657496
4090663600
4090668299
4090674403
4090678797
4090683436
4090690028
4090695155
4090703211
4090708460
4090714991
4090719325
4090726405
4090731471
4090737879
4090743067
4090747157
4090756251
4090763331
4090770655
4090776575
4090783533
4090792017
4090799708
4090806116
4090813441
4090821314
4090827967
4090837061
4090843470
4090848231
4090855311
4090861597
4090869166
4090875025
4090879664
4090889795
4090897730
4090904261
4090910486
4090920984
4090927454
4090936853
4090943872
4090949671
4090962427
4090967798
4090976831
4090984278
4090990381
4090995630
4091005213
4091011560
4091019190
4091025354
4091032129
4091039331
4091046228
4091051965
4091056482
4091065027
4091069543
4091079004
4091086328
4091093103
4091098474
4091105493
4091111536
4091119897
4091126733
4091131982
4091140893
4091148279
4091156396
4091163659
4091171228
4091177942
4091183252
4091191003
4091197473
4091205957
4091213769
4091219873
4091230432
4091235070
4091244165
4091250939
4091256433
4091265100
4091272485
4091278161
4091288049
4091295800
4091301660
4091306359
4091314599
4091321984
4091329736
4091336388
4091341698
4091352929
4091358971
4091367394
4091374169
4091380456
4091386437
4091391747
4091400719
4091407372
4091415307
4091422265
4091430626
4091439232
4091442711
4091454125
4091460167
4091471337
4091477318
4091489830
4091494896
4091505028
4091512047
4091515465
4091527428
4091535851
4091543297
4091550865
4091560326
4091568260
4091574547
4091583214
4091590172
4091598961
4091606041
4091611656
4091618919
4091625694
4091635094
4091641869
4091649925
4091657127
4091664635
4091670860
4091678062
4091683494
4091692345
4091699425
4091706749
4091713158
4091720787
4091729088
4091732017
4091743248
4091747581
4091755272
4091761741
4091766990
4091780296
4091786094
4091796043
4091802147
4091809471
4091818077
4091823875
4091833763
4091840904
4091847618
4091853965
4091861839
4091869346
4091871910
4091880271
4091885887
4091892112
4091897422
4091904807
4091909812
4091916038
4091921287
4091928489
4091933799
4091941306
4091946861
4091954368
4091960715
4091966880
4091972617
4091978049
4091984702
4091987083
4091996421
4092000999
4092008140
4092012351
4092019736
4092024924
4092031028
4092036277
4092041892
4092046714
4092052329
4092058921
4092064292
4092070517
4092074912
4092080710
4092086081
4092091819
4092097129
4092102561
4092109458
4092117209
4092124106
4092130149
4092137046
4092141501
4092146201
4092153464
4092160056
4092164206
4092169089
4092175192
4092180075
4092185996
4092190695
4092196433
4092202841
4092208640
4092214194
4092219504
4092224020
4092227377
4092234885
4092238425
4092248862
4092252890
4092260641
4092264181
4092270712
4092275473
4092280783
4092285178
4092290427
4092297323
4092302328
4092308981
4092313925
4092318808
4092324972
4092329306
4092335776
4092343039
4092345236
4092353659
4092357321
4092363607
4092368246
4092374899
4092379538
4092384848
4092391378
4092396261
4092401144
4092408773
4092414083
4092420431
4092427267
4092432150
4092440023
4092448507
4092453207
4092457968
4092462362
4092467916
4092473715
4092475668
4092484152
4092488119
4092495443
4092498678
4092506002
4092511556
4092516012
4092520651
4092527181
4092532186
4092537984
4092542745
4092549337
4092555013
4092559469
4092563680
4092570699
4092575582
4092582479
4092588827
4092591024
4092599142
4092602743
4092610128
4092613424
4092621602
4092625509
4092633016
4092636983
4092643697
4092648458
4092654256
4092659200
4092664144
4092671712
4092676595
4092682943
4092688558
4092693380
4092697164
4092704305
4092709188
4092717794
4092722432
4092729695
4092735250
4092739461
4092744405
4092751729
4092756734
4092762471
4092766805
4092772908
4092777059
4092783467
4092789937
4092794698
4092800252
4092806050
4092811665
4092816670
4092822224
4092827046
4092832723
4092838155
4092842549
4092845784
4092855489
4092859273
4092866353
4092871785
4092877888
4092883076
4092888631
4092893208
4092900288
4092907490
4092912495
4092917012
4092923543
4092929890
4092935444
4092941121
4092946248
4092952839
4092958455
4092963704
4092971028
4092977436
4092983113
4092989888
4092996785
4093003559
4093013142
4093019856
4093025715
4093031575
4093038655
4093044453
4093050251
4093055744
4093062763
4093067707
4093074238
4093079365
4093085102
4093089680
4093096211
4093101582
4093106587
4093111775
4093118061
4093122639
4093127705
4093132221
4093137653
4093143818
4093148273
4093154194
4093159687
4093165119
4093169331
4093175800
4093181599
4093186848
4093193256
4093198566
4093204914
4093210956
4093215534
4093220966
4093226276
4093233112
4093239216
4093243793
4093249775
4093255939
4093258075
4093266559
4093270160
4093279804
4093283893
4093290668
4093299213
4093304889
4093311298
4093318195
4093322834
4093330158
4093335163
4093340961
4093352191
4093356586
4093361408
4093366779
4093372638
4093377887
4093382648
4093389972
4093394977
4093400592
4093406574
4093411517
4093416217
4093419940
4093426959
4093432574
4093441302
4093446979
4093452960
4093457660
4093462604
4093467059
4093472674
4093478351
4093485187
4093490619
4093495013
4093500751
4093505633
4093509845
4093514789
4093521380
4093526385
4093532794
4093537860
4093545123
4093550372
4093557940
4093562274
4093572223
4093576800
4093584979
4093591388
4093599078
4093605548
4093613421
4093620684
4093626727
4093640887
4093648089
4093658282
4093665850
4093671527
4093677447
4093684161
4093689898
4093693804
4093704424
4093710528
4093717486
4093723956
4093728838
4093739153
4093743914
4093751910
4093758929
4093767779
4093776873
4093784930
4093790789
4093795305
4093801592
4093806902
4093813799
4093819475
4093824175
4093833941
4093839434
4093847002
4093853533
4093860796
4093866961
4093872026
4093879778
4093886614
4093892473
4093901323
4093909685
4093916277
4093920671
4093927935
4093933733
4093940264
4093946367
4093950762
4093958818
4093967302
4093973833
4093980364
4093987444
4093993120
4093997637
4094005266
4094011919
4094020952
4094030229
4094039262
4094045671
4094048235
4094056963
4094063249
4094070573
4094076311
4094078813
4094093461
4094099077
4094106645
4094113420
4094120073
4094126054
4094132036
4094139909
4094146806
4094154313
4094161210
4094168535
4094174272
4094176835
4094186906
4094191301
4094198930
4094204972
4094212846
4094222001
4094229753
4094235307
4094239518
4094247392
4094253312
4094258195
4094265946
4094268510
4094278703
4094284196
4094292680
4094298966
4094304704
4094310624
4094315995
4094323624
4094330399
4094336198
4094343339
4094352006
4094357682
4094364396
4094369767
4094374345
4094381486
4094387711
4094395157
4094404801
4094413956
4094421036
4094426285
4094432938
4094440323
4094448319
4094454850
4094462113
4094469620
4094475907
4094482743
4094488907
4094494217
4094500870
4094505265
4094508744
4094517777
4094522782
4094527115
4094530472
4094537247
4094542252
4094546158
4094550614
4094556168
4094562088
4094567337
4094572037
4094576798
4094582474
4094586929
4094590775
4094597488
4094603226
4094609757
4094614395
4094619522
4094624588
4094628494
4094634354
4094637588
4094646255
4094652603
4094656998
4094659988
4094667007
4094670242
4094677322
4094680557
4094687210
4094691849
4094697891
4094703567
4094712845
4094719436
4094724380
4094728409
4094738113
4094740616
4094751053
4094756302
4094765579
4094770340
4094778396
4094785476
4094792434
4094802139
4094805252
4094814407
4094820999
4094827102
4094833511
4094838211
4094845657
4094851699
4094860061
4094867568
4094876174
4094882644
4094887466
4094893874
4094899856
4094905593
4094914016
4094918777
4094927993
4094935195
4094943252
4094949599
4094952407
4094962112
4094968886
4094976089
4094982314
4094988296
4094998794
4095004226
4095012832
4095019057
4095027053
4095032973
4095038222
4095046035
4095053115
4095059401
4095065749
4095071547
4095080886
4095087355
4095094802
4095102797
4095109877
4095116774
4095122145
4095135390
4095141738
4095152541
4095159621
4095166274
4095172072
4095178542
4095184889
4095189589
4095198317
4095205580
4095215590
4095223036
4095229506
4095236281
4095246352
4095252577
4095255873
4095267958
4095277663
4095284987
4095289564
4095298292
4095305250
4095310377
4095319960
4095324904
4095332899
4095343092
4095346571
4095356031
4095363112
4095370436
4095374830
4095379530
4095389173
4095395826
4095401319
4095412672
4095419081
4095427259
4095429945
4095438490
4095444837
4095450514
4095456800
4095461561
4095473585
4095478773
4095486585
4095492323
4095500379
4095506300
4095510999
4095518995
4095526075
4095531812
4095539259
4095548902
4095556043
4095558851
4095569288
4095573621
4095580274
4095586317
4095591505
4095601209
4095608899
4095614576
4095620923
4095626233
4095632398
4095637891
4095643934
4095650708
4095657361
4095662183
4095671949
4095677869
4095683179
4095688489
4095695081
4095700574
4095706678
4095713025
4095721204
4095725904
4095733045
4095738172
4095743543
4095749585
4095755933
4095761609
4095768079
4095775220
4095781690
4095787183
4095793958
4095799390
4095805371
4095809888
4095817334
4095819714
4095833020
4095837903
4095845593
4095851941
4095859509
4095866223
4095868970
4095879956
4095884411
4095892590
4095901745
4095910290
4095920605
4095924267
4095934704
4095942517
4095952038
4095956067
4095963635
4095972668
4095979809
4095985058
4095989270
4095997387
4096001293
4096007519
4096012158
4096019909
4096024548
4096030773
4096035778
4096041638
4096045849
4096050976
4096055371
4096059460
4096064953
4096071789
4096076306
4096082592
4096087536
4096093823
4096099133
4096105419
4096113049
4096118664
4096124401
4096132580
4096138195
4096142467
4096148693
4096150768
4096162487
4096173717
4096181347
4096187206
4096198986
4096207226
4096215282
4096219005
4096228466
4096232982
4096238720
4096243602
4096249279
4096253917
4096260570
4096264782
4096271984
4096278087
4096283458
4096288768
4096292675
4096298412
4096304393
4096306224
4096317150
4096323802
4096327770
4096334178
4096338268
4096341197
4096347911
4096353526
4096361278
4096365184
4096373241
4096377391
4096382518
4096385509
4096392223
4096396617
4096401927
4096406261
4096412730
4096416026
4096422191
4096426402
4096432506
4096436290
4096442821
4096448314
4096454967
4096459605
4096465159
4096470775
4096474864
4096480540
4096484935
4096490855
4096495677
4096502574
4096507518
4096511668
4096517528
4096525035
4096530040
4096536570
4096544261
4096551097
4096556712
4096563060
4096567759
4096573191
4096576304
4096582042
4096586314
4096593272
4096597972
4096607005
4096610850
4096619517
4096623301
4096630931
4096636057
4096642954
4096646922
4096654124
4096658396
4096663828
4096668223
4096674571
4096681162
4096687022
4096692149
4096697092
4096701487
4096707224
4096711436
4096715098
4096723338
4096730418
4096735545
4096741221
4096745371
4096750132
4096755991
4096760508
4096766001
4096773386
4096779246
4096784189
4096789194
4096793345
4096798594
4096804270
4096809458
4096815073
4096822397
4096827952
4096829599
4096837778
4096841379
4096848826
4096851999
4096859507
4096864573
4096871225
4096876413
4096882334
4096886484
4096892160
4096896555
4096902353
4096908579
4096912973
4096917002
4096923044
4096926828
4096932077
4096936289
4096939462
4096949777
4096954843
4096960214
4096964487
4096969736
4096972666
4096979685
4096982919
4096989816
4096993906
4097000009
4097004648
4097010690
4097015512
4097020212
4097023935
4097029245
4097036630
4097042306
4097047250
4097053842
4097058603
4097064889
4097069955
4097073556
4097082529
4097088815
4097100168
4097105783
4097115121
4097121286
4097130197
4097136789
4097142648
4097150522
4097157296
4097166146
4097172799
4097177560
4097185922
4097192575
4097198678
4097205270
4097209848
4097218698
4097225656
4097233712
4097240365
4097248239
4097254159
4097258492
4097267281
4097274056
4097280648
4097286752
4097294747
4097301339
4097303902
4097314339
4097318246
4097324960
4097332955
4097335397
4097347420
4097352486
4097361214
4097367867
4097373421
4097379464
4097384163
4097393441
4097397957
4097406746
4097413338
4097421700
4097428048
4097430672
4097441658
4097446236
4097454232
4097459969
4097466744
4097475472
4097484444
4097490425
4097495552
4097502327
4097508919
4097516243
4097524422
4097528816
4097535652
4097544747
4097551888
4097556099
4097563728
4097569100
4097577034
4097581246
4097588936
4097596138
4097602547
4097609749
4097616524
4097621040
4097628303
4097634041
4097640877
4097648628
4097651192
4097661079
4097666328
4097676155
4097679939
4097687507
4097693977
4097696785
4097705635
4097712288
4097719612
4097725654
4097734260
4097740303
4097742927
4097750862
4097755806
4097770576
4097775642
4097785102
4097792793
4097801887
4097808723
4097811408
4097822151
4097828742
4097835212
4097841255
4097847846
4097853889
4097863044
4097869026
4097871650
4097880439
4097886543
4097896430
4097904243
4097912666
4097920783
4097931892
4097938728
4097941535
4097951057
4097957770
4097963386
4097967475
4097975532
4097982123
4097991584
4097995856
4098003547
4098009162
4098014045
4098022040
4098028571
4098035346
4098042182
4098050605
4098057135
4098061469
4098068549
4098073859
4098080695
4098088385
4098091010
4098102301
4098107367
4098115729
4098119940
4098127265
4098133002
4098140326
4098146430
4098151068
4098159552
4098166388
4098173712
4098180548
4098187750
4098193610
4098198126
4098205084
4098211188
4098218451
4098227606
4098233954
4098240240
4098244879
4098253119
4098259833
4098265875
4098271612
4098276678
4098288336
4098295233
4098307257
4098312872
4098319281
4098325140
4098333197
4098339300
4098344000
4098353582
4098360662
4098369207
4098376043
4098384222
4098390936
4098394110
4098406866
4098410223
4098421087
4098426275
4098437139
4098445013
4098450445
4098459539
4098462591
4098473516
4098479070
4098487737
4098495367
4098498846
4098509954
4098516485
4098522710
4098529058
4098536932
4098543096
4098548101
4098556280
4098562993
4098572271
4098578741
4098581426
4098591680
4098595769
4098603643
4098609868
4098614629
4098624334
4098631475
4098639592
4098644475
4098651677
4098657720
4098664800
4098671941
4098678044
4098684636
4098693791
4098697515
4098708196
4098715947
4098725957
4098732060
4098750737
4098770574
4098777470
4098783940
4098792119
4098798283
4098804387
4098812688
4098819340
4098824223
4098838628
4098844304
4098851628
4098857915
4098866337
4098872685
4098877812
4098887456
4098891728
4098900151
4098909428
4098917790
4098924138
4098929203
4098937870
4098942570
4098951115
4098957890
4098966557
4098972782
4098983891
4098991215
4098998417
4099001591
4099011296
4099018925
4099026798
4099033940
4099039311
4099049198
4099056645
4099062626
4099072392
4099079838
4099087101
4099096317
4099104496
4099110477
4099122257
4099127567
4099137699
4099144535
4099152653
4099161503
4099167057
4099176700
4099185673
4099190922
4099202335
4099207645
4099217716
4099224857
4099232853
4099239627
4099245060
4099252811
4099259525
4099267765
4099275028
4099280521
4099290103
4099294315
4099303714
4099310245
4099312992
4099323184
4099330264
4099339786
4099346683
4099354923
4099361331
4099366580
4099373599
4099380008
4099387576
4099396487
4099399295
4099411136
4099416507
4099427676
4099432132
4099440433
4099446231
4099454288
4099460940
4099468448
4099476382
4099484622
4099492923
4099498843
4099503604
4099511050
4099517764
4099524417
4099530887
4099536074
4099546573
4099554385
4099563906
4099570681
4099576663
4099582522
4099593081
4099599612
4099607302
4099616091
4099624453
4099632876
4099643374
4099651675
4099658267
4099665225
4099670596
4099676760
4099683779
4099688784
4099694216
4099699648
4099705141
4099710146
4099715945
4099719424
4099726321
4099731875
4099737917
4099741213
4099747500
4099752260
4099758852
4099763735
4099769228
4099775881
4099781252
4099786196
4099792605
4099797426
4099803042
4099807802
4099813295
4099821352
4099825930
4099831484
4099836916
4099842592
4099847475
4099853456
4099857607
4099864870
4099871157
4099875734
4099879213
4099886782
4099892336
4099897646
4099902407
4099909792
4099915163
4099924135
4099929628
4099934145
4099940859
4099945253
4099948549
4099957094
4099962648
4099969301
4099972658
4099979311
4099984071
4099989198
4099993837
4100000734
4100005373
4100011415
4100017885
4100022646
4100028017
4100031984
4100038209
4100041627
4100050111
4100055788
4100060853
4100065858
4100073610
4100080324
4100086976
4100091127
4100100465
4100104860
4100112184
4100117250
4100123903
4100129579
4100136842
4100142152
4100147828
4100156739
4100161683
4100166566
4100172731
4100179078
4100181092
4100189271
4100194642
4100202027
4100207093
4100216004
4100220155
4100229676
4100233949
4100244203
4100248536
4100257630
4100261292
4100269776
4100273805
4100281800
4100285767
4100293824
4100297608
4100306214
4100310059
4100317750
4100321656
4100328309
4100333375
4100340272
4100345521
4100350770
4100357545
4100361878
4100367493
4100373292
4100377564
4100380799
4100388489
4100392029
4100399231
4100404786
4100411255
4100416443
4100422913
4100428223
4100434082
4100438660
4100443665
4100450318
4100456971
4100461548
4100465393
4100472779
4100477967
4100484253
4100489380
4100495423
4100501465
4100508118
4100512573
4100519531
4100524903
4100530762
4100538147
4100542297
4100552124
4100557373
4100561646
4100567566
4100571899
4100577332
4100582764
4100588196
4100594299
4100602234
4100606995
4100611755
4100618103
4100624512
4100629517
4100635620
4100640198
4100647095
4100652893
4100658935
4100664490
4100673767
4100679809
4100686706
4100693298
4100702575
4100707397
4100716003
4100722900
4100728088
4100737487
4100745178
4100752258
4100758972
4100767211
4100774780
4100780578
4100790527
4100797912
4100804199
4100811401
4100816650
4100824767
4100832031
4100841308
4100848998
4100856994
4100863708
4100871520
4100878112
4100884887
4100893310
4100902770
4100911254
4100920104
4100930053
4100946349
4100949523
4100959838
4100966674
4100975036
4100981811
4100986693
4100997252
4101002623
4101010924
4101017638
4101023070
4101029113
4101033812
4101042846
4101049376
4101057799
4101065551
4101071898
4101077880
4101082701
4101091735
4101098632
4101104491
4101110533
4101118590
4101130004
4101136962
4101142882
4101147460
4101154906
4101161070
4101168333
4101174437
4101179198
4101189207
4101196715
4101204039
4101210142
4101217345
4101223448
4101228087
4101236815
4101243712
4101250609
4101257261
4101267576
4101273802
4101280577
4101287169
4101294432
4101300108
4101308531
4101311522
4101324339
4101333616
4101341795
4101351316
4101358091
4101366636
4101374693
4101384703
4101393736
4101399534
4101406187
4101412473
4101421507
4101428037
4101433897
4101440366
4101447324
4101454771
4101461851
4101470640
4101477049
4101482114
4101490842
4101497373
4101503110
4101509580
4101514768
4101527402
4101535642
4101544187
4101549131
4101560544
4101567685
4101577634
4101585813
4101592954
4101602109
4101610776
4101618467
4101626584
4101636228
4101644101
4101650022
4101660154
4101669065
4101678281
4101686643
4101690183
4101701596
4101707089
4101715695
4101723142
4101726499
4101738400
4101743771
4101752988
4101760190
4101770749
4101778745
4101785641
4101794492
4101802182
4101810178
4101818356
4101825436
4101832394
4101840329
4101846188
4101850888
4101859982
4101864682
4101875485
4101879635
4101888913
4101895321
4101901425
4101909543
4101914364
4101922909
4101928891
4101935421
4101941464
4101946286
4101954586
4101961239
4101969113
4101975399
4101981442
4101986813
4101992245
4101998471
4102003048
4102011288
4102015194
4102021847
4102025082
4102032772
4102036312
4102043148
4102047848
4102054989
4102060299
4102066097
4102070980
4102075619
4102081783
4102086483
4102092098
4102097164
4102104427
4102109615
4102114010
4102120418
4102125301
4102132015
4102136959
4102142940
4102150081
4102153377
4102160702
4102165706
4102171505
4102176388
4102181637
4102186092
4102191280
4102198238
4102204830
4102209102
4102214412
4102220150
4102225704
4102230465
4102236629
4102243282
4102249752
4102254451
4102259944
4102268550
4102272884
4102281368
4102288387
4102296138
4102303584
4102310481
4102318721
4102321651
4102331172
4102338924
4102345882
4102352718
4102355708
4102370723
4102377010
4102384944
4102392024
4102399532
4102406428
4102411677
4102420833
4102427730
4102430781
4102444453
4102448298
4102459041
4102466975
4102473628
4102480586
4102486384
4102496272
4102504573
4102512507
4102522822
4102535090
4102541316
4102549861
4102558223
4102560908
4102569819
4102576350
4102583430
4102589595
4102597956
4102604060
4102611933
4102617854
4102624751
4102630244
4102636530
4102644160
4102654902
4102662165
4102668147
4102673090
4102680537
4102686701
4102694880
4102701472
4102707453
4102713923
4102721613
4102729731
4102736079
4102743830
4102750666
4102755610
4102764765
4102771357
4102779596
4102786860
4102793390
4102802118
4102807367
4102814508
4102820856
4102829767
4102836115
4102841242
4102850031
4102856562
4102863581
4102869135
4102877680
4102885614
4102893427
4102899774
4102905817
4102912470
4102919672
4102925775
4102942804
4102951471
4102959283
4102965448
4102971796
4102977106
4102990167
4102995233
4103003717
4103010126
4103016168
4103022882
4103031305
4103037347
4103043390
4103050897
4103055047
4103060785
4103066949
4103071893
4103076654
4103081048
4103086541
4103093927
4103099237
4103104913
4103109491
4103115228
4103120599
4103126458
4103131524
4103139398
4103144891
4103149163
4103154657
4103159600
4103164178
4103170831
4103175592
4103180963
4103187860
4103193414
4103198419
4103204461
4103209161
4103214288
4103219293
4103225518
4103230767
4103239129
4103244439
4103253655
4103258416
4103265862
4103270745
4103277642
4103283868
4103290826
4103295769
4103301873
4103306756
4103311883
4103316094
4103324517
4103330376
4103337884
4103342583
4103347405
4103351678
4103358147
4103362481
4103368157
4103374444
4103380364
4103384636
4103390984
4103395195
4103398613
4103406121
4103409539
4103419060
4103422661
4103428826
4103433709
4103439690
4103444939
4103451348
4103456047
4103461846
4103469048
4103475945
4103480522
4103484368
4103492729
4103497246
4103503472
4103507561
4103515251
4103520439
4103526787
4103532158
4103538628
4103543877
4103549858
4103556938
4103562981
4103568901
4103574211
4103578545
4103584282
4103588676
4103594047
4103600456
4103606560
4103613396
4103619133
4103625725
4103631096
4103637138
4103642082
4103647331
4103651604
4103658073
4103666191
4103670891
4103676994
4103683403
4103688041
4103694511
4103699211
4103705742
4103711601
4103717521
4103723625
4103728935
4103737175
4103743644
4103752494
4103757499
4103766593
4103774040
4103780570
4103789237
4103797355
4103804496
4103809745
4103817558
4103824638
4103833366
4103841483
4103844840
4103856498
4103864921
4103871207
4103880607
4103883598
4103894828
4103903129
4103912162
4103920035
4103928886
4103935905
4103943473
4103954276
4103959342
4103966849
4103972831
4103977530
4103986625
4103993277
4104000541
4104009452
4104016593
4104023917
4104031913
4104039969
4104049613
4104058585
4104064017
4104073661
4104080924
4104089652
4104096549
4104099722
4104113394
4104116568
4104128043
4104135916
4104143179
4104150137
4104158072
4104164725
4104169363
4104178091
4104184866
4104190359
4104200919
4104209891
4104217947
4104224417
4104232474
4104238882
4104244192
4104252981
4104260061
4104266592
4104275686
4104284903
4104291433
4104296804
4104305044
4104311392
4104319082
4104325796
4104331045
4104338247
4104346609
4104356802
4104363882
4104372549
4104380361
4104383047
4104392202
4104396536
4104406057
4104412710
4104418203
4104423574
4104429922
4104434622
4104440847
4104445120
4104450735
4104457449
4104463430
4104468313
4104472585
4104478384
4104483816
4104488210
4104491628
4104501516
4104507619
4104511892
4104515188
4104522878
4104526418
4104533437
4104538137
4104543935
4104548940
4104555288
4104560048
4104564748
4104571035
4104576894
4104581533
4104586782
4104594960
4104600454
4104606252
4104611867
4104616079
4104622365
4104627065
4104632253
4104639943
4104645436
4104653920
4104658803
4104664357
4104672170
4104677663
4104683949
4104690602
4104697194
4104703298
4104709401
4104713918
4104720082
4104724599
4104730275
4104735097
4104742543
4104748097
4104752492
4104758778
4104762990
4104768422
4104774403
4104778004
4104786061
4104792104
4104798756
4104802052
4104808461
4104813344
4104819813
4104825001
4104829457
4104837391
4104843129
4104847645
4104854420
4104859059
4104865162
4104870045
4104875233
4104882008
4104887867
4104892994
4104897938
4104905446
4104909413
4104918019
4104921986
4104929982
4104936695
4104941883
4104948170
4104953724
4104963978
4104969227
4104974537
4104982472
4104987660
4104994129
4105000355
4105005787
4105010731
4105016895
4105023121
4105028675
4105036549
4105041859
4105047718
4105054798
4105063465
4105067188
4105074085
4105079334
4105085316
4105090382
4105097950
4105102650
4105108204
4105114551
4105119312
4105125477
4105129383
4105135608
4105141407
4105148426
4105153919
4105160633
4105166431
4105171558
4105178089
4105183582
4105188770
4105192737
4105199939
4105205799
4105210071
4105213611
4105221668
4105225269
4105232349
4105237537
4105244007
4105249256
4105255359
4105259998
4105266468
4105271594
4105277576
4105288074
4105294483
4105301257
4105308887
4105315357
4105323108
4105326709
4105336047
4105341724
4105347583
4105351917
4105357898
4105364124
4105368396
4105371692
4105380969
4105384631
4105392322
4105395801
4105403003
4105408008
4105413135
4105417407
4105424426
4105428699
4105435229
4105439624
4105445910
4105450183
4105455127
4105460742
4105464038
4105472705
4105478564
4105484790
4105488574
4105497851
4105505175
4105510730
4105515612
4105525683
4105530749
4105539721
4105545947
4105553759
4105560473
4105566088
4105574267
4105581042
4105584155
4105598010
4105606127
4105615771
4105621264
4105631945
4105639941
4105647204
4105653857
4105661913
4105669299
4105674364
4105683581
4105690173
4105697558
4105703478
4105709521
4105718004
4105723131
4105730883
4105737902
4105746325
4105753222
4105758776
4105767443
4105774889
4105781969
4105788927
4105797106
4105805529
4105811144
4105819323
4105825975
4105833605
4105840319
4105845385
4105854418
4105861986
4105869066
4105876390
4105884691
4105891100
4105898241
4105905138
4105911913
4105924303
4105931078
4105940233
4105947374
4105952379
4105962267
4105968126
4105980516
4105986497
4105997362
4106005601
4106013963
4106021654
4106029283
4106036119
4106045213
4106053148
4106062303
4106065965
4106075975
4106084886
4106092698
4106102159
4106115525
4106124070
4106132615
4106140184
4106146104
4106160142
4106170030
4106178086
4106186021
4106195725
4106202928
4106211228
4106218247
4106227525
4106233933
4106241013
4106248948
4106256821
4106262742
4106270982
4106276780
4106285752
4106291489
4106299607
4106305710
4106313828
4106319504
4106328049
4106334885
4106341477
4106345017
4106353257
4106359787
4106366562
4106371384
4106376511
4106381760
4106386460
4106391648
4106396103
4106400132
4106404831
4106410508
4106415085
4106419419
4106424424
4106429673
4106434128
4106438584
4106443161
4106447434
4106450852
4106456467
4106461472
4106468430
4106472519
4106477829
4106481980
4106486252
4106490585
4106494980
4106497605
4106504257
4106508469
4106513413
4106518356
4106522873
4106527268
4106532456
4106537399
4106541122
4106546310
4106550949
4106556137
4106559616
4106565170
4106571396
4106576401
4106580612
4106585617
4106590073
4106594772
4106599899
4106607101
4106611923
4106617782
4106623886
4106628403
4106636276
4106640365
4106649826
4106653488
4106660507
4106664474
4106672897
4106676742
4106683883
4106688461
4106694259
4106699264
4106704635
4106710189
4106715133
4106719467
4106724411
4106728500
4106734054
4106740707
4106744857
4106750045
4106754623
4106759811
4106763900
4106769210
4106774825
4106780990
4106785568
4106791305
4106796981
4106803329
4106809371
4106815719
4106821395
4106829757
4106831771
4106844711
4106850692
4106860397
4106865279
4106870895
4106875106
4106881820
4106888290
4106893844
4106898543
4106904464
4106910079
4106916122
4106922347
4106928573
4106937667
4106940902
4106948836
4106952132
4106959884
4106963485
4106972213
4106975631
4106982406
4106985579
4106992537
4106995772
4107002364
4107006820
4107013472
4107019332
4107023970
4107028304
4107033675
4107038497
4107045150
4107050032
4107056197
4107061568
4107067488
4107071761
4107077376
4107083174
4107087691
4107093245
4107098189
4107102889
4107109602
4107114363
4107121016
4107127608
4107133406
4107139815
4107145796
4107151472
4107154707
4107162703
4107168928
4107175154
4107180891
4107187117
4107191634
4107199446
4107205488
4107211714
4107218123
4107223250
4107229048
4107237898
4107246138
4107251570
4107258894
4107263044
4107268477
4107274397
4107280073
4107286299
4107293562
4107299299
4107305464
4107310408
4107316755
4107320295
4107328108
4107334089
4107339094
4107342878
4107350752
4107354414
4107361433
4107367353
4107372358
4107377668
4107384748
4107389814
4107395307
4107400190
4107405744
4107410261
4107415327
4107419904
4107427595
4107433027
4107439008
4107445234
4107450361
4107456098
4107463483
4107466962
4107474226
4107480390
4107486738
4107490583
4107496992
4107503950
4107509809
4107516767
4107523786
4107530500
4107534955
4107539838
4107544965
4107551191
4107556196
4107560651
4107565656
4107573713
4107579755
4107586469
4107592633
4107597272
4107603315
4107608075
4107613507
4107619062
4107626203
4107634198
4107638532
4107644391
4107651105
4107656354
4107661054
4107666669
4107675031
4107683087
4107688397
4107694684
4107699567
4107705853
4107710919
4107716779
4107722821
4107728619
4107735822
4107741254
4107746136
4107752850
4107757123
4107763470
4107768964
4107775555
4107781415
4107786603
4107790753
4107799115
4107803082
4107809857
4107815350
4107821942
4107831219
4107838360
4107842999
4107851361
4107857281
4107863751
4107868634
4107873150
4107879376
4107884625
4107889264
4107895184
4107899578
4107905255
4107910992
4107916302
4107923504
4107925335
4107933331
4107937054
4107944256
4107949688
4107954571
4107959454
4107966656
4107971783
4107978131
4107983380
4107988995
4107994305
4108000225
4108004864
4108011273
4108017376
4108023846
4108028912
4108035442
4108041729
4108045513
4108051434
4108058208
4108064129
4108070354
4108077495
4108082317
4108088726
4108093670
4108098003
4108103863
4108109173
4108115581
4108121319
4108128277
4108134075
4108142742
4108148540
4108154461
4108159282
4108164348
4108168987
4108175945
4108180889
4108187297
4108193828
4108199749
4108204509
4108209941
4108216411
4108222515
4108229106
4108231304
4108239727
4108243389
4108250408
4108255718
4108261760
4108267864
4108274089
4108281291
4108289775
4108294414
4108300700
4108305461
4108311931
4108316936
4108323772
4108328960
4108334148
4108340739
4108346111
4108352153
4108357463
4108363567
4108370097
4108377238
4108382060
4108388591
4108393413
4108397258
4108404887
4108409526
4108415935
4108422832
4108428386
4108434672
4108440410
4108445598
4108454387
4108459086
4108466777
4108473857
4108480815
4108484965
4108491618
4108496135
4108502238
4108507060
4108512492
4108517192
4108523295
4108529521
4108534892
4108539103
4108544779
4108550517
4108555522
4108562296
4108568217
4108572917
4108577616
4108584330
4108587992
4108594706
4108599833
4108605143
4108612956
4108618693
4108623270
4108629496
4108635905
4108637980
4108646952
4108650614
4108658427
4108662211
4108670206
4108674235
4108681681
4108686747
4108691569
4108696268
4108702616
4108711039
4108722330
4108726664
4108733561
4108738321
4108741984
4108750834
4108755716
4108764872
4108768778
4108776896
4108780497
4108787149
4108792032
4108796854
4108803141
4108807291
4108814615
4108819681
4108824076
4108829874
4108835672
4108841410
4108846109
4108849771
4108857035
4108864603
4108869608
4108874735
4108881937
4108887003
4108891824
4108898416
4108903238
4108910562
4108915445
4108920328
4108926614
4108932840
4108937662
4108943826
4108947427
4108954080
4108959268
4108966043
4108971292
4108975931
4108982217
4108986551
4108992837
4108998147
4109004861
4109010415
4109015298
4109018960
4109027078
4109031045
4109038247
4109043741
4109051614
4109058450
4109067727
4109071389
4109078592
4109084268
4109090493
4109095376
4109100381
4109107278
4109112527
4109116983
4109123330
4109127542
4109133523
4109137857
4109141091
4109150491
4109154031
4109160989
4109167581
4109171914
4109175942
4109184243
4109188027
4109195474
4109201943
4109206887
4109212502
4109222817
4109227883
4109234292
4109239175
4109244851
4109251870
4109257729
4109263894
4109269936
4109274819
4109278481
4109286233
4109292336
4109297829
4109303261
4109310708
4109315957
4109321816
4109326760
4109332680
4109337563
4109343300
4109350014
4109356362
4109363930
4109369851
4109375100
4109381813
4109386147
4109392311
4109399575
4109401833
4109409767
4109414711
4109420754
4109424599
4109430641
4109435768
4109442726
4109448647
4109455055
4109459694
4109466591
4109471291
4109477455
4109482094
4109485756
4109495278
4109502724
4109507973
4109511635
4109519447
4109524818
4109530434
4109535622
4109539955
4109547462
4109553688
4109558388
4109563881
4109569557
4109574074
4109580238
4109584022
4109592323
4109596168
4109603493
4109608803
4109613807
4109620765
4109626198
4109631019
4109636940
4109644203
4109649635
4109654274
4109660743
4109665687
4109669716
4109677101
4109682716
4109691749
4109696205
4109704322
4109707862
4109714149
4109718971
4109724281
4109728614
4109734291
4109740882
4109746009
4109751502
4109756874
4109762611
4109767066
4109772804
4109776283
4109783058
4109788917
4109795692
4109801002
4109806312
4109810767
4109817481
4109822120
4109829017
4109835365
4109839393
4109847083
4109854591
4109861121
4109867652
4109872962
4109877418
4109887977
4109890662
4109900977
4109907752
4109913489
4109920142
4109928687
4109935706
4109940833
4109949439
4109956702
4109965247
4109972022
4109977820
4109986731
4109991248
4110000220
4110007849
4110014197
4110026404
4110035987
4110042273
4110048560
4110055762
4110062659
4110068213
4110076758
4110083594
4110091712
4110100073
4110105933
4110116370
4110120825
4110130469
4110138037
4110143408
4110151038
4110158240
4110161230
4110174902
4110182410
4110191565
4110197119
4110205115
4110211889
4110218420
4110225561
4110233191
4110240942
4110250280
4110258642
4110264990
4110270117
4110277929
