4049179331
4049185251
4049188974
4049193491
4049199961
4049206186
4049211924
4049218698
4049224558
4049230661
4049234995
4049242502
4049248117
4049255380
4049261789
4049267404
4049274790
4049281748
4049289316
4049295847
4049302988
4049310373
4049315561
4049324472
4049331552
4049336313
4049344064
4049351450
4049357980
4049366281
4049372934
4049379037
4049385202
4049393869
4049400461
4049408639
4049417795
4049424631
4049432931
4049438058
4049447091
4049455026
4049461435
4049468576
4049475412
4049483895
4049492562
4049499826
4049505258
4049512338
4049519662
4049526559
4049534005
4049541146
4049548471
4049555245
4049562081
4049567452
4049574349
4049581368
4049588082
4049596261
4049603585
4049610421
4049615243
4049622811
4049630379
4049636544
4049646004
4049653268
4049660165
4049666939
4049672860
4049680062
4049686593
4049693795
4049701424
4049706673
4049715951
4049720955
4049730111
4049734139
4049744820
4049754097
4049762276
4049767403
4049774971
4049782662
4049789437
4049795357
4049802498
4049810616
4049816353
4049823311
4049829964
4049836800
4049843514
4049850594
4049856209
4049865791
4049874031
4049882210
4049889534
4049897102
4049904976
4049912178
4049921455
4049925240
4049935554
4049942512
4049948921
4049954292
4049964912
4049971870
4049979256
4049985908
4049992683
4049999580
4050006355
4050013313
4050020820
4050028633
4050035896
4050042427
4050049873
4050057136
4050062385
4050069770
4050078682
4050086311
4050092292
4050100776
4050107551
4050115547
4050122932
4050130866
4050139778
4050145576
4050153816
4050159553
4050168403
4050176215
4050182441
4050187934
4050199043
4050202644
4050213630
4050220588
4050227668
4050232551
4050242744
4050250068
4050256843
4050265327
4050272346
4050280158
4050287971
4050295051
4050301154
4050308112
4050316779
4050322638
4050330024
4050335273
4050345160
4050352363
4050360480
4050365607
4050375434
4050382758
4050387824
4050397406
4050405280
4050414618
4050422675
4050430182
4050437140
4050446784
4050453620
4050459540
4050468817
4050476019
4050484015
4050491889
4050498602
4050504767
4050513129
4050522162
4050525702
4050535773
4050542609
4050550299
4050555609
4050563299
4050572699
4050579901
4050586554
4050591559
4050600043
4050605047
4050613287
4050619330
4050627874
4050633185
4050642523
4050649481
4050655584
4050661444
4050670538
4050677313
4050684393
4050690680
4050697454
4050705328
4050710638
4050718695
4050726507
4050735235
4050742742
4050749090
4050756475
4050764105
4050771429
4050777776
4050786077
4050793890
4050801458
4050808233
4050815435
4050823431
4050829107
4050836370
4050845708
4050854681
4050861150
4050871282
4050877630
4050887273
4050895391
4050904241
4050912603
4050919622
4050926580
4050932683
4050941839
4050948247
4050953923
4050963201
4050970159
4050977178
4050983464
4050989324
4050996465
4051004460
4051010503
4051020146
4051025823
4051034917
4051041081
4051048589
4051055058
4051061894
4051069158
4051076238
4051083318
4051091069
4051098637
4051105595
4051112370
4051121404
4051128117
4051135503
4051141850
4051150822
4051156071
4051166630
4051175297
4051179509
4051184697
4051189213
4051193242
4051198613
4051204472
4051209599
4051213444
4051218693
4051223881
4051228276
4051231938
4051237553
4051242253
4051246464
4051251103
4051256230
4051260807
4051265385
4051270817
4051275029
4051280033
4051284306
4051288945
4051293278
4051297978
4051304753
4051310063
4051314640
4051319401
4051322575
4051327946
4051330448
4051338200
4051343266
4051347843
4051353398
4051357487
4051361027
4051367252
4051372257
4051378239
4051384403
4051388310
4051394230
4051397526
4051406376
4051412113
4051417851
4051423038
4051426823
4051431339
4051435490
4051442509
4051446720
4051451847
4051456913
4051460697
4051464786
4051469608
4051474247
4051477360
4051482487
4051487308
4051490970
4051495853
4051500370
4051505802
4051510807
4051515201
4051520328
4051524845
4051528751
4051533085
4051536686
4051542972
4051548160
4051553775
4051558841
4051563358
4051568363
4051572391
4051577335
4051581729
4051585819
4051591190
4051596134
4051599430
4051605472
4051612674
4051617984
4051623538
4051627689
4051632144
4051635929
4051641971
4051644779
4051651248
4051656253
4051661563
4051666446
4051671512
4051675479
4051681766
4051687686
4051691531
4051698123
4051702579
4051707340
4051710086
4051717166
4051722537
4051726016
4051733035
4051738589
4051743472
4051748599
4051753177
4051758548
4051764041
4051768985
4051774417
4051777835
4051783267
4051789310
4051793948
4051798282
4051803836
4051809573
4051812930
4051818973
4051826053
4051832827
4051838870
4051843814
4051848941
4051852786
4051861636
4051867739
4051872683
4051877261
4051882449
4051887088
4051894534
4051898684
4051903933
4051909365
4051914431
4051920291
4051926028
4051929995
4051936404
4051941287
4051949160
4051953921
4051958193
4051963137
4051967043
4051972842
4051976443
4051984499
4051988589
4051994936
4051999697
4052006899
4052012148
4052020205
4052027285
4052031679
4052038271
4052043948
4052049013
4052053652
4052060244
4052067324
4052071779
4052078127
4052084475
4052089541
4052095766
4052101626
4052106264
4052112734
4052117800
4052122622
4052127504
4052131228
4052136843
4052141726
4052147768
4052152895
4052157595
4052163088
4052168581
4052173464
4052177675
4052183413
4052188295
4052194216
4052199160
4052203371
4052208803
4052214784
4052221132
4052227480
4052231630
4052236391
4052241518
4052246340
4052253908
4052260439
4052265688
4052271425
4052277712
4052281984
4052287660
4052293825
4052302248
4052307619
4052312868
4052318361
4052325075
4052328249
4052336061
4052339113
4052346742
4052354494
4052358583
4052364992
4052368471
4052374696
4052379457
4052385682
4052389894
4052395631
4052403566
4052410707
4052415834
4052420411
4052426454
4052431459
4052436586
4052441591
4052447267
4052451478
4052455873
4052461915
4052469239
4052473817
4052478151
4052484010
4052488893
4052494081
4052499024
4052503236
4052508485
4052514955
4052521607
4052527528
4052534486
4052538392
4052544373
4052549195
4052555360
4052559144
4052566407
4052571107
4052577454
4052583009
4052587708
4052592591
4052599976
4052605164
4052611634
4052616517
4052621339
4052629273
4052633607
4052640504
4052646485
4052651185
4052656373
4052662659
4052667603
4052671815
4052677857
4052683228
4052688477
4052694642
4052699952
4052704224
4052709778
4052714905
4052720459
4052726563
4052731263
4052737183
4052742127
4052744935
4052752747
4052755555
4052763123
4052768616
4052775635
4052779053
4052785218
4052791382
4052796387
4052801819
4052806946
4052812805
4052817322
4052823792
4052827881
4052834961
4052839112
4052845215
4052848816
4052855225
4052863281
4052871399
4052876709
4052881043
4052886658
4052890686
4052897278
4052902649
4052909424
4052914917
4052919800
4052923645
4052928040
4052933777
4052938415
4052942993
4052948181
4052954773
4052960571
4052965515
4052972534
4052978088
4052983093
4052990173
4052995056
4053000366
4053005554
4053010925
4053016845
4053022949
4053027160
4053034851
4053041320
4053045105
4053050415
4053055664
4053059387
4053066528
4053072204
4053078491
4053086303
4053090820
4053095703
4053101074
4053106018
4053109741
4053117431
4053122924
4053128723
4053133788
4053139709
4053144958
4053149780
4053153991
4053160217
4053166076
4053172607
4053177245
4053183166
4053188171
4053192748
4053197021
4053202636
4053208923
4053213683
4053219360
4053223937
4053228271
4053233886
4053236449
4053243835
4053249816
4053255004
4053259643
4053266357
4053270873
4053276488
4053282043
4053287841
4053292296
4053298522
4053303222
4053307860
4053314025
4053318175
4053324279
4053329100
4053333861
4053339660
4053344725
4053349059
4053354796
4053359069
4053365172
4053370848
4053376220
4053380919
4053386718
4053393004
4053399535
4053404113
4053410155
4053417357
4053422362
4053428588
4053433592
4053440550
4053445738
4053450804
4053453795
4053462279
4053466368
4053471861
4053476805
4053482970
4053488402
4053493041
4053497984
4053502806
4053506834
4053512816
4053519774
4053524474
4053530455
4053535704
4053541807
4053548277
4053553648
4053558104
4053565245
4053570433
4053576231
4053581541
4053587034
4053591673
4053596251
4053600889
4053605162
4053612608
4053615782
4053621885
4053626097
4053632994
4053637144
4053643614
4053648008
4053654966
4053658995
4053664183
4053669859
4053674009
4053679258
4053684446
4053688475
4053695310
4053699583
4053704893
4053709226
4053716184
4053721006
4053725096
4053729490
4053734800
4053741148
4053746397
4053752989
4053757322
4053763975
4053768125
4053774412
4053780698
4053787229
4053791196
4053797178
4053805540
4053810423
4053819028
4053822813
4053830808
4053834898
4053839841
4053845396
4053850767
4053854490
4053859861
4053865720
4053871580
4053875669
4053881956
4053885801
4053891355
4053897092
4053900388
4053907224
4053912717
4053919004
4053923276
4053929197
4053935239
4053939450
4053943479
4053949949
4053954404
4053963254
4053968137
4053975461
4053979062
4053985837
4053991269
4053996762
4054001706
4054008237
4054012570
4054019162
4054023313
4054029294
4054033689
4054039792
4054044370
4054052060
4054059140
4054065366
4054071103
4054075436
4054081235
4054086423
4054090634
4054099423
4054104428
4054110471
4054114743
4054120663
4054125119
4054129208
4054135495
4054140744
4054146603
4054150632
4054156613
4054161191
4054166196
4054169003
4054176571
4054182614
4054191586
4054196896
4054201596
4054208310
4054213498
4054219967
4054225338
4054228390
4054236142
4054241391
4054247250
4054252377
4054258725
4054262997
4054269162
4054274044
4054278805
4054283261
4054289547
4054294918
4054299801
4054302731
4054309078
4054313473
4054323117
4054327755
4054334164
4054338436
4054343990
4054348995
4054354550
4054358578
4054364132
4054369442
4054374813
4054378841
4054383785
4054388851
4054393368
4054398983
4054404903
4054411007
4054415890
4054420284
4054425960
4054430050
4054435055
4054441402
4054445797
4054452572
4054455318
4054463680
4054466549
4054473202
4054477474
4054483822
4054488765
4054495907
4054502437
4054507747
4054512081
4054518184
4054522945
4054529781
4054535335
4054540706
4054547603
4054553951
4054559688
4054566524
4054570797
4054575496
4054581783
4054586421
4054590511
4054596614
4054601131
4054606380
4054612178
4054616573
4054621944
4054626888
4054632930
4054637569
4054640071
4054647151
4054651058
4054656001
4054664119
4054668941
4054673641
4054679561
4054684200
4054690486
4054694881
4054700984
4054705501
4054712642
4054718562
4054724605
4054728145
4054735286
4054738155
4054744746
4054749263
4054757014
4054759578
4054767451
4054770991
4054779780
4054783259
4054791804
4054798701
4054806575
4054813044
4054821895
4054829158
4054838130
4054845576
4054853083
4054862056
4054867549
4054873774
4054879634
4054885798
4054890742
4054895442
4054901240
4054905879
4054910517
4054914790
4054918879
4054922663
4054927485
4054932124
4054937007
4054941096
4054945063
4054949336
4054952693
4054957087
4054961970
4054966975
4054970271
4054976130
4054980463
4054984370
4054988337
4054993464
4054998347
4055002863
4055007258
4055011713
4055016718
4055021235
4055025690
4055032221
4055038752
4055044855
4055050410
4055055414
4055059992
4055063898
4055069086
4055075007
4055080378
4055084650
4055089899
4055093073
4055098322
4055102289
4055109003
4055113276
4055117914
4055121210
4055126459
4055129206
4055135248
4055140619
4055145624
4055150507
4055154963
4055159540
4055164301
4055168268
4055173090
4055178644
4055182550
4055187921
4055191461
4055197016
4055200983
4055206842
4055211298
4055217523
4055223139
4055228754
4055233515
4055237726
4055242304
4055247675
4055252557
4055257379
4055262018
4055266718
4055269830
4055274896
4055279352
4055284418
4055291132
4055297113
4055301385
4055306634
4055310113
4055315973
4055320673
4055326288
4055331476
4055337823
4055341913
4055347772
4055351312
4055357294
4055362054
4055366510
4055374872
4055378961
4055384027
4055388666
4055392999
4055398614
4055404290
4055409173
4055414911
4055420282
4055425470
4055432245
4055435785
4055443780
4055449151
4055456292
4055461358
4055468438
4055474176
4055478021
4055483758
4055487664
4055493768
4055498223
4055504266
4055508843
4055515374
4055521356
4055526605
4055531060
4055538140
4055542962
4055549432
4055553826
4055560052
4055565240
4055572442
4055576531
4055581597
4055587945
4055592767
4055596856
4055602044
4055607476
4055611626
4055615166
4055621453
4055624627
4055631585
4055635491
4055642754
4055647454
4055652093
4055656182
4055662591
4055668267
4055672783
4055677605
4055684014
4055687066
4055694085
4055698235
4055703667
4055708001
4055714165
4055720086
4055727227
4055734185
4055739434
4055744866
4055749565
4055754204
4055756951
4055764153
4055768730
4055772576
4055776665
4055782036
4055785149
4055792168
4055798027
4055801567
4055806450
4055809868
4055813774
4055819206
4055825127
4055830437
4055834953
4055838493
4055842339
4055847527
4055852409
4055856499
4055861931
4055867729
4055871452
4055876884
4055882805
4055887199
4055892693
4055898552
4055904045
4055909294
4055914848
4055921074
4055926811
4055930962
4055935722
4055942436
4055950859
4055955376
4055961723
4055966545
4055970817
4055977043
4055981010
4055987358
4055992668
4055999626
4056004936
4056009697
4056014763
4056019584
4056022636
4056029045
4056034355
4056042228
4056048637
4056055473
4056059318
4056065849
4056071220
4056076957
4056082328
4056087577
4056091850
4056098503
4056102287
4056108390
4056114128
4056117973
4056124259
4056131034
4056135978
4056140556
4056145561
4056151298
4056156852
4056161735
4056165946
4056171500
4056177116
4056182487
4056186942
4056192252
4056197318
4056201774
4056206412
4056214103
4056219962
4056224540
4056230216
4056234489
4056239188
4056245414
4056251395
4056255424
4056264335
4056267814
4056275138
4056279349
4056284293
4056288810
4056294120
4056298392
4056305045
4056309317
4056315299
4056320731
4056325675
4056329764
4056334342
4056340873
4056346976
4056352774
4056356131
4056363394
4056367972
4056372672
4056378043
4056383109
4056387686
4056395133
4056398856
4056406668
4056411856
4056418509
4056424002
4056429801
4056435416
4056442313
4056447012
4056452689
4056458365
4056465323
4056470389
4056477103
4056482413
4056488821
4056493704
4056499991
4056504629
4056511343
4056515738
4056520254
4056526785
4056533072
4056539908
4056543997
4056550345
4056553641
4056559927
4056562796
4056569632
4056574881
4056582571
4056587393
4056593924
4056598440
4056605581
4056610220
4056616446
4056623220
4056631155
4056636892
4056642141
4056646414
4056653738
4056658255
4056663259
4056669729
4056676870
4056680776
4056686697
4056692556
4056697439
4056702688
4056707388
4056711599
4056718008
4056723928
4056728506
4056734243
4056737844
4056743643
4056747366
4056753347
4056760732
4056765371
4056770925
4056776540
4056781667
4056786428
4056789358
4056796133
4056800649
4056806875
4056814138
4056820791
4056826223
4056833730
4056838003
4056844472
4056849172
4056857229
4056860464
4056867422
4056872671
4056879262
4056884389
4056889577
4056896352
4056901906
4056907094
4056912099
4056916860
4056921987
4056926137
4056931325
4056937917
4056941884
4056946523
4056952565
4056956777
4056963124
4056967702
4056972646
4056980764
4056986013
4056988820
4056995412
4056999867
4057005910
4057010060
4057017079
4057021718
4057028127
4057034230
4057039662
4057043935
4057048024
4057054372
4057059682
4057063832
4057069814
4057076466
4057080495
4057086659
4057089772
4057097157
4057099965
4057105946
4057111989
4057118031
4057122853
4057128468
4057132619
4057138539
4057144276
4057148915
4057153065
4057159596
4057166920
4057171498
4057178212
4057181691
4057190053
4057194996
4057199879
4057205311
4057211537
4057218983
4057223683
4057227894
4057235157
4057239918
4057244740
4057249134
4057256642
4057260670
4057266468
4057272145
4057275624
4057282093
4057287342
4057291615
4057299854
4057304188
4057308644
4057315052
4057318409
4057324513
4057329151
4057335804
4057338917
4057345448
4057351856
4057357105
4057361744
4057368397
4057372547
4057377613
4057384327
4057390675
4057397449
4057403065
4057407215
4057413258
4057417652
4057423145
4057428699
4057433521
4057439991
4057444385
4057449390
4057454395
4057460865
4057463672
4057470020
4057474598
4057482349
4057487110
4057493458
4057499500
4057503284
4057509693
4057513843
4057520069
4057526416
4057530994
4057536670
4057542591
4057547168
4057552112
4057556324
4057562793
4057567920
4057575794
4057580921
4057587207
4057592700
4057600208
4057604358
4057609851
4057616077
4057622058
4057628345
4057632739
4057638843
4057644092
4057649219
4057655139
4057660083
4057666919
4057671130
4057675891
4057682056
4057686938
4057691760
4057696155
4057703113
4057707812
4057713855
4057719104
4057724353
4057727649
4057734180
4057740954
4057746570
4057752856
4057757922
4057763782
4057768725
4057774951
4057780993
4057787097
4057792956
4057799182
4057805652
4057811267
4057816394
4057820788
4057826342
4057830432
4057835376
4057841540
4057846118
4057852771
4057856494
4057862353
4057868396
4057873156
4057877490
4057882800
4057887438
4057895495
4057900073
4057905993
4057910754
4057915881
4057921435
4057925341
4057931628
4057936450
4057943102
4057948107
4057953600
4057959094
4057964526
4057970080
4057976977
4057982714
4057988879
4057992174
4057998949
4058002184
4058009875
4058014941
4058019884
4058022936
4058031115
4058034289
4058041796
4058044909
4058052660
4058056750
4058062670
4058067248
4058073412
4058078112
4058084215
4058089098
4058095080
4058099047
4058104784
4058109789
4058116625
4058122057
4058124804
4058133043
4058135851
4058143175
4058146044
4058154222
4058158983
4058166185
4058171190
4058176561
4058181688
4058188158
4058193956
4058213793
4058218736
4058224230
4058229906
4058236925
4058241686
4058248094
4058253343
4058259691
4058265245
4058270982
4058274400
4058282213
4058286607
4058292650
4058298509
4058306261
4058312852
4058319383
4058326158
4058329942
4058337572
4058340623
4058349290
4058352098
4058359971
4058365709
4058370469
4058376085
4058381273
4058387864
4058391954
4058396470
4058402330
4058406114
4058411790
4058416307
4058422105
4058427598
4058431565
4058437059
4058442613
4058447068
4058452073
4058458055
4058462937
4058465989
4058473680
4058479356
4058484605
4058489244
4058494798
4058500291
4058505479
4058511216
4058519273
4058526048
4058532334
4058536240
4058541062
4058546128
4058551133
4058556382
4058561692
4058567063
4058571580
4058577195
4058582017
4058587144
4058591477
4058596604
4058601914
4058608384
4058612961
4058619309
4058623765
4058628647
4058633774
4058639268
4058643601
4058650315
4058654709
4058660752
4058664902
4058672043
4058676133
4058681565
4058687424
4058692307
4058698105
4058703232
4058708786
4058713669
4058719345
4058723313
4058728135
4058733567
4058740097
4058743393
4058751206
4058753952
4058760544
4058764939
4058771103
4058775620
4058783554
4058788376
4058794541
4058799423
4058804367
4058810837
4058815109
4058821396
4058828232
4058832504
4058838608
4058843002
4058848435
4058853195
4058859787
4058865891
4058869064
4058878281
4058883530
4058889999
4058895492
4058901352
4058905991
4058911911
4058916122
4058923324
4058927414
4058933517
4058937301
4058942917
4058948227
4058953110
4058958481
4058962936
4058968551
4058973251
4058978866
4058983566
4058989242
4058994186
4059000168
4059006515
4059010849
4059016403
4059022079
4059026046
4059032272
4059035324
4059041854
4059046798
4059053756
4059056930
4059064071
4059070236
4059076339
4059081588
4059087142
4059092452
4059098495
4059103439
4059109359
4059115096
4059119552
4059123397
4059129134
4059135665
4059140548
4059144759
4059150436
4059154891
4059160751
4059166183
4059170638
4059176498
4059182357
4059188522
4059193526
4059197677
4059203963
4059208175
4059212142
4059218551
4059224593
4059231368
4059234786
4059240951
4059245650
4059252059
4059254867
4059261214
4059265548
4059272933
4059277694
4059283492
4059289290
4059296187
4059301009
4059307357
4059312178
4059318709
4059325484
4059329024
4059334273
4059338179
4059343856
4059348006
4059353255
4059357772
4059363814
4059368148
4059372664
4059377730
4059382125
4059386519
4059390792
4059395186
4059402266
4059407576
4059414839
4059420149
4059427107
4059432906
4059439253
4059444991
4059450484
4059457320
4059462141
4059468428
4059473799
4059478255
4059481856
4059489790
4059493574
4059499251
4059501875
4059508162
4059512007
4059518721
4059522444
4059531050
4059536970
4059542219
4059546370
4059552107
4059556502
4059562300
4059568098
4059572859
4059578779
4059583052
4059588850
4059593367
4059599531
4059603621
4059608870
4059616133
4059621443
4059629988
4059634382
4059641340
4059647139
4059652571
4059658674
4059664167
4059668379
4059674116
4059680464
4059687483
4059691999
4059698347
4059703047
4059710920
4059717085
4059721296
4059726850
4059730329
4059737104
4059740400
4059748579
4059751753
4059759504
4059762556
4059768964
4059773725
4059779707
4059785383
4059790449
4059796369
4059803205
4059808027
4059814191
4059818891
4059823408
4059829877
4059835554
4059839826
4059846967
4059853986
4059858991
4059863813
4059869611
4059874311
4059878644
4059885541
4059891584
4059897870
4059902997
4059908796
4059914777
4059920087
4059924604
4059931562
4059936017
4059941815
4059948285
4059953168
4059958356
4059963666
4059970502
4059974408
4059981122
4059986798
4059996259
4060000958
4060007550
4060012128
4060018048
4060025250
4060030927
4060035504
4060042706
4060047223
4060050458
4060056989
4060062543
4060067242
4060071942
4060078229
4060083417
4060089459
4060095685
4060100934
4060105694
4060112042
4060116070
4060122174
4060126813
4060134259
4060140362
4060144940
4060150921
4060155804
4060161175
4060165020
4060171185
4060175641
4060183026
4060188824
4060194317
4060202313
4060208233
4060216351
4060221417
4060225262
4060233319
4060236492
4060244732
4060251202
4060255963
4060261090
4060267681
4060272137
4060277935
4060283123
4060288861
4060292156
4060298504
4060301373
4060309246
4060312237
4060321087
4060326275
4060331158
4060335491
4060341900
4060345989
4060351543
4060357342
4060362652
4060368572
4060373638
4060379803
4060384624
4060389141
4060395550
4060400860
4060406109
4060412639
4060418499
4060423382
4060428753
4060433574
4060437969
4060442913
4060449322
4060457256
4060461834
4060466961
4060473064
4060477703
4060483257
4060488201
4060493938
4060499370
4060504375
4060510112
4060514507
4060519573
4060525798
4060530803
4060535930
4060538860
4060547954
4060551006
4060559307
4060567790
4060572185
4060577251
4060582256
4060587139
4060595500
4060600932
4060607341
4060612712
4060617717
4060621929
4060627666
4060634013
4060640483
4060643596
4060651286
4060655742
4060661784
4060665996
4060671977
4060676250
4060683147
4060688090
4060692424
4060698649
4060702922
4060709453
4060713481
4060719951
4060723063
4060729899
4060735698
4060743144
4060746135
4060753215
4060757670
4060763102
4060767558
4060776103
4060784892
4060790080
4060794902
4060802470
4060807414
4060814128
4060816874
4060825358
4060829325
4060835673
4060840373
4060846537
4060852153
4060857829
4060864176
4060870890
4060875468
4060880290
4060882975
4060891337
4060894206
4060900981
4060905436
4060911418
4060916483
4060922831
4060927531
4060932841
4060938517
4060943827
4060948222
4060955058
4060961039
4060965617
4060971781
4060975932
4060981974
4060987467
4060991801
4060994852
4061003214
4061006327
4061013102
4061017679
4061024454
4061028788
4061033915
4061040140
4061047281
4061051798
4061058085
4061062662
4061068888
4061072916
4061079020
4061084757
4061091410
4061096170
4061101358
4061107645
4061111612
4061117838
4061126688
4061131449
4061139261
4061143961
4061150064
4061156961
4061163309
4061168497
4061173746
4061178629
4061186563
4061191202
4061196756
4061202493
4061207987
4061213663
4061218424
4061224344
4061229898
4061235819
4061240091
4061245767
4061251321
4061255533
4061261087
4061267496
4061273538
4061278482
4061284219
4061289041
4061294534
4061299722
4061302469
4061309488
4061314126
4061321145
4061326089
4061331521
4061336404
4061344095
4061350442
4061357095
4061362283
4061370157
4061375711
4061380227
4061384317
4061391702
4061394387
4061402078
4061405496
4061411660
4061416543
4061422830
4061428140
4061432778
4061438150
4061442788
4061447305
4061455728
4061461953
4061466775
4061469766
4061476174
4061481057
4061486855
4061491433
4061498696
4061503396
4061509683
4061514016
4061520181
4061524087
4061529702
4061533547
4061541970
4061545998
4061551858
4061555581
4061562539
4061567544
4061572366
4061575173
4061584634
4061589822
4061596291
4061600869
4061606423
4061610146
4061615578
4061619362
4061625710
4061630898
4061637490
4061642495
4061648232
4061652016
4061657387
4061661355
4061668190
4061676308
4061682290
4061688759
4061694252
4061698708
4061704750
4061708413
4061715615
4061722451
4061729287
4061735085
4061740639
4061747353
4061751442
4061758827
4061764015
4061770607
4061774574
4061781532
4061785378
4061791969
4061796730
4061803932
4061808693
4061814736
4061818947
4061825172
4061829628
4061834877
4061840675
4061846474
4061852577
4061857521
4061864052
4061867653
4061873878
4061876686
4061884437
4061892006
4061897865
4061903847
4061909462
4061912208
4061918800
4061924354
4061929786
4061933937
4061939735
4061945900
4061950294
4061956032
4061961891
4061967384
4061972877
4061979408
4061984169
4061990028
4061995399
4062000038
4062005531
4062011085
4062014381
4062020729
4062026649
4062033302
4062038124
4062044776
4062051002
4062056007
4062064796
4062070472
4062075416
4062081275
4062086219
4062092079
4062097328
4062103431
4062108558
4062114539
4062120704
4062126502
4062130592
4062136817
4062139564
4062146400
4062150733
4062157020
4062161414
4062169410
4062176124
4062181251
4062186195
4062191871
4062197242
4062201514
4062207068
4062214698
4062219031
4062223060
4062229529
4062235023
4062240638
4062244788
4062252540
4062256751
4062265662
4062272559
4062277747
4062281226
4062289222
4062293799
4062300147
4062304419
4062311866
4062316626
4062322669
4062327124
4062333838
4062337989
4062342993
4062348548
4062354651
4062360572
4062365088
4062370703
4062374365
4062380591
4062383948
4062391150
4062397437
4062402319
4062405554
4062413611
4062416663
4062425696
4062428687
4062435950
4062441138
4062446265
4062451331
4062456763
4062463049
4062471228
4062476904
4062483130
4062488623
4062497168
4062501684
4062507239
4062511511
4062516882
4062522436
4062527319
4062532812
4062538794
4062546667
4062551611
4062557409
4062561987
4062567663
4062573706
4062578039
4062584326
4062590490
4062595556
4062601049
4062606115
4062611914
4062618078
4062622229
4062628332
4062634069
4062638830
4062644506
4062648107
4062654394
4062659826
4062664892
4062670568
4062677221
4062681494
4062688452
4062691503
4062698522
4062702856
4062709387
4062713842
4062719640
4062724279
4062730199
4062736730
4062742101
4062747900
4062752721
4062756933
4062762914
4062768835
4062772924
4062779333
4062783361
4062789464
4062792211
4062799047
4062803625
4062812475
4062818944
4062824010
4062831457
4062836767
4062839879
4062846532
4062853124
4062859899
4062863500
4062870336
4062876745
4062883031
4062888280
4062893224
4062898412
4062905187
4062910924
4062915624
4062920446
4062926732
4062931432
4062936254
4062940892
4062948766
4062951879
4062958287
4062963109
4062968907
4062974401
4062978673
4062984410
4062989903
4062996678
4063001805
4063008153
4063011876
4063018468
4063023534
4063028600
4063035313
4063041844
4063048741
4063053990
4063059666
4063064427
4063068822
4063074986
4063079808
4063086217
4063090733
4063097386
4063101781
4063107823
4063112157
4063117039
4063123326
4063129613
4063135411
4063140172
4063144566
4063150303
4063155858
4063160374
4063165257
4063168248
4063176548
4063182164
4063187535
4063193272
4063198765
4063203038
4063208836
4063215611
4063222386
4063227452
4063232640
4063237034
4063242588
4063248387
4063252598
4063258396
4063264683
4063269322
4063275364
4063279698
4063283848
4063290318
4063295567
4063300694
4063306736
4063313694
4063319004
4063323948
4063328526
4063334263
4063338779
4063345860
4063350010
4063359287
4063365696
4063370823
4063375156
4063380649
4063386265
4063391514
4063398533
4063404575
4063410862
4063415928
4063420200
4063425815
4063432407
4063436802
4063443943
4063447300
4063455356
4063461277
4063466587
4063470859
4063476535
4063480808
4063487522
4063492038
4063499973
4063504978
4063509800
4063514072
4063519992
4063525669
4063529941
4063535556
4063541965
4063548557
4063553073
4063559360
4063563327
4063569797
4063574130
4063579196
4063584567
4063590976
4063594211
4063601840
4063604648
4063613193
4063618320
4063624667
4063629245
4063636630
4063642429
4063647311
4063652805
4063657565
4063663119
4063668979
4063673129
4063679965
4063684421
4063690646
4063697543
4063702914
4063710055
4063716037
4063722323
4063726901
4063733676
4063738315
4063744967
4063749911
4063755282
4063761386
4063766757
4063769748
4063778659
4063784457
4063789645
4063794284
4063799411
4063803927
4063811068
4063815524
4063822482
4063828463
4063833346
4063838900
4063843539
4063849093
4063853732
4063858431
4063864596
4063871249
4063876559
4063881747
4063887423
4063892550
4063896700
4063902499
4063907076
4063915499
4063920260
4063926730
4063931429
4063937228
4063942599
4063946139
4063952364
4063956515
4063964815
4063971712
4063977816
4063983004
4063989107
4063995882
4064001375
4064007662
4064014803
4064018953
4064025667
4064032381
4064036715
4064041414
4064048189
4064054110
4064059115
4064064119
4064069124
4064075655
4064080233
4064084871
4064089876
4064096285
4064101351
4064106295
4064112154
4064116426
4064122835
4064128572
4064134371
4064139315
4064144258
4064151155
4064155855
4064162264
4064167085
4064171419
4064177034
4064182100
4064188387
4064193697
4064201936
4064206270
4064210725
4064217134
4064222932
4064227022
4064233980
4064239290
4064242891
4064249849
4064255830
4064261629
4064265657
4064272066
4064276582
4064284273
4064289766
4064294771
4064300569
4064306917
4064309663
4064316804
4064321748
4064327669
4064332612
4064338716
4064343171
4064349885
4064354341
4064359651
4064365266
4064371797
4064377717
4064383027
4064387239
4064392671
4064398225
4064402131
4064408357
4064411286
4064418489
4064421662
4064429292
4064434175
4064440461
4064444490
4064450166
4064456086
4064462556
4064467072
4064472260
4064477143
4064483003
4064488801
4064493623
4064499055
4064504487
4064510835
4064517976
4064523652
4064529145
4064535493
4064542512
4064550751
4064556489
4064564545
4064570405
4064574433
4064583100
4064586518
4064594453
4064599702
4064609589
4064615571
4064619843
4064623627
4064630341
4064634736
4064639802
4064644074
4064649933
4064654816
4064660920
4064666413
4064671967
4064676056
4064682404
4064686554
4064693940
4064699799
4064705292
4064709687
4064715119
4064721100
4064726837
4064731659
4064738739
4064744538
4064749176
4064754669
4064761078
4064767853
4064773590
4064778534
4064786102
4064792206
4064797211
4064802826
4064808197
4064813690
4064817902
4064823639
4064828156
4064834503
4064840424
4064844635
4064849945
4064854706
4064858978
4064864654
4064871918
4064877472
4064882233
4064888153
4064893097
4064899017
4064904693
4064908844
4064914337
4064922210
4064926788
4064931061
4064937469
4064942901
4064947052
4064952118
4064957184
4064962310
4064969696
4064972870
4064980133
4064984649
4064991302
4064995330
4065001312
4065007049
4065014862
4065019744
4065025909
4065032073
4065037628
4065043243
4065047943
4065052459
4065058563
4065063262
4065069305
4065075530
4065080718
4065086273
4065091766
4065095977
4065101959
4065107635
4065115630
4065121368
4065127410
4065132659
4065138885
4065143096
4065151275
4065158721
4065163421
4065169402
4065175201
4065180816
4065186492
4065191863
4065198272
4065204009
4065209563
4065214751
4065221770
4065226958
4065233672
4065238921
4065244536
4065250090
4065257293
4065264190
4065268950
4065273772
4065280425
4065284148
4065292693
4065298491
4065304473
4065307830
4065316802
4065323088
4065328704
4065332305
4065344512
4065351653
4065356230
4065362578
4065367522
4065373442
4065378264
4065383818
4065390410
4065393462
4065399809
4065405974
4065410796
4065415068
4065420683
4065426421
4065432219
4065437163
4065443205
4065447600
4065452971
4065458647
4065462920
4065467924
4065474760
4065481169
4065484892
4065491057
4065496550
4065501921
4065507292
4065512175
4065516630
4065524077
4065528837
4065535368
4065540190
4065546354
4065551115
4065557219
4065561430
4065567839
4065573637
4065578825
4065583220
4065586454
4065593595
4065598661
4065603605
4065607878
4065615934
4065621855
4065627287
4065632048
4065637785
4065643156
4065648039
4065653959
4065661527
4065666105
4065672331
4065677824
4065683012
4065687162
4065692777
4065698637
4065704923
4065711576
4065717313
4065723295
4065730192
4065736417
4065742948
4065748258
4065754545
4065759794
4065764188
4065769865
4065775358
4065780973
4065785428
4065790922
4065796476
4065802884
4065808317
4065812528
4065818387
4065822538
4065828824
4065833585
4065836698
4065845304
4065850980
4065856168
4065861356
4065870694
4065874784
4065880399
4065884732
4065891690
4065896329
4065901700
4065907865
4065912198
4065919461
4065924771
4065930265
4065933682
4065942777
4065945706
4065953153
4065959256
4065964444
4065970426
4065975614
4065980924
4065987821
4065992581
4065998807
4066003690
4066009366
4066015408
4066021695
4066024808
4066032193
4066037991
4066043179
4066049222
4066054288
4066060696
4066065823
4066070889
4066077054
4066081814
4066087124
4066092740
4066098172
4066103360
4066110074
4066114529
4066121182
4066126675
4066130642
4066136624
4066141140
4066148221
4066152737
4066157559
4066164578
4066169888
4066176175
4066180447
4066185147
4066189724
4066195889
4066198757
4066205899
4066211575
4066218655
4066221707
4066228482
4066232510
4066239285
4066243374
4066251553
4066256252
4066262966
4066270046
4066275784
4066281948
4066288357
4066295437
4066301907
4066309170
4066315578
4066321499
4066326931
4066330959
4066338711
4066343777
4066349575
4066354885
4066360866
4066365749
4066370571
4066376369
4066381313
4066387050
4066391689
4066394985
4066401760
4066407619
4066413479
4066417629
4066424404
4066428066
4066435573
4066441127
4066445949
4066453334
4066458828
4066466152
4066472744
4066482631
4066489528
4066495632
4066501186
4066505031
4066510585
4066516811
4066522914
4066527675
4066534511
4066537380
4066544216
4066550441
4066555812
4066561550
4066565883
4066573879
4066579555
4066585597
4066591396
4066599086
4066604152
4066607570
4066614955
4066618617
4066625575
4066632777
4066638698
4066644679
4066649013
4066653163
4066659206
4066663539
4066669032
4066674159
4066679408
4066685390
4066689845
4066695399
4066699061
4066706508
4066711696
4066717128
4066721217
4066727076
4066732692
4066737208
4066743373
4066748927
4066755580
4066760829
4066767299
4066772731
4066778712
4066783778
4066792262
4066799098
4066803248
4066810633
4066815150
4066821559
4066826502
4066833644
4066837123
4066844874
4066847743
4066854579
4066857630
4066865687
4066869471
4066878443
4066886378
4066894862
4066900416
4066904566
4066909632
4066915858
4066922205
4066927088
4066933192
4066938380
4066948878
4066952296
4066960047
4066966822
4066972010
4066977686
4066982935
4066987391
4066993433
4066999781
4067006434
4067013514
4067018580
4067023890
4067030604
4067035669
4067039942
4067045496
4067049707
4067057825
4067062891
4067068018
4067072474
4067077784
4067083338
4067087732
4067093347
4067098596
4067105005
4067108850
4067115137
4067120569
4067124903
4067129724
4067136133
4067138941
4067146021
4067150598
4067157007
4067161157
4067167078
4067172571
4067176904
4067182642
4067190759
4067195459
4067200891
4067206934
4067212061
4067217554
4067221582
4067227686
4067233423
4067240015
4067243982
4067250635
4067253870
4067261194
4067265405
4067271753
4067276269
4067283533
4067288476
4067294702
4067298852
4067305505
4067309656
4067315149
4067320642
4067327844
4067333947
4067339013
4067343347
4067349817
4067356347
4067361413
4067366479
4067372033
4067378991
4067386315
4067391137
4067397485
4067402551
4067408166
4067412988
4067417871
4067425683
4067430383
4067437280
4067442040
4067453515
4067458459
4067465966
4067469811
4067476647
4067481469
4067487939
4067490991
4067498193
4067504540
4067509362
4067515099
4067522118
4067525903
4067532799
4067537987
4067542748
4067546899
4067553429
4067557885
4067565941
4067571740
4067577904
4067580956
4067589745
4067595177
4067600060
4067605126
4067610924
4067615807
4067621483
4067625695
4067631798
4067637475
4067641747
4067647362
4067654259
4067658776
4067662926
4067669457
4067673546
4067680016
4067684410
4067690514
4067693505
4067701378
4067706810
4067711815
4067715904
4067721276
4067726891
4067732750
4067736901
4067744286
4067749108
4067755272
4067760765
4067765404
4067770958
4067775658
4067780113
4067783714
4067791405
4067797447
4067801720
4067806725
4067811729
4067815941
4067822411
4067826622
4067835411
4067840843
4067846214
4067850731
4067856163
4067861778
4067867454
4067871605
4067879112
4067883812
4067888450
4067895714
4067901512
4067908958
4067915245
4067922691
4067932029
4067939171
4067947654
4067951133
4067958885
4067963646
4067970054
4067976768
4067982627
4067988670
4067995079
4067999290
4068005210
4068009422
4068016014
4068020164
4068027793
4068032310
4068038352
4068042625
4068048301
4068053977
4068058616
4068064292
4068069297
4068074424
4068079246
4068085655
4068090293
4068095359
4068099876
4068106345
4068110618
4068118613
4068123435
4068129295
4068134116
4068140159
4068146384
4068151450
4068158469
4068166343
4068172996
4068177878
4068183188
4068189292
4068195029
4068200339
4068206077
4068212180
4068217490
4068222800
4068226951
4068231833
4068237571
4068243369
4068248191
4068253928
4068260764
4068266562
4068271262
4068274375
4068283347
4068286643
4068293662
4068297690
4068304221
4068308737
4068314597
4068319358
4068326193
4068330466
4068336081
4068342490
4068348410
4068352683
4068357749
4068364035
4068368979
4068373801
4068378561
4068384909
4068387839
4068395834
4068399252
4068405478
4068412253
4068417441
4068421713
4068426596
4068432272
4068437582
4068443381
4068448752
4068453085
4068462363
4068467612
4068473288
4068477560
4068484701
4068490561
4068495749
4068501547
4068507773
4068514547
4068522909
4068526693
4068533468
4068541342
4068546957
4068553305
4068560019
4068564047
4068569906
4068578207
4068581686
4068588827
4068592916
4068598410
4068602682
4068608602
4068614340
4068620687
4068625143
4068631002
4068636678
4068640646
4068646383
4068649984
4068656271
4068662496
4068668539
4068672811
4068679708
4068685323
4068693624
4068699361
4068707418
4068713583
4068719442
4068727682
4068736837
4068743368
4068748250
4068756002
4068760702
4068767476
4068771932
4068778097
4068782674
4068790243
4068794576
4068799825
4068806478
4068812948
4068817586
4068823385
4068827535
4068833516
4068838338
4068843160
4068848836
4068855001
4068861776
4068866475
4068873311
4068878438
4068886190
4068888814
4068899373
4068907674
4068914876
4068918843
4068928182
4068935811
4068944295
4068951497
4068959798
4068968831
4068973836
4068983601
4068991109
4068998555
4069005452
4069009846
4069020161
4069027180
4069032979
4069040791
4069045369
4069058858
4069064412
4069072346
4069079121
4069086629
4069094380
4069098958
4069108113
4069115071
4069121724
4069129841
4069135029
4069145405
4069153462
4069162800
4069172139
4069178486
4069186726
4069199848
4069206318
4069214497
4069226155
4069233479
4069239582
4069251118
4069258869
4069265888
4069274860
4069284931
4069292316
4069301411
4069306843
4069315449
4069323200
4069330097
4069335712
4069343525
4069348041
4069360859
4069368244
4069375934
4069382892
4069388263
4069396198
4069403461
4069411213
4069418110
4069424213
4069435199
4069440326
4069450214
4069457416
4069463947
4069471576
4069476154
4069483905
4069492694
4069500141
4069507038
4069511249
4069521137
4069527728
4069534747
4069543231
4069550617
4069558673
4069563190
4069574542
4069581561
4069589984
4069596271
4069601398
4069609027
4069615497
4069623492
4069629535
4069636859
4069646930
4069653094
4069660907
4069665912
4069677386
4069685016
4069694354
4069701922
4069711200
4069718890
4069723712
4069735492
4069743121
4069749896
4069758319
4069766742
4069773211
4069780413
4069789630
4069797198
4069803118
4069811358
4069818072
4069826190
4069833270
4069839678
4069845843
4069853655
4069864092
4069871966
4069877825
4069886004
4069892962
4069900347
4069907061
4069914873
4069922808
4069927447
4069940264
4069947222
4069954485
4069960894
4069967669
4069975542
4069980242
4069989702
4069996782
4070005022
4070012285
4070017107
4070026568
4070033831
4070040667
4070046648
4070050920
4070060930
4070067461
4070077471
4070084551
4070091143
4070099138
4070103594
4070113420
4070121233
4070129106
4070138323
4070144182
4070152910
4070160539
4070168779
4070175798
4070181902
4070189836
4070194109
4070204729
4070211259
4070219987
4070226945
4070233354
4070240556
4070245073
4070253984
4070260515
4070266984
4070274492
4070278703
4070288408
4070294877
4070301896
4070310441
4070314714
4070324174
4070329179
4070336686
4070343156
4070353532
4070360856
4070367021
4070374406
4070378923
4070388749
4070394731
4070401139
4070407060
4070415483
4070422807
4070432389
4070438615
4070448564
4070453935
4070463273
4070468034
4070475358
4070485612
4070493607
4070498246
4070507890
4070514542
4070519852
4070529740
4070536088
4070543656
4070550309
4070556046
4070563309
4070569413
4070576371
4070584672
4070589982
4070596390
4070603714
4070610367
4070614884
4070627335
4070633377
4070640274
4070646134
4070652298
4070658097
4070665726
4070671952
4070675797
4070685623
4070692581
4070699723
4070705826
4070712357
4070719681
4070726029
4070733719
4070739639
4070746781
4070754349
4070758194
4070767654
4070773575
4070781082
4070787552
4070794998
4070802139
4070810867
4070818558
4070823440
4070832352
4070839126
4070846329
4070854446
4070858902
4070867691
4070874954
4070884231
4070893020
4070899551
4070908218
4070913284
4070925430
4070932998
4070939163
4070947708
4070956985
4070967544
4070973098
4070984878
4070989700
4070999099
4071005996
4071014297
4071020095
4071028701
4071041335
4071048538
4071056594
4071063430
4071068252
4071078933
4071085586
4071090530
4071100173
4071102309
4071114516
4071122207
4071129958
4071136611
4071142226
4071150893
4071155410
4071164748
4071171523
4071179763
4071186782
4071193740
4071199233
4071205459
4071213454
4071220656
4071227065
4071234450
4071239028
4071248549
4071255568
4071263442
4071270217
4071277419
4071284316
4071291579
4071300734
4071307326
4071316725
4071324782
4071330458
4071339736
4071344069
4071353652
4071361891
4071370314
4071378249
4071386977
4071393507
4071400160
4071407973
4071417311
4071422926
4071429884
4071437453
4071445326
4071449965
4071462294
4071469740
4071478041
4071485060
4071492933
4071498732
4071505690
4071514113
4071520521
4071528273
4071536268
4071541151
4071549818
4071556593
4071564283
4071571546
4071575880
4071585890
4071592298
4071601820
4071608656
4071615919
4071621595
4071628370
4071636915
4071643446
4071650526
4071658643
4071667310
4071674940
4071682264
4071689161
4071696607
4071703443
4071710828
4071717969
4071725294
4071732007
4071739393
4071746351
4071751295
4071759656
4071765760
4071773206
4071779493
4071786390
4071793470
4071797437
4071808667
4071813550
4071821729
4071828382
4071834546
4071843824
4071849317
4071860181
4071868421
4071872083
4071883618
4071890210
4071898145
4071904492
4071917615
4071926038
4071935620
4071943189
4071954297
4071961804
4071967908
4071976819
4071984387
4071990918
4071999585
4072004651
4072016980
4072024609
4072034497
4072041760
4072044812
4072056225
4072060803
4072069409
4072075635
4072082409
4072090039
4072094250
4072105481
4072111828
4072119275
4072125561
4072130932
4072140881
4072145398
4072154370
4072160778
4072169140
4072175549
4072182629
4072190686
4072195446
4072204907
4072211865
4072218884
4072225781
4072234387
4072241650
4072246410
4072255016
4072261425
4072269054
4072275646
4072282421
4072288830
4072295788
4072304089
4072310314
4072316601
4072322948
4072328014
4072336986
4072340954
4072348949
4072354992
4072362438
4072371654
4072373607
4072383983
4072387951
4072397350
4072403515
4072406139
4072418102
4072425060
4072432506
4072436962
4072445446
4072451854
4072458873
4072465465
4072469493
4072478893
4072484813
4072495433
4072501781
4072508068
4072516002
4072521068
4072528026
4072534557
4072541210
4072547374
4072558482
4072564769
4072571727
4072576793
4072583141
4072591624
4072597789
4072603221
4072610423
4072617869
4072625499
4072630199
4072639598
4072646251
4072653331
4072659923
4072664805
4072673900
4072680858
4072689769
4072701732
4072707469
4072716014
4072723887
4072730174
4072734446
4072744334
4072750743
4072759715
4072767100
4072774424
4072781626
4072785716
4072795481
4072801585
4072806223
4072816050
4072825999
4072832957
4072840281
4072847544
4072851878
4072860300
4072868296
4072872813
4072881724
4072883799
4072896738
4072901194
4072909312
4072915598
4072922556
4072928538
4072937510
4072942454
4072948374
4072959543
4072966013
4072972666
4072979014
4072983652
4072992075
4072998240
4073005442
4073013926
4073021860
4073031809
4073038156
4073045298
4073051279
4073063669
4073071176
4073080210
4073088083
4073096567
4073105783
4073112558
4073121835
4073129587
4073138559
4073146372
4073155954
4073164804
4073167246
4073180185
4073187692
4073196725
4073204355
4073213632
4073219430
4073226510
4073234750
4073241769
4073249093
4073256479
4073265390
4073271066
4073278329
4073285837
4073294626
4073296762
4073307138
4073310983
4073323373
4073327829
4073335763
4073341623
4073349130
4073355355
4073359262
4073368295
4073374459
4073384713
4073391427
4073397836
4073404977
4073409005
4073417428
4073423470
4073430184
4073438119
4073440072
4073453256
4073458260
4073465646
4073471505
4073477853
4073486031
4073492196
4073497201
4073503487
4073516671
4073521432
4073530282
4073536996
4073541451
4073551034
4073559762
4073567574
4073574288
4073582589
4073588814
4073594613
4073603463
4073608590
4073617684
4073624215
4073629708
4073639534
4073645638
4073653328
4073660958
4073668221
4073674507
4073678902
4073687813
4073694344
4073701302
4073705330
4073714546
4073721260
4073726692
4073733955
4073741829
4073748116
4073751961
4073760994
4073766975
4073776436
4073784248
4073791450
4073798714
4073803474
4073812324
4073818611
4073825020
4073831123
4073835029
4073845405
4073853340
4073859077
4073867744
4073873176
4073881233
4073886421
4073894783
4073901130
4073912483
4073919075
4073926277
4073932502
4073938362
4073945320
4073949348
4073958808
4073964851
4073973396
4073979621
4073986762
4073993598
4073997993
4074007209
4074013374
4074020271
4074026435
4074030280
4074041145
4074045783
4074056037
4074062751
4074069892
4074075385
4074083442
4074089728
4074093635
4074104255
4074113105
4074121589
4074127875
4074134406
4074141669
4074145637
4074155219
4074161078
4074168097
4074176337
4074183051
4074189032
4074194953
4074201850
4074208136
4074215339
4074221564
4074227179
4074236579
4074240668
4074250617
4074256659
4074263983
4074270575
4074277411
4074285773
4074290961
4074299933
4074307868
4074314887
4074323309
4074325324
4074335150
4074341559
4074346381
4074353400
4074357489
4074371344
4074376654
4074390082
4074398016
4074405218
4074409796
4074420599
4074427557
4074441107
4074446600
4074456793
4074463690
4074472967
4074477179
4074486151
4074494635
4074500250
4074507330
4074512274
4074523443
4074529547
4074539190
4074546026
4074551580
4074560125
4074565863
4074577215
4074585455
4074591558
4074598516
4074605413
4074613287
4074618231
4074628240
4074634527
4074643743
4074649908
4074657049
4074663457
4074668035
4074677923
4074684637
4074692510
4074699773
4074706914
4074714117
4074722539
4074729925
4074735357
4074742620
4074746282
4074752263
4074756597
4074764348
4074767522
4074774419
4074779119
4074785589
4074789861
4074796392
4074803106
4074809880
4074814946
4074821416
4074825872
4074832036
4074836431
4074841497
4074847356
4074852117
4074858220
4074862554
4074869268
4074874944
4074879338
4074884770
4074889775
4074895513
4074902898
4074906560
4074913579
4074918462
4074923283
4074927678
4074933904
4074939763
4074944951
4074951299
4074956364
4074962529
4074967595
4074973149
4074977849
4074983525
4074987797
4074994328
4074998845
4075005070
4075010014
4075014897
4075019169
4075025456
4075029667
4075037724
4075041264
4075048100
4075052739
4075058781
4075065617
4075071354
4075077275
4075083195
4075089299
4075096013
4075102238
4075109745
4075117192
4075124943
4075128239
4075138005
4075143620
4075150090
4075154423
4075161198
4075166874
4075172062
4075174870
4075184269
4075188114
4075194950
4075200993
4075206730
4075211491
4075216984
4075222843
4075230961
4075235539
4075241764
4075246037
4075250736
4075256351
4075261478
4075266727
4075270084
4075277348
4075283451
4075291325
4075297733
4075305179
4075311039
4075316593
4075322208
4075326053
4075331425
4075336979
4075342655
4075347233
4075354007
4075358280
4075366398
4075371158
4075378483
4075383304
4075390628
4075394046
4075403141
4075406498
4075415042
4075420536
4075427433
4075432010
4075437503
4075442874
4075447269
4075456912
4075460697
4075468082
4075473575
4075478519
4075483402
4075489993
4075494510
4075500736
4075505863
4075513858
4075520694
4075525272
4075531436
4075538211
4075545657
4075551212
4075556644
4075559756
4075570193
4075574039
4075580630
4075585330
4075592227
4075598392
4075603519
4075608401
4075613467
4075622012
4075626651
4075632632
4075637027
4075642215
4075647830
4075653201
4075658023
4075665713
4075673892
4075678958
4075685672
4075691531
4075697085
4075701968
4075706546
4075715274
4075719119
4075727114
4075732302
4075737002
4075741275
4075747683
4075752322
4075761721
4075765139
4075771975
4075778628
4075783328
4075788088
4075793459
4075797610
4075804873
4075809451
4075815127
4075821108
4075826663
4075832766
4075839236
4075843935
4075851138
4075855288
4075861697
4075866274
4075872134
4075876406
4075881045
4075888674
4075896670
4075903689
4075908816
4075913027
4075918581
4075922304
4075926882
4075931948
4075938112
4075942812
4075950014
4075953859
4075959353
4075963320
4075969851
4075974123
4075982119
4075984865
4075991396
4075995241
4076000612
4076005617
4076010561
4076014467
4076020266
4076025637
4076030947
4076036623
4076041017
4076046205
4076050051
4076054628
4076060610
4076065676
4076072328
4076077638
4076080385
4076086855
4076091249
4076097109
4076102663
4076108949
4076113466
4076119692
4076123842
4076127809
4076133913
4076138063
4076144167
4076146913
4076157045
4076160585
4076167909
4076171999
4076177980
4076182375
4076188295
4076192628
4076199647
4076206789
4076211488
4076217775
4076223756
4076229616
4076237245
4076242616
4076251893
4076256898
4076263795
4076268556
4076274965
4076281434
4076286866
4076290773
4076296449
4076302919
4076308351
4076313356
4076317872
4076324098
4076327577
4076334169
4076337037
4076344239
4076348878
4076355287
4076360108
4076366639
4076372743
4076378297
4076382874
4076389100
4076396424
4076401429
4076407044
4076410767
4076419190
4076422181
4076429444
4076434022
4076441895
4076447022
4076453492
4076460206
4076467591
4076474061
4076479615
4076485230
4076491578
4076497620
4076502991
4076509339
4076515748
4076522095
4076526734
4076533692
4076540284
4076545777
4076551697
4076556275
4076562623
4076568665
4076574341
4076580445
4076585083
4076592530
4076598328
4076606018
4076612915
4076619568
4076624817
4076631287
4076637268
4076643799
4076649353
4076655335
4076659241
4076667237
4076670593
4076678345
4076685669
4076691773
4076696716
4076702759
4076707581
4076711975
4076718933
4076723999
4076729248
4076734680
4076741882
4076745361
4076752991
4076757507
4076763245
4076770508
4076776062
4076782043
4076788147
4076792663
4076799988
4076804870
4076810058
4076815430
4076818420
4076827270
4076830261
4076838867
4076842346
4076851623
4076856140
4076862793
4076867248
4076873535
4076878051
4076882812
4076889648
4076895691
4076901611
4076907165
4076913147
4076918823
4076924804
4076930481
4076936645
4076942260
4076948242
4076953857
4076960449
4076968078
4076977172
4076981567
4076988525
4076993286
4077000244
4077006286
4077012695
4077018310
4077024352
4077030334
4077035033
4077041259
4077045470
4077051086
4077056029
4077058715
4077066405
4077071349
4077077880
4077083984
4077091430
4077095580
4077101989
4077106139
4077110717
4077117003
4077122008
4077128478
4077133666
4077140014
4077144652
4077151000
4077159789
4077164489
4077169860
4077176757
4077182555
4077188475
4077194152
4077199767
4077203978
4077209594
4077214537
4077221312
4077225341
4077231688
4077235045
4077242125
4077247191
4077252196
4077256591
4077264708
4077270201
4077276000
4077280211
4077285765
4077291380
4077296080
4077301634
4077307494
4077313414
4077318480
4077324400
4077330565
4077337035
4077343687
4077348997
4077356200
4077362791
4077369078
4077375853
4077381346
4077387938
4077392332
4077399596
4077404661
4077410826
4077416502
4077423460
4077426817
4077433287
4077438231
4077445128
4077452879
4077461241
4077467466
4077474119
4077478331
4077484617
4077491148
4077496885
4077501036
4077507933
4077513243
4077520018
4077524351
4077527159
4077534239
4077538572
4077545347
4077549803
4077555784
4077560728
4077566953
4077571287
4077577024
4077582823
4077587095
4077593015
4077599302
4077606138
4077610471
4077616697
4077620664
4077626890
4077629758
4077637754
4077643491
4077650327
4077655576
4077662412
4077668088
4077674253
4077681577
4077688352
4077692991
4077697629
4077705320
4077710508
4077716978
4077721494
4077726438
4077731077
4077737058
4077741269
4077749265
4077752439
4077758664
4077762937
4077769651
4077774106
4077779660
4077785215
4077790952
4077797116
4077802427
4077808713
4077815244
4077820676
4077828733
4077835080
4077841550
4077848630
4077853147
4077860105
4077865293
4077870053
4077876340
4077881650
4077884763
4077893613
4077897153
4077904294
4077908994
4077915646
4077922055
4077925473
4077932492
4077938046
4077945554
4077951230
4077956784
4077960141
4077968076
4077972653
4077979367
4077983639
4077992978
4077997800
4078003598
4078009946
4078014096
4078019711
4078025387
4078029660
4078038388
4078045041
4078053830
4078058041
4078065426
4078070065
4078076046
4078080624
4078087399
4078093869
4078100155
4078104367
4078109249
4078115963
4078121334
4078125546
4078132199
4078138546
4078144406
4078149472
4078154110
4078159970
4078164120
4078170345
4078176449
4078181759
4078186581
4078192867
4078197079
4078202694
4078208370
4078213741
4078219601
4078225948
4078232052
4078237301
4078242977
4078247250
4078252743
4078257442
4078262386
4078268551
4078275753
4078281185
4078288265
4078291622
4078297970
4078302914
4078309261
4078313961
4078320919
4078325496
4078331356
4078335567
4078341488
4078348263
4078352962
4078358638
4078362667
4078369930
4078376827
4078381160
4078386165
4078392452
4078395992
4078402217
4078406368
4078414974
4078418148
4078424495
4078430660
4078435482
4078439632
4078445796
4078450130
4078457637
4078462337
4078467830
4078473445
4078478023
4078484737
4078489009
4078496150
4078499812
4078508113
4078511958
4078519099
4078522517
4078530208
4078534847
4078541072
4078547176
4078552119
4078558406
4078563716
4078570308
4078574031
4078580501
4078583308
4078590388
4078595088
4078602962
4078608699
4078614192
4078619075
4078625056
4078629634
4078636836
4078643977
4078647883
4078656672
4078663936
4078671504
4078679683
4078686763
4078692988
4078698725
4078704951
4078710383
4078716243
4078720576
4078726191
4078730891
4078735652
4078741755
