4317198359
4317203974
4317209406
4317215022
4317220576
4317225092
4317230830
4317235957
4317240717
4317245966
4317252802
4317259943
4317265620
4317271357
4317277766
4317283564
4317290156
4317297175
4317302119
4317308405
4317315668
4317321161
4317329828
4317336054
4317341730
4317348566
4317357416
4317364863
4317372065
4317380854
4317387812
4317394037
4317402643
4317411921
4317419672
4317427484
4317434198
4317440607
4317450434
4317458979
4317467645
4317476984
4317485590
4317493830
4317502130
4317512994
4317520014
4317529352
4317535883
4317543451
4317551019
4317558527
4317566034
4317571222
4317580011
4317585748
4317592828
4317600030
4317606256
4317614068
4317620477
4317626459
4317635980
4317640802
4317648797
4317656793
4317664483
4317671319
4317678460
4317687188
4317692743
4317701226
4317706659
4317716302
4317721917
4317729364
4317737359
4317745172
4317750665
4317759515
4317767571
4317773736
4317782708
4317790460
4317797418
4317804742
4317811639
4317819390
4317826043
4317833672
4317840569
4317847771
4317855096
4317862237
4317867547
4317876519
4317880852
4317894219
4317901848
4317910638
4317916985
4317923943
4317931267
4317938286
4317946160
4317954888
4317963189
4317970208
4317976006
4317984307
4317992913
4317999077
4318006524
4318015068
4318022454
4318030083
4318036797
4318043083
4318051811
4318060295
4318067620
4318074761
4318081780
4318090569
4318096428
4318104912
4318111504
4318119927
4318126640
4318134758
4318142571
4318150871
4318159416
4318167961
4318181450
4318189934
4318198234
4318206901
4318212883
4318218315
4318227836
4318236931
4318243156
4318251823
4318257927
4318266899
4318273002
4318279777
4318289238
4318297111
4318305107
4318312614
4318317741
4318326042
4318333427
4318340751
4318348136
4318355522
4318363517
4318370902
4318377921
4318385307
4318392570
4318400626
4318407096
4318415031
4318421745
4318429679
4318436454
4318444328
4318451225
4318457328
4318466178
4318472465
4318481376
4318487723
4318496146
4318502433
4318509940
4318518729
4318526175
4318533072
4318541251
4318549369
4318556815
4318562247
4318571524
4318577323
4318585746
4318593253
4318600394
4318608145
4318616080
4318622428
4318630362
4318638419
4318645377
4318652274
4318659049
4318668814
4318677176
4318682913
4318694022
4318700003
4318708487
4318716971
4318724905
4318730826
4318740469
4318746817
4318757254
4318763907
4318773062
4318779471
4318786551
4318792776
4318802115
4318809805
4318818472
4318827261
4318835623
4318842642
4318848929
4318858145
4318872915
4318879629
4318891104
4318903921
4318917349
4318926321
4318935415
4318941213
4318946829
4318955557
4318961904
4318969045
4318976370
4318983389
4318988149
4318996389
4319003164
4319009817
4319016653
4319023611
4319032827
4319038931
4319047231
4319055044
4319061208
4319067068
4319075246
4319084280
4319091421
4319098440
4319105092
4319110464
4319116811
4319123220
4319130422
4319140737
4319147268
4319155385
4319163442
4319170217
4319179738
4319187001
4319194081
4319201955
4319207509
4319211538
4319216054
4319220204
4319225759
4319230214
4319234181
4319237966
4319242299
4319246755
4319250905
4319256948
4319261159
4319265248
4319269338
4319273793
4319279347
4319283925
4319289906
4319294545
4319299001
4319303822
4319308705
4319312611
4319316884
4319322316
4319329762
4319335011
4319339040
4319344594
4319350209
4319355275
4319360402
4319364613
4319369801
4319372853
4319377980
4319383656
4319387746
4319392995
4319398244
4319404408
4319409596
4319413746
4319419789
4319426137
4319432484
4319439625
4319447682
4319452199
4319455433
4319461171
4319466481
4319469899
4319475331
4319479603
4319484547
4319487538
4319493641
4319499928
4319503346
4319508229
4319512867
4319517140
4319520253
4319525196
4319532765
4319537037
4319542652
4319546986
4319551869
4319555836
4319561390
4319565846
4319571339
4319576161
4319580799
4319586231
4319589588
4319595265
4319598560
4319604603
4319609364
4319614246
4319618885
4319624195
4319628346
4319633595
4319637501
4319644337
4319650684
4319655323
4319658985
4319665272
4319668934
4319674854
4319678089
4319685108
4319691212
4319696766
4319700672
4319706898
4319712269
4319716053
4319720997
4319726307
4319729664
4319737049
4319740040
4319746631
4319751575
4319756153
4319760547
4319771961
4319778431
4319782581
4319788684
4319792957
4319799182
4319803455
4319808948
4319815174
4319818897
4319826526
4319831592
4319836109
4319841541
4319846973
4319852405
4319856677
4319862598
4319869312
4319874133
4319879444
4319885730
4319891589
4319896167
4319903003
4319910022
4319915454
4319923877
4319929553
4319936633
4319941516
4319950549
4319955493
4319963367
4319968799
4319973315
4319979053
4319982959
4319988147
4319995044
4319998889
4320003161
4320008410
4320013965
4320018847
4320022326
4320028125
4320035266
4320039294
4320045520
4320049792
4320054980
4320060290
4320064013
4320068835
4320075122
4320081591
4320085192
4320090930
4320096179
4320100817
4320106066
4320111499
4320117297
4320122302
4320126513
4320132373
4320136706
4320142993
4320147875
4320152819
4320158923
4320165392
4320170703
4320175463
4320181628
4320186877
4320191149
4320196703
4320202563
4320211779
4320219714
4320230090
4320235461
4320242602
4320247240
4320251635
4320259203
4320266222
4320270800
4320274218
4320281481
4320287585
4320291979
4320296862
4320303881
4320310351
4320315844
4320320727
4320328417
4320334459
4320341295
4320345446
4320352831
4320359484
4320366015
4320369982
4320376513
4320381395
4320386217
4320390673
4320394640
4320403551
4320409655
4320414354
4320418871
4320426012
4320431566
4320435533
4320441271
4320445482
4320453966
4320459093
4320466051
4320472032
4320478868
4320484056
4320489855
4320495104
4320501451
4320507799
4320512743
4320518968
4320525682
4320532396
4320537584
4320542162
4320547350
4320553392
4320557970
4320563036
4320568285
4320570970
4320576524
4320582628
4320588060
4320593187
4320598314
4320603563
4320608140
4320612535
4320618211
4320623704
4320629686
4320634691
4320639879
4320644944
4320649156
4320653550
4320659288
4320664598
4320670457
4320675035
4320681016
4320685899
4320690232
4320695726
4320700059
4320705247
4320713243
4320718553
4320723008
4320729051
4320735887
4320740159
4320745347
4320751267
4320756944
4320761460
4320767869
4320772325
4320776109
4320783494
4320789048
4320793565
4320798753
4320806016
4320809251
4320815904
4320820786
4320825852
4320830674
4320837449
4320842576
4320847398
4320853989
4320858445
4320863145
4320870042
4320874497
4320878525
4320886033
4320894028
4320898911
4320902268
4320910630
4320915024
4320921921
4320926133
4320931504
4320938096
4320943345
4320948288
4320954087
4320958725
4320964096
4320968369
4320974228
4320980210
4320987290
4320991379
4320997300
4321003342
4321009446
4321013230
4321018723
4321023300
4321033066
4321040024
4321045456
4321052597
4321057297
4321064255
4321069199
4321076584
4321082626
4321086594
4321092758
4321096481
4321102036
4321106918
4321112473
4321117783
4321121445
4321127548
4321132980
4321138046
4321143845
4321147873
4321154709
4321160202
4321166305
4321170944
4321176620
4321180588
4321186874
4321190109
4321197494
4321204513
4321209213
4321214035
4321219589
4321224167
4321229904
4321234176
4321240158
4321244613
4321254867
4321261337
4321268600
4321274398
4321279770
4321284896
4321291305
4321297653
4321303878
4321309066
4321315048
4321320846
4321327072
4321332748
4321339584
4321344650
4321350570
4321355636
4321362045
4321367416
4321373092
4321377792
4321383468
4321388961
4321395065
4321400314
4321406783
4321411849
4321418685
4321423446
4321428695
4321433334
4321440719
4321445724
4321451766
4321456832
4321462813
4321466842
4321472762
4321478316
4321483993
4321490706
4321495711
4321501204
4321506881
4321511214
4321516341
4321523971
4321529891
4321535323
4321541060
4321545089
4321550887
4321555465
4321562606
4321567550
4321574263
4321580733
4321586776
4321592940
4321598677
4321606490
4321612715
4321617659
4321623824
4321629744
4321634810
4321640669
4321645003
4321651595
4321655989
4321660750
4321665633
4321671309
4321676680
4321680708
4321688033
4321693465
4321698958
4321702986
4321709700
4321713667
4321717268
4321724104
4321729842
4321733931
4321740401
4321744734
4321750594
4321754622
4321760176
4321764326
4321771406
4321778120
4321782149
4321788069
4321793623
4321799177
4321804671
4321809797
4321814680
4321821760
4321826765
4321833723
4321839949
4321845442
4321851484
4321858259
4321863813
4321870344
4321876143
4321882246
4321888472
4321895185
4321899031
4321906355
4321911970
4321918379
4321923750
4321930769
4321938520
4321944258
4321949995
4321957075
4321963484
4321970381
4321975507
4321982282
4321987653
4321993025
4321999799
4322005659
4322010603
4322017561
4322022199
4322029157
4322033857
4322038190
4322044782
4322050703
4322055036
4322060834
4322066755
4322070112
4322077436
4322082929
4322087629
4322092390
4322097822
4322104108
4322110212
4322115278
4322121442
4322126508
4322132001
4322137861
4322142560
4322148481
4322154950
4322160505
4322166669
4322171613
4322177900
4322184247
4322189862
4322194684
4322202314
4322211164
4322216718
4322221967
4322226178
4322230634
4322236371
4322241254
4322248029
4322251081
4322256818
4322262006
4322267987
4322273419
4322277509
4322283063
4322288678
4322293744
4322298871
4322305158
4322309186
4322314069
4322320050
4322326825
4322332440
4322336224
4322341779
4322347272
4322352643
4322355633
4322362408
4322368146
4322372540
4322377545
4322383465
4322386822
4322394086
4322397442
4322403790
4322410931
4322417889
4322423382
4322427655
4322432538
4322438458
4322442730
4322449261
4322453961
4322459759
4322466168
4322471356
4322477948
4322480572
4322488995
4322493023
4322499737
4322506451
4322510907
4322516522
4322523968
4322527447
4322534222
4322540081
4322544232
4322549298
4322555706
4322560894
4322566570
4322571209
4322577557
4322583660
4322588360
4322592938
4322600933
4322606182
4322611004
4322617291
4322622173
4322627911
4322631939
4322638287
4322645000
4322651104
4322654522
4322660625
4322665264
4322670574
4322676861
4322681560
4322686077
4322693889
4322698772
4322706157
4322711468
4322716228
4322723125
4322728679
4322735515
4322743511
4322751384
4322756878
4322762371
4322768474
4322773296
4322779399
4322785564
4322790935
4322795574
4322801311
4322806072
4322811260
4322815349
4322820659
4322824932
4322831951
4322837871
4322842266
4322848064
4322852519
4322857646
4322861308
4322867900
4322873515
4322878948
4322884197
4322888713
4322892009
4322898906
4322903850
4322908550
4322915935
4322921428
4322926555
4322932964
4322938396
4322942302
4322946818
4322952678
4322958415
4322965129
4322970866
4322976237
4322981486
4322988078
4322993205
4323000773
4323007182
4323017375
4323020671
4323027873
4323033976
4323039531
4323044413
4323050761
4323057048
4323063029
4323069072
4323075175
4323080058
4323084513
4323088481
4323095500
4323099589
4323106059
4323112284
4323117106
4323123149
4323128520
4323134135
4323138957
4323144023
4323150736
4323154704
4323162455
4323169047
4323176005
4323182597
4323187541
4323193461
4323200724
4323206706
4323212565
4323217692
4323224894
4323230021
4323236552
4323242838
4323248698
4323254496
4323261942
4323267741
4323272501
4323278666
4323284647
4323297281
4323300944
4323309977
4323315043
4323321634
4323327616
4323334513
4323341227
4323347879
4323355692
4323360697
4323365030
4323369730
4323374063
4323379068
4323384378
4323389749
4323394388
4323398172
4323404215
4323408243
4323413797
4323418009
4323423441
4323427896
4323434122
4323438700
4323443521
4323447977
4323453775
4323458475
4323463480
4323469156
4323474222
4323478189
4323483438
4323488748
4323493387
4323499002
4323504068
4323507913
4323513406
4323518777
4323522440
4323528177
4323531229
4323538003
4323542642
4323548746
4323552957
4323559061
4323564187
4323569192
4323574136
4323578653
4323583230
4323590860
4323596170
4323601114
4323605752
4323612344
4323618203
4323623208
4323627420
4323634439
4323640420
4323644326
4323650430
4323653787
4323659829
4323664651
4323670388
4323677468
4323682717
4323689553
4323694802
4323701211
4323706399
4323709756
4323716836
4323721414
4323728066
4323733193
4323739053
4323744119
4323749551
4323755105
4323759438
4323765603
4323770974
4323776589
4323782815
4323788125
4323793008
4323798074
4323804787
4323809914
4323816628
4323822732
4323829690
4323837136
4323843240
4323848672
4323856789
4323864052
4323870827
4323877541
4323882363
4323888161
4323893654
4323898232
4323904702
4323907692
4323913918
4323917458
4323923440
4323928200
4323934060
4323939614
4323943581
4323948769
4323954384
4323958413
4323963967
4323969277
4323973610
4323979225
4323985451
4323989724
4323995949
4324000649
4324004616
4324008339
4324015541
4324020424
4324026100
4324031410
4324035378
4324040993
4324045021
4324050392
4324055580
4324061318
4324065407
4324070778
4324076393
4324080422
4324087013
4324090309
4324096535
4324102821
4324110268
4324113930
4324120522
4324125465
4324132729
4324138161
4324144569
4324151161
4324158058
4324163124
4324169350
4324175514
4324179787
4324185890
4324190162
4324194557
4324202003
4324209388
4324214454
4324219154
4324223427
4324230812
4324235023
4324241310
4324245887
4324252906
4324258522
4324264320
4324270240
4324275184
4324280067
4324286171
4324291297
4324297767
4324302650
4324307228
4324314125
4324319862
4324324073
4324329261
4324335182
4324342750
4324347267
4324353126
4324359290
4324364417
4324370216
4324374183
4324380042
4324386817
4324392616
4324396156
4324404273
4324410682
4324415504
4324420386
4324427833
4324432532
4324440894
4324451636
4324455604
4324460486
4324465186
4324470801
4324475013
4324480933
4324486426
4324491736
4324497169
4324501685
4324508033
4324513160
4324519507
4324525367
4324530982
4324535254
4324540442
4324544715
4324548255
4324554358
4324559241
4324564795
4324570838
4324575843
4324580542
4324585364
4324590918
4324595801
4324600257
4324606909
4324611792
4324617468
4324621802
4324626868
4324632239
4324636939
4324642615
4324649329
4324655371
4324659766
4324666052
4324668128
4324676123
4324680029
4324686926
4324692297
4324697913
4324703162
4324707312
4324711279
4324718176
4324722205
4324728857
4324737036
4324742895
4324747778
4324752234
4324758581
4324764441
4324769690
4324775061
4324780920
4324786169
4324791479
4324799963
4324806555
4324813574
4324817907
4324826880
4324834326
4324842016
4324844214
4324853064
4324856726
4324864416
4324870459
4324875280
4324880712
4324886938
4324892309
4324899023
4324904699
4324910375
4324915563
4324923193
4324928137
4324932592
4324940893
4324944616
4324952184
4324957983
4324964758
4324972082
4324979101
4324983923
4324993932
4325002111
4325007482
4325014196
4325019323
4325025426
4325031286
4325035863
4325042394
4325044042
4325051244
4325054601
4325060827
4325065771
4325069738
4325076085
4325081640
4325086950
4325092626
4325098180
4325102269
4325107274
4325112157
4325117589
4325122472
4325127660
4325133764
4325139440
4325143956
4325148229
4325153051
4325157994
4325164159
4325169286
4325175695
4325180455
4325185643
4325189550
4325196019
4325200780
4325206578
4325213292
4325218663
4325224034
4325228673
4325233006
4325238378
4325243260
4325250279
4325255040
4325260594
4325265233
4325270787
4325275060
4325281712
4325286473
4325293614
4325297765
4325302586
4325308446
4325314000
4325318211
4325324437
4325328953
4325335973
4325341893
4325347264
4325352147
4325358189
4325362706
4325367406
4325373570
4325380101
4325386876
4325392064
4325396458
4325403172
4325407689
4325412083
4325419529
4325423985
4325430943
4325435704
4325440831
4325447239
4325451634
4325458104
4325462071
4325467320
4325473118
4325479954
4325484898
4325491978
4325498081
4325504795
4325511265
4325516514
4325522312
4325530064
4325536839
4325544041
4325550572
4325556980
4325561436
4325569798
4325577366
4325583836
4325591648
4325595310
4325601719
4325607700
4325612034
4325616611
4325623142
4325628818
4325634312
4325638889
4325643955
4325649814
4325655491
4325660801
4325665867
4325672520
4325678013
4325684482
4325690708
4325695469
4325701938
4325707432
4325712131
4325719211
4325725986
4325730503
4325737217
4325742283
4325748752
4325753574
4325759677
4325763828
4325769687
4325773471
4325780368
4325786838
4325791477
4325796604
4325801792
4325806797
4325812229
4325817417
4325821994
4325826389
4325830905
4325835605
4325841403
4325845554
4325850803
4325858493
4325864719
4325868930
4325873874
4325879001
4325883212
4325888767
4325893161
4325897983
4325903415
4325908115
4325913608
4325918735
4325924960
4325929660
4325934787
4325939975
4325944369
4325949863
4325954806
4325961093
4325965732
4325972690
4325976901
4325983859
4325987765
4325994845
4326000155
4326005954
4326010714
4326014254
4326022433
4326028231
4326032443
4326039401
4326045199
4326052462
4326057833
4326062106
4326067904
4326075106
4326081210
4326085665
4326091281
4326097079
4326102206
4326108920
4326114596
4326119113
4326126254
4326131259
4326136691
4326141146
4326147372
4326152743
4326156710
4326161532
4326170016
4326173983
4326178866
4326184786
4326189120
4326194979
4326200289
4326207674
4326211520
4326217196
4326223116
4326226839
4326233065
4326239291
4326244845
4326250948
4326258944
4326263277
4326270174
4326273348
4326280184
4326285982
4326291353
4326297152
4326301790
4326308687
4326314180
4326318453
4326325594
4326330843
4326336153
4326340609
4326347139
4326351717
4326356966
4326363497
4326368502
4326372347
4326379732
4326385408
4326391695
4326397066
4326402803
4326409456
4326415865
4326420442
4326426241
4326431551
4326436250
4326443331
4326447664
4326453890
4326458101
4326463350
4326468843
4326474886
4326483431
4326488252
4326494783
4326500642
4326504427
4326510530
4326514558
4326521638
4326528535
4326534456
4326538911
4326544771
4326551424
4326557527
4326567781
4326577485
4326586885
4326593232
4326603120
4326610566
4326615876
4326621797
4326628083
4326634187
4326643037
4326648835
4326655976
4326661958
4326666230
4326673860
4326679719
4326687165
4326690888
4326701997
4326708833
4326716279
4326722077
4326729096
4326734284
4326740327
4326745271
4326751252
4326762238
4326768647
4326773652
4326781586
4326788056
4326795441
4326801423
4326807465
4326813508
4326822541
4326831330
4326836762
4326843598
4326849579
4326855439
4326863373
4326867829
4326874055
4326882538
4326892792
4326899933
4326902802
4326912079
4326920075
4326925751
4326932343
4326938446
4326944184
4326953644
4326961762
4326964753
4326973236
4326980316
4326987397
4326993195
4327000580
4327006806
4327014801
4327024201
4327030060
4327038788
4327044769
4327050812
4327056671
4327062286
4327069000
4327077179
4327086029
4327091095
4327098785
4327105865
4327114532
4327122284
4327129303
4327137787
4327143280
4327153412
4327159881
4327169037
4327173858
4327181549
4327187652
4327190338
4327201935
4327209686
4327218780
4327224090
4327231170
4327237274
4327243011
4327251983
4327256622
4327263763
4327270721
4327278961
4327288177
4327291778
4327300140
4327307098
4327314605
4327323333
4327326873
4327337921
4327343353
4327352203
4327360992
4327368072
4327375640
4327382476
4327391265
4327399383
4327406280
4327411407
4327418548
4327424712
4327431182
4327436614
4327440276
4327445891
4327450469
4327455352
4327461883
4327467803
4327472198
4327477508
4327481719
4327486175
4327490996
4327494597
4327499968
4327505584
4327511077
4327516387
4327520781
4327525969
4327529692
4327534819
4327544463
4327548613
4327552825
4327559600
4327563384
4327569426
4327572417
4327579314
4327585112
4327590727
4327594817
4327601287
4327605437
4327610808
4327615691
4327621062
4327627776
4327633330
4327637663
4327644560
4327649138
4327656401
4327658598
4327667082
4327672881
4327679289
4327684721
4327688567
4327693816
4327699370
4327703825
4327707671
4327714751
4327719328
4327726408
4327730681
4327734709
4327740080
4327743071
4327750517
4327755034
4327761564
4327767302
4327772612
4327777434
4327782072
4327786467
4327792143
4327797453
4327804655
4327810209
4327814909
4327819792
4327825956
4327830656
4327837370
4327842741
4327851896
4327857634
4327862516
4327870512
4327877836
4327884001
4327888761
4327894255
4327901518
4327909391
4327917936
4327926603
4327935697
4327943998
4327954130
4327962492
4327972013
4327979276
4327987760
4327997343
4328003202
4328015714
4328024992
4328032621
4328039762
4328046903
4328053373
4328056730
4328069425
4328075528
4328081876
4328090909
4328096525
4328103299
4328110318
4328116239
4328124295
4328131376
4328140165
4328146024
4328153165
4328157560
4328163419
4328170255
4328175748
4328183011
4328191068
4328193692
4328203946
4328208402
4328215848
4328222135
4328227872
4328233304
4328241177
4328251675
4328254483
4328263150
4328269681
4328276639
4328282437
4328289883
4328295560
4328303433
4328312955
4328317898
4328325223
4328330899
4328338711
4328344510
4328349942
4328357083
4328364468
4328372281
4328379239
4328384915
4328390713
4328399014
4328404873
4328409512
4328417813
4328421658
4328433194
4328439175
4328446194
4328452359
4328456875
4328464871
4328471218
4328477139
4328483425
4328489651
4328498196
4328503750
4328511135
4328515652
4328523342
4328528713
4328534023
4328540981
4328550747
4328559109
4328565884
4328571926
4328578640
4328585781
4328591396
4328597073
4328604397
4328611050
4328617702
4328623623
4328629970
4328635403
4328642483
4328648098
4328652492
4328660793
4328669216
4328676357
4328682705
4328689174
4328694545
4328699794
4328706264
4328716274
4328722377
4328729580
4328740566
4328748073
4328754726
4328760829
4328765590
4328774440
4328781459
4328788112
4328795192
4328802822
4328808681
4328812770
4328817226
4328823573
4328828945
4328833217
4328838344
4328843227
4328848781
4328853664
4328858974
4328864040
4328868129
4328873744
4328877773
4328883754
4328889186
4328892909
4328898280
4328902492
4328908229
4328912807
4328918422
4328923854
4328929713
4328934718
4328939845
4328943690
4328949550
4328953700
4328958339
4328963771
4328970241
4328974574
4328978236
4328984523
4328988246
4328994044
4328997035
4329003383
4329012355
4329016505
4329021632
4329027369
4329030848
4329039943
4329044703
4329052333
4329058314
4329064662
4329069422
4329074610
4329079005
4329084193
4329088038
4329094325
4329100855
4329106959
4329112696
4329117030
4329120265
4329127528
4329130824
4329137537
4329140955
4329148524
4329152247
4329159632
4329163416
4329171839
4329175440
4329183314
4329187342
4329194178
4329198389
4329205347
4329209742
4329217493
4329221644
4329228907
4329237391
4329243799
4329250208
4329257105
4329261744
4329266932
4329270838
4329276636
4329280542
4329286768
4329291773
4329300257
4329305323
4329311792
4329316187
4329320276
4329326990
4329335901
4329340601
4329348291
4329352564
4329359095
4329364099
4329368555
4329372522
4329378443
4329384973
4329389612
4329393701
4329400293
4329405603
4329410364
4329415918
4329420801
4329426477
4329431909
4329436975
4329441797
4329446191
4329451379
4329456262
4329461572
4329466760
4329472925
4329477563
4329482935
4329486841
4329492029
4329495935
4329502283
4329508691
4329513391
4329519189
4329523889
4329527673
4329532983
4329538354
4329543664
4329550928
4329556848
4329561181
4329566491
4329570947
4329575342
4329581201
4329586328
4329591516
4329596216
4329602197
4329606714
4329612085
4329617761
4329622583
4329628137
4329635644
4329640466
4329645410
4329651757
4329656335
4329660180
4329665551
4329670861
4329676293
4329682519
4329688439
4329693322
4329699121
4329702844
4329708459
4329712609
4329719445
4329725060
4329730004
4329734338
4329740441
4329745446
4329750512
4329755151
4329759911
4329767358
4329773461
4329780297
4329786584
4329792016
4329796227
4329804467
4329810021
4329821984
4329829247
4329836388
4329841698
4329846886
4329856347
4329860802
4329870690
4329878624
4329886864
4329898705
4329906273
4329913720
4329919030
4329928124
4329935814
4329944054
4329951012
4329958397
4329969384
4329974388
4329983361
4329991417
4329998192
4330004662
4330013146
4330019188
4330028526
4330035851
4330044334
4330050377
4330056175
4330063255
4330070213
4330076866
4330083092
4330091637
4330099327
4330108116
4330114464
4330119408
4330127037
4330133385
4330140587
4330148277
4330153892
4330162437
4330170311
4330178184
4330184471
4330190574
4330198204
4330203025
4330209556
4330215294
4330223228
4330231590
4330234397
4330245445
4330250206
4330256980
4330262718
4330268150
4330276451
4330288658
4330295005
4330299705
4330308799
4330315330
4330321800
4330327598
4330334068
4330340049
4330349265
4330355308
4330362937
4330370689
4330375632
4330385398
4330392234
4330399558
4330406577
4330415427
4330422996
4330431663
4330437705
4330442466
4330449485
4330457480
4330460166
4330470786
4330476035
4330485984
4330491477
4330499778
4330505332
4330508323
4330521018
4330526755
4330532981
4330540732
4330549338
4330556113
4330559470
4330570456
4330575400
4330581748
4330587912
4330593894
4330602194
4330608054
4330617880
4330626303
4330633811
4330640891
4330648947
4330656638
4330664023
4330673544
4330679709
4330687949
4330696921
4330707053
4330711874
4330719809
4330729452
4330735922
4330745321
4330755148
4330767660
4330776693
4330788168
4330794821
4330803427
4330811728
4330818747
4330825094
4330830893
4330837728
4330841757
4330850607
4330858053
4330865011
4330869894
4330875570
4330881918
4330887350
4330891439
4330896810
4330901815
4330908163
4330911886
4330917928
4330922140
4330928304
4330932028
4330939413
4330942953
4330951925
4330956747
4330965475
4330967916
4330978353
4330983236
4330989278
4330995199
4331000997
4331006490
4331010946
4331015584
4331023824
4331027914
4331035177
4331039571
4331044759
4331050130
4331056051
4331059713
4331066732
4331071981
4331078206
4331083455
4331089925
4331094320
4331099630
4331105794
4331113424
4331118123
4331122213
4331130452
4331135823
4331141622
4331145772
4331150777
4331156819
4331163838
4331167256
4331174642
4331177999
4331184957
4331189778
4331195516
4331201131
4331208211
4331213704
4331218526
4331225179
4331230306
4331234578
4331239522
4331245320
4331253072
4331257649
4331263448
4331269917
4331274861
4331280171
4331284322
4331289510
4331295064
4331302815
4331307942
4331314046
4331320027
4331325459
4331334859
4331342183
4331349690
4331359089
4331364705
4331372090
4331378560
4331382527
4331389302
4331396382
4331402607
4331408406
4331414509
4331418293
4331423848
4331428669
4331434712
4331441243
4331448384
4331454426
4331459614
4331464314
4331470356
4331475117
4331480793
4331485859
4331492146
4331497151
4331501789
4331507588
4331512226
4331516377
4331521992
4331527058
4331534260
4331538410
4331544209
4331548725
4331554646
4331560383
4331564350
4331571247
4331575703
4331583637
4331588154
4331593769
4331597980
4331603657
4331609028
4331614033
4331619953
4331627765
4331636005
4331645283
4331653888
4331660602
4331668720
4331677021
4331685383
4331694599
4331699970
4331711506
4331720111
4331726703
4331745136
4331752155
4331757465
4331763507
4331768207
4331773395
4331778644
4331787189
4331792011
4331797687
4331803058
4331807208
4331812702
4331817890
4331823810
4331829547
4331834674
4331838886
4331843768
4331849750
4331854511
4331860309
4331865924
4331871844
4331879535
4331889117
4331894305
4331904620
4331911883
4331920062
4331928058
4331937823
4331947040
4331955768
4331962054
4331967486
4331970904
4331977740
4331983661
4331992083
4331998126
4332003009
4332009112
4332013873
4332019305
4332022906
4332029925
4332034381
4332039447
4332043048
4332049700
4332053729
4332058917
4332063433
4332069903
4332074359
4332080767
4332085162
4332090838
4332095477
4332099871
4332105792
4332112200
4332117205
4332122271
4332126666
4332132281
4332136431
4332142352
4332146197
4332152300
4332158343
4332163287
4332167376
4332172259
4332177691
4332182940
4332188311
4332194475
4332198687
4332204729
4332209246
4332215044
4332218950
4332226092
4332230669
4332236162
4332242571
4332246538
4332252947
4332257036
4332263567
4332269121
4332274614
4332281694
4332287249
4332293108
4332298418
4332301958
4332309160
4332314165
4332319475
4332324663
4332331072
4332336199
4332341692
4332346208
4332351946
4332357683
4332363054
4332367632
4332375078
4332381120
4332387041
4332392778
4332396745
4332402117
4332407610
4332412492
4332417436
4332424150
4332429887
4332435564
4332439226
4332445573
4332450029
4332455827
4332462297
4332467790
4332472368
4332479448
4332484209
4332489946
4332495805
4332497697
4332508989
4332514482
4332522844
4332529680
4332535722
4332541582
4332548173
4332554582
4332562333
4332567949
4332572221
4332578141
4332582658
4332586747
4332592057
4332597001
4332603593
4332608659
4332613237
4332617814
4332622575
4332627580
4332632829
4332638383
4332644609
4332649797
4332658647
4332663652
4332674699
4332679887
4332685441
4332692277
4332697770
4332701676
4332707780
4332711381
4332717545
4332720597
4332727677
4332731156
4332738480
4332744828
4332748917
4332753983
4332758866
4332763749
4332769669
4332773209
4332781815
4332785905
4332791642
4332796525
4332805009
4332810746
4332814896
4332820206
4332826371
4332830643
4332836930
4332842728
4332847794
4332851334
4332858231
4332861954
4332869462
4332874894
4332878739
4332883866
4332888871
4332893937
4332900345
4332907730
4332913224
4332919144
4332923294
4332926468
4332933914
4332941605
4332946305
4332952347
4332957596
4332963150
4332969132
4332972794
4332980240
4332983719
4332990799
4332997574
4333002640
4333007889
4333013809
4333019302
4333025223
4333028824
4333041397
4333051590
4333058182
4333067947
4333078995
4333089676
4333119034
4333139114
4333157852
4333178787
4333192764
4333204605
4333216812
4333229934
4333244216
4333256973
4333268997
4333281753
4333293777
4333305312
4333316726
4333326919
4333342056
4333356155
4333372390
4333390334
4333408340
4333422988
4333436538
4333448195
4333459304
4333468276
4333477797
4333489089
4333500502
4333513015
4333521926
4333532424
4333541335
4333552138
4333563185
4333571791
4333578688
4333592360
4333600234
4333615798
4333625136
4333633192
4333645094
4333653700
4333663832
4333675856
4333682143
4333689772
4333698866
4333708754
4333716200
4333725050
4333736159
4333744581
4333754896
4333765883
4333778822
4333789564
4333805189
4333816236
4333826734
4333841017
4333851576
4333863844
4333875257
4333884779
4333897596
4333911817
4333923536
4333936231
4333949293
4333961988
4333975965
4333987806
4333997816
4334010267
4334022718
4334034864
4334046583
4334058362
4334076062
4334089795
4334103406
4334113782
4334127332
4334139661
4334152783
4334165845
4334177075
4334187940
4334201489
4334211133
4334221265
4334233228
4334244336
4334254590
4334266370
4334277295
4334289502
4334299267
4334310254
4334322766
4334334363
4334341015
4334349377
4334357129
4334363781
4334371899
4334380017
4334388440
4334394909
4334402844
4334410961
4334418774
4334426159
4334433056
4334439343
4334447827
4334455578
4334462048
4334471325
4334478161
4334484814
4334491833
4334499462
4334509167
4334515637
4334525280
4334533642
4334541576
4334548717
4334557629
4334561596
4334571545
4334581249
4334589123
4334598217
4334606457
4334614147
4334622387
4334628063
4334637707
4334644115
4334653454
4334657604
4334662609
4334666576
4334672435
4334677440
4334682933
4334685924
4334692821
4334695812
4334702831
4334707470
4334711925
4334719127
4334722850
4334727550
4334732250
4334737133
4334740489
4334746227
4334750621
4334755321
4334764049
4334772472
4334781810
4334792247
4334797557
4334803478
4334809459
4334817394
4334824352
4334828685
4334833324
4334840953
4334845470
4334848582
4334854198
4334859080
4334863353
4334867381
4334871654
4334878917
4334882579
4334886729
4334890086
4334894603
4334899364
4334903697
4334908580
4334913463
4334917491
4334921702
4334926280
4334931346
4334936351
4334940013
4334945628
4334950206
4334958384
4334962352
4334966746
4334971263
4334974498
4334981334
4334984935
4334990916
4334995127
4334999278
4335002269
4335011241
4335017527
4335026560
4335032054
4335041819
4335051036
4335059153
4335066722
4335077159
4335083445
4335088450
4335094248
4335102488
4335106883
4335113474
4335129832
4335140696
4335149363
4335158091
4335169993
4335177744
4335183359
4335188608
4335194956
4335199717
4335204966
4335209910
4335214976
4335218943
4335224253
4335229990
4335236277
4335242441
4335246409
4335256052
4335265085
4335278330
4335284067
4335291086
4335297983
4335304514
4335309275
4335314341
4335319406
4335324839
4335329599
4335335092
4335343271
4335349130
4335354563
4335361887
4335368723
4335373422
4335378488
4335383615
4335388315
4335391916
4335397714
4335402841
4335407419
4335411997
4335416330
4335420786
4335425485
4335429330
4335434152
4335438669
4335442392
4335448556
4335452524
4335457040
4335462350
4335467355
4335471078
4335475595
4335480356
4335486215
4335489877
4335496591
4335501474
4335506906
4335510995
4335516549
4335521982
4335528512
4335533761
4335537546
4335542917
4335548227
4335552194
4335557199
4335562814
4335569406
4335574777
4335579843
4335584298
4335588693
4335594369
4335598703
4335604379
4335609262
4335614511
4335618905
4335625253
4335629708
4335634347
4335640451
4335647470
4335651498
4335657357
4335663033
4335668466
4335672555
4335677499
4335682626
4335687570
4335696359
4335703439
4335708627
4335714242
4335719430
4335723580
4335726876
4335732308
4335737679
4335745370
4335750130
4335756539
4335761300
4335765450
4335769601
4335777474
4335781319
4335792916
4335796639
4335802193
4335807015
4335813363
4335819954
4335827035
4335836678
4335847481
4335855965
4335860604
4335868538
4335872994
4335881356
4335888619
4335895821
4335901741
4335906380
4335912300
4335919991
4335924263
4335928108
4335933663
4335937447
4335942818
4335947090
4335951790
4335956978
4335960701
4335965035
4335970528
4335974861
4335980232
4335983101
4335989205
4335996040
4336000679
4336003731
4336009773
4336013863
4336024178
4336027412
4336033272
4336036629
4336044014
4336047371
4336055550
4336061409
4336067024
4336072578
4336077827
4336082405
4336087105
4336099434
4336104927
4336115486
4336124580
4336131904
4336140144
4336143989
4336150703
4336154548
4336162422
4336170295
4336175850
4336183235
4336187141
4336195259
4336205879
4336213691
4336221870
4336230842
4336240730
4336252326
4336259651
4336266731
4336273078
4336282844
4336288459
4336298347
4336307075
4336314216
4336320625
4336327583
4336334968
4336338508
4336348395
4336356330
4336363166
4336371223
4336377021
4336387580
4336396674
4336404792
4336416938
4336424811
4336434455
4336443488
4336451545
4336460273
4336468818
4336480536
4336490424
4336498053
4336508612
4336516913
4336527533
4336534491
4336542060
4336552008
4336560126
4336566962
4336575934
4336584113
4336591742
4336599249
4336606390
4336614203
4336623602
4336633002
4336639166
4336645514
4336655768
4336664374
4336671149
4336683172
4336697149
4336702093
4336708746
4336712774
4336717718
4336722235
4336733282
4336740790
4336745672
4336753729
4336759405
4336769903
4336776495
4336783697
4336792120
4336799505
4336809637
4336827581
4336837774
4336848821
4336856085
4336861334
4336867681
4336874151
4336880560
4336884466
4336889898
4336893926
4336900396
4336906377
4336912359
4336916448
4336922124
4336927923
4336932806
4336937566
4336943059
4336948736
4336952886
4336957708
4336963140
4336967779
4336973821
4336978643
4336983404
4336988409
4336994024
4336997381
4337003911
4337007573
4337014104
4337018682
4337024175
4337028814
4337033635
4337039434
4337043340
4337048589
4337055913
4337060552
4337067693
4337072759
4337080754
4337084539
4337091863
4337100469
4337107427
4337115544
4337122136
4337126714
4337131841
4337137151
4337142644
4337148442
4337156987
4337170354
4337181950
4337191228
4337196477
4337203374
4337207341
4337212651
4337218816
4337224309
4337229436
4337233769
4337241032
4337247319
4337253484
4337259160
4337267033
4337274724
4337281743
4337289250
4337297795
4337305058
4337308720
4337317082
4337323247
4337328496
4337335637
4337340458
4337347355
4337352421
4337358159
4337363713
4337369450
4337377201
4337383549
4337390629
4337398014
4337403385
4337411015
4337418888
4337427006
4337435002
4337441227
4337449101
4337457096
4337465397
4337472172
4337481999
4337490910
4337497379
4337506413
4337511906
4337518681
4337524601
4337531559
4337537174
4337543644
4337547916
4337556522
4337564152
4337573673
4337591495
4337604679
4337613895
4337620243
4337629459
4337636234
4337641117
4337647831
4337654361
4337659427
4337664615
4337675479
4337684085
4337691471
4337695682
4337704227
4337708133
4337718326
4337725894
4337733585
4337738834
4337746524
4337751163
4337760440
4337768863
4337776004
4337783756
4337789981
4337797488
4337803836
4337810916
4337817142
4337822452
4337831790
4337836612
4337844607
4337850406
4337857730
4337863956
4337872500
4337878360
4337885867
4337893313
4337897159
4337903201
4337908328
4337915957
4337923587
4337930911
4337937137
4337942630
4337948245
4337955630
4337962100
4337969363
4337975772
4337982241
4337990786
4337999392
4338019168
4338031924
4338040591
4338050418
4338057009
4338064761
4338072817
4338078799
4338088198
4338093874
4338100222
4338106631
4338113100
4338121279
4338127016
4338135256
4338143923
4338150210
4338157839
4338164492
4338173220
4338178408
4338186037
4338192568
4338198855
4338206728
4338213564
4338220339
4338227480
4338234560
4338244265
4338252504
4338259645
4338263979
4338273256
4338281069
4338288271
4338297365
4338303224
4338312258
4338318605
4338326540
4338332887
4338340822
4338347719
4338357485
4338365053
4338373110
4338381288
4338389589
4338398073
4338404237
4338413698
4338419984
4338429567
4338438722
4338452882
4338470705
4338483156
4338493898
4338503663
4338523012
4338535096
4338552491
4338573121
4338587953
4338597108
4338603822
4338612489
4338619020
4338627625
4338635865
4338643617
4338652894
4338657472
4338667603
4338676392
4338682008
4338691102
4338697816
4338708070
4338712708
4338722535
4338731019
4338736695
4338746217
4338756592
4338764100
4338773194
4338779359
4338787598
4338791688
4338797608
4338800843
4338810853
4338817688
4338823914
4338828858
4338834534
4338842164
4338848938
4338859314
4338867066
4338875733
4338884095
4338891175
4338900696
4338906128
4338917847
4338926575
4338935059
4338942200
4338949097
4338958923
4338969055
4338976929
4338986267
4338992188
4338999817
4339007202
4339018005
4339023926
4339033020
4339040283
4339050232
4339063415
4339072754
4339085388
4339093750
4339101684
4339107544
4339115661
4339122436
4339129577
4339137451
4339147705
4339153564
4339162597
4339167419
4339174072
4339181030
4339188171
4339196655
4339204162
4339212585
4339220397
4339228088
4339235595
4339243530
4339250366
4339256713
4339264587
4339272033
4339279174
4339286376
4339292358
4339303100
4339309325
4339317382
4339324462
4339331237
4339338073
4339346191
4339354308
4339361266
4339368285
4339376647
4339382445
4339390563
4339396789
4339405822
4339414550
4339422423
4339429747
4339435973
4339443541
4339451598
4339458983
4339466246
4339476134
4339483336
4339490660
4339498900
4339507445
4339515868
4339523986
4339531127
4339540160
4339545653
4339554503
4339564269
4339570250
4339579405
4339587035
4339594359
4339601073
4339611021
4339616820
4339626219
4339633482
4339641539
4339649290
4339656492
4339666502
4339671934
4339682127
4339691221
4339697691
4339703062
4339706907
4339712706
4339720152
4339728941
4339735716
4339741941
4339748472
4339752806
4339761045
4339766783
4339774412
4339780821
4339786619
4339793638
4339802366
4339809568
4339817625
4339822691
4339828977
4339836851
4339846128
4339853575
4339861631
4339868162
4339875059
4339882322
4339889341
4339897276
4339903257
4339911375
4339917356
4339926206
4339934690
4339942258
4339948789
4339956541
4339964292
4339970579
4339977476
4339985593
4339993711
4340000547
4340007444
4340013974
4340021726
4340029783
4340036496
4340042051
4340050718
4340058896
4340066770
4340073850
4340080503
4340088437
4340096494
4340104001
4340111447
4340117551
4340130490
4340149228
4340159421
4340175717
4340189877
4340202267
4340214230
4340225034
4340236325
4340248227
4340258603
4340271664
4340285885
4340299923
4340313107
4340327023
4340340939
4340356747
4340370480
4340383786
4340399166
4340412045
4340425106
4340435604
4340450680
4340464535
4340479855
4340493099
4340507320
4340529171
4340545772
4340560970
4340576168
4340589962
4340605465
4340619320
4340634090
4340646785
4340658992
4340672115
4340682430
4340695003
4340707149
4340717952
4340730464
4340740718
4340751521
4340761714
4340772762
4340782222
4340795711
4340806270
4340816951
4340829402
4340841182
4340851314
4340861201
4340873164
4340885432
4340896663
4340907161
4340918635
4340929499
4340939265
4340951167
4340961848
4340972773
4340983088
4340993708
4341004878
4341016047
4341026606
4341036677
4341047907
4341057429
4341068720
4341081049
4341092280
4341104670
4341115046
4341130793
4341144282
4341158564
4341170527
4341184138
4341198603
4341213617
4341226618
4341240900
4341258783
4341270563
4341286493
4341300775
4341315058
4341329340
4341344293
4341358576
4341372064
4341385370
4341398676
4341412347
4341424737
4341438714
4341451898
4341465631
4341481378
4341495477
4341513849
4341533197
4341547479
4341568597
4341588922
4341610711
4341630609
4341648492
4341664605
4341680352
4341695794
4341709344
4341734124
4341764275
4341784661
4341800713
4341811944
4341827813
4341839287
4341850090
4341862542
4341871819
4341878655
4341886894
4341893669
4341900627
4341912529
4341923271
4341932915
4341939995
4341949150
4341955620
4341962578
4341970757
4341980827
4341989983
4342000420
4342010063
4342019524
4342031608
4342043449
4342056938
4342068718
4342080620
4342091362
4342103935
4342115532
4342130058
4342142997
4342157096
4342167594
4342176750
4342186027
4342198661
4342215080
4342226127
4342238029
4342248588
4342258292
4342268363
4342281059
4342291190
4342301505
4342310599
4342318595
4342331229
4342341483
4342351005
4342360526
4342372062
4342382926
4342391837
4342402579
4342413810
4342425040
4342434256
4342445182
4342455558
4342464835
4342472403
4342485770
4342497367
4342508719
4342518973
4342528067
4342543631
4342554068
4342561697
4342576834
4342589774
4342597830
4342609183
4342618399
4342626639
4342635855
4342647574
4342660086
4342676443
4342688894
4342709707
4342721731
4342730886
4342742056
4342751699
4342763784
4342774160
4342785452
4342801687
4342812429
4342821218
4342830618
4342844900
4342857778
4342871633
4342884451
4342896658
4342909231
4342922597
4342933218
4342946645
4342956167
4342966787
4342978078
4342989126
4343000722
4343012258
4343022817
4343033925
4343044301
4343054250
4343066274
4343078298
4343088735
4343099050
4343110280
4343121022
4343130788
4343142323
4343152760
4343163625
4343173756
4343184132
4343194447
4343205006
4343215199
4343225819
4343236500
4343248341
4343258107
4343267506
4343278798
4343288563
4343298695
4343308644
4343319996
4343329396
4343336415
4343347767
4343356190
4343369129
4343378895
4343388966
4343398731
4343409596
4343419605
4343429127
4343440846
4343450367
4343461170
4343472279
4343483936
4343492603
4343503773
4343511768
4343522571
4343530994
4343543568
4343553882
4343564258
4343574695
4343584705
4343591846
4343604786
4343616504
4343627735
4343638965
4343652759
4343693164
4343706043
4343720081
4343730396
4343743884
4343757312
4343772388
4343784473
4343798267
4343812610
4343826526
4343841662
4343853137
4343863330
4343874499
4343896228
4343911914
4343926013
4343938098
4343947863
4343957385
4343969775
4343984606
4343995104
4344007800
4344020373
4344033801
4344047717
4344060473
4344075610
4344085375
4344096850
4344107836
4344118822
4344130358
4344142199
4344151842
4344163256
4344175585
4344186022
4344197191
4344208422
4344220140
4344230761
4344243090
4344252611
4344266893
4344280870
4344289659
4344304064
4344318102
4344326219
4344338609
4344350328
4344362047
4344372423
4344383775
4344403429
4344415452
4344425340
4344436571
4344447923
4344459093
4344473008
4344491624
4344505784
4344521226
4344536485
4344551988
4344564805
4344578538
4344591233
4344606370
4344618760
4344636338
4344652512
4344667588
4344681870
4344695054
4344705918
4344716355
4344729539
4344741440
4344758225
4344774155
4344790329
4344802781
4344818283
4344831894
4344846238
4344861618
4344874558
4344884201
4344895127
4344905869
4344916123
4344927963
4344940292
4344953171
4344964096
4344976669
4344986130
4344998459
4345010727
4345025131
4345043930
4345057846
4345071762
4345085128
4345098129
4345111740
4345125106
4345139389
4345152999
4345167282
4345182662
4345199325
4345214889
4345228500
4345239791
4345250472
4345260665
4345271224
4345282333
4345293746
4345305038
4345314193
4345324630
4345335677
4345346725
4345358626
4345370406
4345380843
4345390731
4345401839
4345413192
4345423751
4345438460
4345454329
4345467024
4345479842
4345490401
4345502608
4345514388
4345526534
4345541548
4345551802
4345564864
4345577315
4345589766
4345603438
4345616255
4345628035
4345637373
4345649824
4345662886
4345672712
4345683760
4345694075
4345703962
4345715193
4345724714
4345736189
4345746626
4345757368
4345768232
4345780866
4345790815
4345802107
4345811811
4345822614
4345831098
4345843305
4345854475
4345863447
4345874921
4345886457
4345894025
4345907880
4345919721
4345928327
4345936567
4345945783
4345954389
4345962018
4345966657
4345978559
4345987043
4345996198
4346003644
4346013044
4346019757
4346028485
4346038312
4346048444
4346055036
4346061566
4346066266
4346071515
4346076947
4346081708
4346087384
4346092267
4346096967
4346101361
4346107099
4346111615
4346116437
4346121381
4346126141
4346130780
4346134747
4346140485
4346144879
4346149518
4346154157
4346158307
4346163800
4346168561
4346173505
4346177472
4346182721
4346187970
4346193097
4346198102
4346202496
4346207562
4346213177
4346217511
4346224164
4346228314
4346233258
4346237042
4346243146
4346248456
4346254315
4346259564
4346265729
4346274334
4346279461
4346284771
4346291485
4346297284
4346303631
4346307965
4346312786
4346317486
4346321942
4346327069
4346331951
4346336102
4346341107
4346346661
4346351239
4346356610
4346360150
4346365521
4346370159
4346374859
4346378948
4346383770
4346388409
4346392071
4346397381
4346402935
4346406597
4346412213
4346416790
4346421917
4346426434
4346430767
4346437725
4346442852
4346448834
4346453350
4346458294
4346463970
4346468365
4346473980
4346481060
4346485882
4346491192
4346495647
4346500835
4346504986
4346511333
4346515545
4346522014
4346526592
4346531597
4346536968
4346541057
4346546856
4346551250
4346557415
4346564129
4346570476
4346577068
4346580608
4346586773
4346591777
4346597881
4346601055
4346608074
4346611614
4346618267
4346622844
4346628460
4346632427
4346637554
4346644329
4346650310
4346655925
4346660198
4346666545
4346670391
4346675517
4346679363
4346686138
4346691570
4346697002
4346701518
4346706951
4346712261
4346717265
4346722881
4346730022
4346735515
4346742046
4346747112
4346754375
4346762920
4346770915
4346778361
4346784587
4346790263
4346794963
4346801066
4346807048
4346813396
4346820415
4346826213
4346830852
4346835307
4346840129
4346846049
4346849772
4346856364
4346860576
4346867534
4346873759
4346877849
4346883036
4346887797
4346890544
4346896586
4346901591
4346906962
4346911174
4346916484
4346921611
4346926310
4346930949
4346935221
4346939433
4346945780
4346950907
4346956706
4346959757
4346966166
4346970683
4346974650
4346978861
4346985087
4346990214
4346993876
4346998393
4347003642
4347009196
4347012980
4347018656
4347025614
4347032023
4347037089
4347041544
4347047404
4347051371
4347057108
4347062479
4347067484
4347073099
4347079203
4347083414
4347087138
4347093180
4347096171
4347103190
4347106425
4347113749
4347119608
4347125284
4347128458
4347135294
4347138285
4347144938
4347148111
4347154520
4347159464
4347165934
4347170817
4347176371
4347180887
4347185953
4347189798
4347197184
4347202311
4347208475
4347213358
4347218058
4347222086
4347226786
4347232218
4347237406
4347243082
4347248453
4347254068
4347258341
4347264627
4347270426
4347275553
4347280435
4347285990
4347291971
4347301737
4347308023
4347313455
4347318765
4347324991
4347329874
4347340006
4347345804
4347353006
4347358072
4347363931
4347367044
4347372781
4347376810
4347383890
4347389078
4347394998
4347399576
4347405008
4347408914
4347414468
4347419534
4347424722
4347430398
4347436929
4347441141
4347445108
4347450662
4347453653
4347460794
4347464029
4347471536
4347475442
4347483377
4347486734
4347492837
4347497720
4347501931
4347506143
4347512918
4347518533
4347523843
4347528787
4347533792
4347538369
4347543130
4347548806
4347554666
4347559365
4347564614
4347570901
4347576028
4347579934
4347584390
4347589761
4347593789
4347601541
4347607644
4347613259
4347618081
4347623330
4347627114
4347631936
4347638162
4347644570
4347650430
4347654946
4347660317
4347664712
4347669228
4347674416
4347678750
4347685158
4347689980
4347695901
4347700600
4347706032
4347710427
4347715310
4347721596
4347728371
4347734047
4347740151
4347745034
4347749978
4347757485
4347761696
4347768288
4347776467
4347783608
4347791176
4347799599
4347806008
4347810891
4347819435
4347825661
4347833412
4347839882
4347844643
4347857826
4347863869
4347873268
4347879433
4347885536
4347892555
4347897438
4347908791
4347917458
4347927467
4347935951
4347943825
4347950172
4347956520
4347969032
4347972267
4347983498
4347986671
4347998756
4348006752
4348012428
4348016640
4348025123
4348031715
4348037758
4348043800
4348046303
4348063209
4348075355
4348084022
4348089821
4348097999
4348105812
4348113502
4348119178
4348126930
4348133155
4348140907
4348148719
4348151527
4348160743
4348168678
4348175575
4348179908
4348188392
4348194435
4348197059
4348208717
4348214027
4348222205
4348230140
4348236793
4348243018
4348251441
4348257423
4348262000
4348269324
4348275062
4348287330
4348294959
4348298133
4348309119
4348315101
4348321082
4348327979
4348335303
4348341102
4348343665
4348355140
4348363501
4348370337
4348375403
4348385169
4348393775
4348401221
4348408911
4348416602
4348422766
4348429602
4348440283
4348443091
4348453162
4348460791
4348468482
4348475257
4348478369
4348493323
4348499610
4348507422
4348512427
4348520850
4348527197
4348530066
4348539404
4348546667
4348556372
4348564001
4348571875
4348578955
4348585547
4348591284
4348595801
4348603369
4348609228
4348618933
4348625891
4348633398
4348639502
4348647375
4348653540
4348660376
4348665930
4348672155
4348676855
4348686987
4348692236
4348702795
4348707251
4348715246
4348721594
4348730810
4348737524
4348744482
4348754919
4348763220
4348769079
4348776403
4348780676
4348785986
4348791235
4348797582
4348804052
4348810339
4348815099
4348820654
4348824804
4348830541
4348834631
4348839697
4348846593
4348851965
4348857030
4348863378
4348868627
4348874609
4348880285
4348885168
4348890234
4348896337
4348902013
4348906713
4348911169
4348917272
4348921544
4348927343
4348933507
4348939794
4348946264
4348950780
4348954442
4348960546
4348965917
4348971227
4348977208
4348981908
4348987890
4348994298
4348997838
4349003698
4349008458
4349014318
4349019017
4349025609
4349032140
4349037206
4349043370
4349045262
4349053197
4349057164
4349064244
4349069005
4349076268
4349080052
4349088353
4349092381
4349097325
4349102452
4349107030
4349111791
4349118932
4349124242
4349130162
4349135045
4349140050
4349144200
4349149632
4349153783
4349162266
4349168126
4349173436
4349177464
4349182530
4349187779
4349193333
4349197240
4349203343
4349208592
4349213353
4349218724
4349222386
4349227696
4349232762
4349237950
4349244298
4349254673
4349261448
4349273594
4349283421
4349291905
4349299107
4349305455
4349310643
4349316868
4349324559
4349329991
4349335423
4349342198
4349347935
4349354527
4349358738
4349363804
4349368992
4349374668
4349380406
4349386082
4349393772
4349398899
4349403599
4349408909
4349414402
4349417637
4349425083
4349429844
4349435093
4349441257
4349445835
4349452671
4349456638
4349463108
4349467991
4349474888
4349480808
4349485020
4349489841
4349495518
4349500278
4349505283
4349510654
4349515842
4349520542
4349525669
4349530063
4349534946
4349539829
4349544834
4349549534
4349554966
4349561680
4349566379
4349571689
4349576633
4349581882
4349585971
4349592624
4349597690
4349603122
4349609409
4349614536
4349619052
4349623569
4349628147
4349636386
4349641635
4349647556
4349652805
4349656650
4349659397
4349666843
4349673190
4349679477
4349684116
4349689121
4349694614
4349699558
4349705295
4349709628
4349713962
4349722080
4349726657
4349734042
4349740085
4349745151
4349749057
4349754733
4349758029
4349766574
4349772128
4349778171
4349782931
4349787570
4349793429
4349798373
4349804233
4349811313
4349818820
4349826999
4349833285
4349841220
4349848056
4349855014
4349861117
4349866122
4349875094
4349883700
4349894931
4349908419
4349920077
4349929843
4349940341
4349945773
4349953402
4349957675
4349963412
4349967135
4349973666
4349978488
4349983004
4349987765
4349992404
4349997408
4350002963
4350008028
4350014071
4350019747
4350024752
4350029879
4350034701
4350040804
4350045870
4350053194
4350058627
4350063509
4350068514
4350076144
4350082003
4350085970
4350090914
4350097689
4350102267
4350108065
4350113009
4350117953
4350124666
4350129366
4350133822
4350139681
4350145479
4350149447
4350155367
4350158724
4350167879
4350171663
4350178621
4350184298
4350188875
4350193575
4350200289
4350205294
4350211946
4350216829
4350223177
4350228426
4350233370
4350237703
4350244234
4350248751
4350253328
4350262605
4350267854
4350272188
4350277925
4350283296
4350288912
4350293611
4350298433
4350305818
4350312166
4350317720
4350322542
4350329439
4350334993
4350341707
4350349153
4350356966
4350364046
4350369051
4350374544
4350378938
4350382844
4350392793
4350397981
4350403840
4350412752
4350417207
4350425752
4350431062
4350437288
4350444429
4350450288
4350456025
4350461274
4350466340
4350470735
4350476350
4350480745
4350488069
4350493440
4350498445
4350502717
4350507295
4350512971
4350518037
4350522676
4350530000
4350534883
4350540620
4350545381
4350551606
4350556001
4350561311
4350566194
4350574250
4350579377
4350584565
4350588899
4350596040
4350600373
4350606660
4350611115
4350617280
4350623322
4350627717
4350633637
4350639313
4350643525
4350648347
4350654023
4350658845
4350666718
4350672028
4350677643
4350682587
4350688019
4350692475
4350698456
4350704255
4350709015
4350714814
4350721284
4350725617
4350729767
4350736298
4350742096
4350746430
4350752411
4350759675
4350765839
4350771332
4350776703
4350780976
4350785736
4350791230
4350797638
4350804291
4350809235
4350815033
4350821442
4350828217
4350834381
4350842560
4350849152
4350857086
4350862152
4350869538
4350874603
4350880524
4350886810
4350892609
4350897980
4350901642
4350911896
4350915863
4350923431
4350928558
4350934174
4350939667
4350946320
4350950897
4350957428
4350964020
4350972320
4350980621
4350985870
4350990997
4350997345
4351002899
4351010711
4351016449
4351023712
4351031036
4351037262
4351042328
4351047271
4351053070
4351057464
4351063018
4351068390
4351075348
4351081146
4351086029
4351089691
4351098297
4351102813
4351109039
4351114471
4351120697
4351127410
4351132293
4351139007
4351145233
4351150787
4351157318
4351162811
4351168609
4351173370
4351178558
4351186065
4351192046
4351194305
4351201812
4351205718
4351212249
4351216888
4351222930
4351227691
4351233367
4351237701
4351244414
4351248382
4351254180
4351260406
4351265166
4351268462
4351276885
4351283233
4351287688
4351291595
4351298553
4351303130
4351309417
4351313872
4351320342
4351325835
4351331389
4351337798
4351342254
4351347197
4351351897
4351359649
4351364104
4351370818
4351376983
4351381987
4351388518
4351393462
4351400298
4351408721
4351412749
4351419524
4351425139
4351431609
4351437041
4351442412
4351447234
4351454924
