4172639342
4172643492
4172649230
4172655028
4172660094
4172665648
4172673094
4172678893
4172684874
4172692076
4172699645
4172705687
4172710814
4172717467
4172723753
4172730833
4172734679
4172742430
4172748961
4172754332
4172759886
4172766722
4172773436
4172780028
4172785704
4172793760
4172801390
4172808226
4172814879
4172822325
4172829039
4172837645
4172844969
4172852293
4172859922
4172869200
4172876951
4172884520
4172889891
4172898191
4172904905
4172911863
4172920591
4172926145
4172932188
4172940977
4172946531
4172956602
4172961851
4172969480
4172978391
4172985593
4172992613
4172999815
4173006040
4173012937
4173020811
4173028745
4173036619
4173042112
4173051206
4173059568
4173065549
4173074338
4173079832
4173089597
4173097288
4173103879
4173111814
4173117673
4173127378
4173134702
4173142331
4173150571
4173157651
4173165036
4173172727
4173181028
4173188840
4173194333
4173202878
4173210141
4173219052
4173228025
4173234982
4173248349
4173257688
4173262570
4173273435
4173281979
4173289731
4173300595
4173308286
4173315976
4173322812
4173328793
4173338742
4173345029
4173353451
4173360470
4173367551
4173375058
4173382992
4173392758
4173400754
4173407406
4173416256
4173423275
4173430722
4173438168
4173446896
4173454464
4173462155
4173469906
4173477963
4173485775
4173490109
4173500790
4173510494
4173516903
4173525509
4173534054
4173539364
4173548947
4173555721
4173564999
4173572079
4173579525
4173587032
4173593197
4173602413
4173610043
4173619503
4173627071
4173632564
4173641048
4173648373
4173655453
4173665218
4173671688
4173679378
4173687191
4173695125
4173703426
4173711422
4173718380
4173727718
4173732418
4173743038
4173750118
4173758175
4173767818
4173775142
4173781490
4173790889
4173796688
4173805416
4173813716
4173822689
4173833431
4173842220
4173850948
4173858455
4173868160
4173876338
4173884212
4173896846
4173906062
4173913692
4173920100
4173929927
4173938960
4173946467
4173953181
4173962215
4173970820
4173977290
4173982905
4173991389
4173999507
4174006160
4174016108
4174024470
4174032710
4174038203
4174047847
4174054988
4174060969
4174069270
4174077204
4174083308
4174091853
4174101008
4174106196
4174116572
4174124262
4174130488
4174139094
4174147395
4174154780
4174165827
4174172785
4174181574
4174189814
4174197627
4174206171
4174215327
4174223261
4174231440
4174239619
4174248286
4174255915
4174264277
4174270624
4174281855
4174288813
4174297663
4174305048
4174313288
4174321344
4174329462
4174335749
4174344660
4174349726
4174360834
4174369135
4174377253
4174386225
4174394586
4174403131
4174413080
4174418146
4174427667
4174437433
4174446344
4174453241
4174459467
4174468744
4174476862
4174484430
4174491449
4174499445
4174508173
4174515497
4174524286
4174536005
4174545038
4174552240
4174561456
4174569330
4174577997
4174585565
4174590753
4174595758
4174600702
4174604913
4174608758
4174612848
4174616327
4174621454
4174626336
4174630548
4174634393
4174638726
4174641961
4174646234
4174650506
4174655145
4174659356
4174663629
4174667474
4174671502
4174676141
4174679132
4174684930
4174688653
4174693536
4174696832
4174701776
4174705438
4174712701
4174719171
4174723260
4174728570
4174733026
4174736199
4174740350
4174744256
4174747430
4174754266
4174758843
4174762078
4174765313
4174769769
4174773064
4174778069
4174782342
4174786492
4174790765
4174794854
4174798760
4174803399
4174806817
4174812127
4174815972
4174823296
4174828362
4174833367
4174837578
4174842034
4174847100
4174852288
4174857720
4174861504
4174867852
4174873284
4174877678
4174882256
4174887627
4174892449
4174898064
4174903924
4174908440
4174913323
4174916619
4174922356
4174925591
4174931939
4174937249
4174942376
4174948113
4174952263
4174958001
4174962273
4174970147
4174975151
4174981743
4174987969
4174994316
4175001030
4175005791
4175014519
4175019585
4175027703
4175036308
4175041252
4175046868
4175052727
4175058098
4175062065
4175067741
4175071953
4175078667
4175081718
4175088738
4175092033
4175099297
4175102470
4175109856
4175112968
4175120293
4175126030
4175130302
4175133415
4175140617
4175146965
4175151298
4175156914
4175162285
4175167656
4175171867
4175178337
4175183220
4175187797
4175193535
4175198173
4175203911
4175208366
4175213798
4175218376
4175224907
4175229667
4175234550
4175240654
4175244438
4175250114
4175255485
4175259880
4175268547
4175273246
4175278678
4175284782
4175289970
4175295829
4175300773
4175304923
4175310661
4175318107
4175322013
4175329215
4175332389
4175339469
4175344291
4175349662
4175354545
4175360404
4175366813
4175372062
4175376945
4175383231
4175387626
4175393485
4175398917
4175405692
4175410209
4175416862
4175421806
4175426566
4175431937
4175436881
4175442679
4175448356
4175453788
4175458427
4175463798
4175468741
4175473929
4175478995
4175482779
4175488944
4175494864
4175501456
4175506644
4175510917
4175516532
4175522269
4175527823
4175536490
4175542411
4175549063
4175552726
4175559745
4175564872
4175570914
4175575797
4175582938
4175590567
4175596305
4175600943
4175606192
4175611197
4175616202
4175621329
4175626639
4175632498
4175637747
4175644095
4175650870
4175656546
4175660819
4175667349
4175671500
4175678275
4175684317
4175690543
4175695547
4175701163
4175706229
4175713492
4175718436
4175723502
4175727774
4175734122
4175739371
4175744803
4175750418
4175756705
4175762564
4175768423
4175772696
4175778250
4175783865
4175789602
4175795218
4175800223
4175805960
4175810598
4175816275
4175819632
4175826284
4175831595
4175837515
4175841177
4175847891
4175853079
4175859121
4175863943
4175869375
4175874197
4175879385
4175885733
4175892691
4175897817
4175903494
4175909048
4175914297
4175920095
4175924673
4175928701
4175936575
4175941641
4175947378
4175952322
4175958425
4175964956
4175970754
4175974538
4175983999
4175989858
4175995779
4176000845
4176007375
4176011526
4176018117
4176023366
4176029287
4176035207
4176041067
4176045705
4176051626
4176054922
4176061696
4176065236
4176072194
4176076101
4176085012
4176088857
4176096486
4176102346
4176108938
4176114003
4176119558
4176126943
4176132009
4176136953
4176141042
4176147206
4176151418
4176157155
4176161733
4176167226
4176171620
4176177724
4176180532
4176186635
4176189626
4176197988
4176201467
4176208608
4176214406
4176218312
4176222646
4176227895
4176232289
4176240041
4176245595
4176250844
4176255422
4176260060
4176265797
4176270558
4176276723
4176282948
4176287648
4176293813
4176298695
4176304127
4176308400
4176313954
4176318532
4176323842
4176328664
4176334889
4176339528
4176344899
4176349049
4176355458
4176359730
4176366810
4176371205
4176376576
4176382741
4176388295
4176392567
4176397023
4176404652
4176408192
4176415577
4176419484
4176427784
4176431080
4176437550
4176442189
4176447255
4176453602
4176461476
4176466847
4176473194
4176478566
4176483876
4176488575
4176493763
4176498463
4176505299
4176511585
4176517201
4176523609
4176528492
4176534351
4176539601
4176544178
4176552174
4176557118
4176563038
4176568226
4176572315
4176577503
4176583851
4176589344
4176596363
4176603321
4176608021
4176613697
4176618946
4176623585
4176630115
4176634693
4176643421
4176652454
4176657154
4176664051
4176669483
4176675098
4176679371
4176685901
4176692310
4176698658
4176702015
4176708179
4176713062
4176719043
4176723682
4176729419
4176735218
4176740039
4176744800
4176750232
4176754505
4176760791
4176768055
4176774951
4176779712
4176785633
4176789783
4176796192
4176800098
4176805408
4176810657
4176816699
4176822742
4176826831
4176832752
4176838916
4176843860
4176849963
4176855151
4176862720
4176867542
4176872241
4176878650
4176883350
4176887256
4176893115
4176899402
4176906360
4176911243
4176915515
4176921374
4176925952
4176930896
4176936084
4176941699
4176947314
4176953296
4176958606
4176964831
4176969836
4176975879
4176979724
4176987048
4176991015
4176998156
4177003711
4177009997
4177015429
4177020556
4177026965
4177032031
4177037768
4177042956
4177049182
4177055651
4177061999
4177068286
4177073352
4177080859
4177089038
4177100085
4177105700
4177111987
4177117053
4177127429
4177132678
4177139575
4177145434
4177152270
4177157763
4177164233
4177169787
4177176073
4177181994
4177188952
4177194689
4177199633
4177204455
4177212878
4177221422
4177227160
4177233141
4177241869
4177248278
4177254137
4177260485
4177266466
4177271349
4177277270
4177282580
4177286547
4177294359
4177297594
4177304430
4177309618
4177313952
4177316820
4177323107
4177326036
4177333117
4177338060
4177341722
4177347277
4177352098
4177354845
4177360460
4177365160
4177372240
4177376024
4177382982
4177386400
4177392320
4177396898
4177403429
4177408190
4177415026
4177420091
4177425279
4177431322
4177435411
4177441026
4177445543
4177450792
4177457201
4177461900
4177466844
4177470995
4177477647
4177481737
4177486986
4177492174
4177498338
4177503892
4177509386
4177515245
4177520982
4177525926
4177533555
4177538438
4177546373
4177551500
4177557908
4177563035
4177569749
4177574022
4177577501
4177585191
4177588792
4177596116
4177599901
4177606492
4177611863
4177618089
4177622789
4177627977
4177632371
4177639207
4177644395
4177651658
4177657701
4177663377
4177668626
4177673753
4177678147
4177685594
4177689866
4177696824
4177702256
4177707078
4177711411
4177717210
4177722581
4177730088
4177735581
4177742356
4177747178
4177752671
4177758469
4177764024
4177769334
4177776475
4177783311
4177788743
4177793870
4177799363
4177803757
4177809983
4177815842
4177823106
4177827927
4177833848
4177839341
4177843979
4177848008
4177852707
4177855698
4177863572
4177869492
4177874680
4177879319
4177883347
4177888962
4177894150
4177897446
4177904404
4177910386
4177914658
4177917954
4177925278
4177928574
4177935105
4177938156
4177946030
4177949692
4177955796
4177960800
4177965195
4177969467
4177975388
4177979965
4177989243
4177993149
4177998764
4178004135
4178010605
4178016037
4178020798
4178025314
4178034287
4178040024
4178046188
4178050888
4178056320
4178060776
4178066391
4178070725
4178077805
4178082748
4178088058
4178092331
4178098129
4178102707
4178109360
4178114181
4178121445
4178126755
4178132370
4178136764
4178143356
4178147507
4178152572
4178158310
4178164474
4178170517
4178175583
4178181320
4178186325
4178192367
4178197067
4178202804
4178206466
4178214218
4178219894
4178224838
4178230148
4178235519
4178240768
4178246383
4178250839
4178258529
4178263839
4178269271
4178273544
4178279037
4178284896
4178290206
4178294540
4178302230
4178307907
4178310104
4178318466
4178323715
4178331344
4178335189
4178342330
4178348251
4178355941
4178360214
4178367721
4178371139
4178377975
4178383102
4178389754
4178392806
4178399459
4178405196
4178410506
4178415084
4178419540
4178424300
4178428023
4178434798
4178440230
4178444991
4178450301
4178454696
4178459823
4178462996
4178469466
4178472518
4178481063
4178485457
4178490462
4178493758
4178500838
4178506209
4178511031
4178515914
4178522689
4178527694
4178533370
4178538070
4178543624
4178549910
4178554732
4178559005
4178565291
4178572127
4178577132
4178581343
4178587325
4178593001
4178597334
4178602889
4178608992
4178614974
4178619551
4178625105
4178628401
4178636336
4178639998
4178645979
4178650923
4178658614
4178662520
4178668990
4178674178
4178681075
4178685164
4178691023
4178696577
4178702925
4178708906
4178715193
4178719771
4178727339
4178732283
4178739790
4178744612
4178750593
4178756575
4178761946
4178766401
4178773298
4178777510
4178783735
4178788557
4178793989
4178799971
4178806685
4178812300
4178817244
4178822859
4178826399
4178833174
4178838728
4178845503
4178849226
4178857099
4178861067
4178866987
4178871260
4178877668
4178882002
4178891035
4178896650
4178902509
4178909040
4178914289
4178918745
4178924238
4178929975
4178935713
4178941023
4178946882
4178951582
4178957258
4178960249
4178966413
4178971296
4178976118
4178981306
4178985273
4178990156
4178995527
4178998273
4179004316
4179008832
4179020795
4179025495
4179030622
4179036481
4179040327
4179043317
4179050336
4179056196
4179062055
4179066572
4179072309
4179075666
4179082197
4179087140
4179092695
4179097150
4179103009
4179107526
4179113630
4179118329
4179123517
4179127546
4179133100
4179138654
4179143720
4179147748
4179153607
4179157453
4179163739
4179168988
4179174848
4179180036
4179185590
4179191022
4179201032
4179206891
4179213056
4179218305
4179225202
4179230634
4179236798
4179241498
4179247357
4179251630
4179259015
4179263287
4179268658
4179274213
4179280865
4179286786
4179291241
4179296857
4179301129
4179307049
4179310467
4179317120
4179322308
4179330731
4179336041
4179342328
4179347516
4179353619
4179358258
4179364056
4179368451
4179374676
4179379254
4179386334
4179390912
4179396832
4179402325
4179406475
4179412152
4179415692
4179424603
4179428387
4179436505
4179440411
4179448590
4179453900
4179459759
4179465130
4179471722
4179476971
4179484417
4179490399
4179494915
4179497784
4179505230
4179508465
4179514691
4179519940
4179525066
4179528912
4179534893
4179537945
4179544720
4179547894
4179555523
4179559124
4179566570
4179569805
4179576092
4179580547
4179586407
4179590862
4179599285
4179602886
4179609722
4179613018
4179619671
4179624065
4179629070
4179633282
4179640606
4179645550
4179651836
4179656475
4179661907
4179666179
4179671917
4179676433
4179683086
4179687969
4179694683
4179699321
4179705181
4179710979
4179716472
4179720928
4179727031
4179732830
4179738140
4179743816
4179747783
4179753520
4179758708
4179764934
4179768413
4179779766
4179785381
4179791606
4179796489
4179802593
4179807536
4179813152
4179817851
4179825176
4179830180
4179836833
4179841533
4179847698
4179851909
4179858196
4179863811
4179869731
4179874553
4179881023
4179885417
4179891826
4179898479
4179905620
4179910625
4179918010
4179925212
4179927653
4179935771
4179941325
4179945415
4179951335
4179955546
4179960673
4179968364
4179972026
4179979594
4179985087
4179989421
4179994182
4180000773
4180005229
4180015605
4180023783
4180030375
4180034892
4180042399
4180048442
4180053080
4180058757
4180065470
4180073344
4180083293
4180092631
4180097392
4180102580
4180107279
4180111979
4180116923
4180121134
4180126505
4180133036
4180137858
4180145121
4180149821
4180157633
4180162760
4180168436
4180172831
4180178385
4180184122
4180189127
4180194865
4180199930
4180205363
4180210184
4180215555
4180220804
4180224772
4180230082
4180235209
4180238505
4180246866
4180251993
4180255900
4180261332
4180266520
4180269693
4180276774
4180284220
4180290262
4180294046
4180300882
4180304850
4180311625
4180316568
4180322123
4180327005
4180333048
4180339701
4180345011
4180349893
4180355753
4180361429
4180365518
4180371317
4180374979
4180381632
4180388773
4180393350
4180400308
4180405802
4180410135
4180415506
4180421182
4180425577
4180433206
4180437723
4180444376
4180451090
4180457193
4180460672
4180470071
4180475870
4180482034
4180487161
4180493326
4180499307
4180505716
4180508035
4180516702
4180522928
4180528726
4180532693
4180538186
4180542276
4180548074
4180554117
4180560708
4180572244
4180576700
4180584878
4180591409
4180601175
4180609109
4180617471
4180624368
4180631326
4180638406
4180645364
4180651528
4180657693
4180665689
4180672280
4180679849
4180686929
4180693459
4180699685
4180707314
4180713723
4180720681
4180725198
4180729958
4180734719
4180738992
4180743630
4180748208
4180753213
4180758096
4180762124
4180766640
4180770119
4180774819
4180780251
4180784707
4180789162
4180793984
4180798318
4180801675
4180807046
4180811074
4180828713
4180833962
4180837624
4180843606
4180847573
4180855385
4180860940
4180864357
4180869118
4180873757
4180880410
4180883217
4180889748
4180895607
4180900307
4180905617
4180910073
4180915078
4180921242
4180926491
4180931679
4180935768
4180939675
4180944619
4180948891
4180952431
4180958168
4180963661
4180969033
4180973366
4180977455
4180982460
4180986550
4180991677
4180997048
4181002052
4181008156
4181012550
4181017433
4181021584
4181026466
4181031715
4181037026
4181042580
4181047279
4181053139
4181058998
4181063148
4181069130
4181074562
4181083839
4181089027
4181096474
4181099953
4181108131
4181111427
4181118141
4181123207
4181131752
4181137245
4181142250
4181147865
4181152382
4181156837
4181161171
4181167518
4181172889
4181178077
4181182716
4181188331
4181191444
4181197120
4181202552
4181209755
4181214515
4181219093
4181224037
4181227943
4181233985
4181237525
4181240699
4181247047
4181252723
4181258399
4181262489
4181267738
4181273109
4181277137
4181280128
4181288551
4181294776
4181298560
4181301246
4181307411
4181312965
4181317176
4181322852
4181328101
4181333411
4181345741
4181351783
4181355750
4181362525
4181365638
4181375037
4181379798
4181385230
4181390662
4181396888
4181401954
4181405799
4181414161
4181419044
4181423621
4181429297
4181434363
4181440406
4181445838
4181452491
4181455787
4181463172
4181469214
4181474830
4181480079
4181484168
4181491797
4181498450
4181504371
4181509436
4181516272
4181521399
4181526099
4181531165
4181537513
4181544226
4181548987
4181555335
4181559912
4181565711
4181570349
4181576514
4181583655
4181588965
4181594397
4181602088
4181606787
4181614050
4181618689
4181623511
4181630591
4181634497
4181641882
4181645483
4181653845
4181660864
4181666174
4181670813
4181675757
4181682226
4181687598
4181691809
4181696814
4181705420
4181711096
4181716772
4181721594
4181726599
4181732031
4181736242
4181742956
4181747473
4181754065
4181760840
4181766150
4181769384
4181777319
4181779211
4181787573
4181794714
4181799414
4181805090
4181808447
4181814184
4181820227
4181824499
4181831640
4181836218
4181842138
4181847265
4181853124
4181857763
4181863073
4181867773
4181873449
4181876745
4181882360
4181888037
4181894140
4181898107
4181905004
4181908239
4181914892
4181920141
4181924169
4181932165
4181936803
4181942907
4181948888
4181953954
4181958898
4181965063
4181970617
4181976354
4181981176
4181988927
4181995031
4182000341
4182004552
4182010168
4182015966
4182021764
4182027746
4182031957
4182037633
4182043249
4182049047
4182053441
4182056737
4182064916
4182069310
4182075963
4182081456
4182087011
4182090490
4182097448
4182100682
4182109533
4182114049
4182121495
4182127782
4182134313
4182139440
4182144567
4182150792
4182157079
4182162328
4182167943
4182176122
4182180821
4182190038
4182196752
4182201756
4182208226
4182213231
4182219823
4182225194
4182231358
4182238377
4182243382
4182249608
4182255528
4182259862
4182265538
4182270726
4182277318
4182282323
4182286839
4182294163
4182300694
4182305821
4182310521
4182316319
4182322301
4182327305
4182331944
4182339512
4182344151
4182350194
4182354710
4182360325
4182365025
4182370884
4182377293
4182382298
4182387852
4182393711
4182398838
4182408543
4182412632
4182418187
4182423924
4182430394
4182436863
4182441258
4182447056
4182452732
4182457005
4182463291
4182467503
4182470921
4182478977
4182485569
4182489903
4182495945
4182501621
4182507053
4182512669
4182516270
4182524509
4182528050
4182534519
4182539585
4182545445
4182550144
4182555759
4182561802
4182570591
4182574131
4182581394
4182586582
4182592808
4182597629
4182601963
4182607822
4182612827
4182618931
4182625706
4182630039
4182635715
4182641453
4182645786
4182653415
4182657200
4182665622
4182669346
4182677524
4182681553
4182689548
4182693637
4182700534
4182706516
4182713535
4182717258
4182724094
4182728977
4182735385
4182740512
4182745822
4182750644
4182758518
4182764804
4182770603
4182775058
4182780002
4182786106
4182790927
4182796542
4182801853
4182808383
4182814121
4182819125
4182824435
4182830112
4182835056
4182840854
4182847690
4182853732
4182859225
4182864352
4182869113
4182873630
4182879489
4182885348
4182888705
4182898166
4182902255
4182908298
4182913119
4182918979
4182923617
4182929111
4182935275
4182942050
4182947360
4182952060
4182958163
4182963107
4182967440
4182973727
4182977939
4182985629
4182989962
4182997104
4183001498
4183007846
4183012118
4183018222
4183022677
4183028903
4183034762
4183041110
4183045443
4183051425
4183057040
4183061617
4183067355
4183073153
4183079562
4183085299
4183091219
4183095553
4183101168
4183106173
4183111666
4183116549
4183123629
4183129794
4183134676
4183141146
4183146578
4183150179
4183157259
4183160494
4183169466
4183173128
4183180880
4183184725
4183191805
4183194918
4183200777
4183207979
4183213839
4183218905
4183224398
4183228975
4183234530
4183239596
4183245211
4183250826
4183258944
4183264803
4183269320
4183276217
4183282381
4183287752
4183292269
4183299776
4183306002
4183312471
4183316683
4183323641
4183327974
4183333895
4183339510
4183344881
4183351168
4183357332
4183361605
4183367220
4183373323
4183379488
4183383882
4183388582
4183395967
4183399873
4183406954
4183413606
4183417940
4183423250
4183428194
4183433138
4183440828
4183444551
4183450410
4183455415
4183461824
4183466524
4183472749
4183477449
4183487092
4183491060
4183497346
4183502229
4183507173
4183513276
4183518770
4183523530
4183530183
4183536897
4183541902
4183546174
4183552095
4183556489
4183563020
4183568879
4183573335
4183579255
4183585420
4183589631
4183595613
4183600068
4183605561
4183611177
4183614411
4183622590
4183626252
4183632661
4183637849
4183643647
4183649934
4183654328
4183658662
4183665132
4183671845
4183676972
4183681245
4183687776
4183692109
4183698396
4183702668
4183708772
4183714814
4183720734
4183726472
4183730561
4183736115
4183739411
4183746430
4183752595
4183758454
4183762238
4183770051
4183773713
4183780915
4183785859
4183792329
4183797211
4183804291
4183809601
4183816498
4183822358
4183827485
4183832245
4183840302
4183844574
4183851655
4183856293
4183863984
4183869782
4183876130
4183881562
4183888215
4183895783
4183901703
4183906586
4183914032
4183917633
4183924713
4183930573
4183936188
4183941193
4183948822
4183955475
4183959992
4183966095
4183970307
4183975739
4183981781
4183985077
4183993988
4183997772
4184004547
4184009918
4184015228
4184020111
4184026215
4184030609
4184037079
4184043610
4184049713
4184054047
4184059296
4184065216
4184070587
4184075043
4184078277
4184087067
4184092804
4184098541
4184103424
4184109222
4184112518
4184118988
4184123749
4184131439
4184136444
4184142669
4184147735
4184152740
4184157013
4184164886
4184170257
4184177215
4184182525
4184187957
4184193267
4184198028
4184202423
4184208831
4184213287
4184220550
4184225372
4184232330
4184236602
4184242950
4184247833
4184253753
4184258575
4184263885
4184270660
4184276580
4184282623
4184287628
4184294097
4184300262
4184305450
4184311858
4184316558
4184321563
4184328399
4184334747
4184339324
4184344695
4184350188
4184355498
4184361358
4184365447
4184371917
4184376556
4184381744
4184385955
4184391997
4184397307
4184404693
4184410613
4184419463
4184424407
4184430388
4184434722
4184438994
4184447112
4184454375
4184458831
4184465239
4184470977
4184477691
4184482085
4184487456
4184493315
4184499236
4184505706
4184511565
4184517119
4184521331
4184527861
4184534636
4184539336
4184543975
4184552886
4184556914
4184563994
4184569426
4184574187
4184578948
4184584380
4184590483
4184596221
4184600798
4184605925
4184610625
4184616301
4184621855
4184626799
4184632353
4184635649
4184644804
4184648344
4184655302
4184660612
4184665129
4184669829
4184676176
4184681059
4184686613
4184690764
4184701628
4184706938
4184713530
4184718718
4184725676
4184731840
4184739836
4184744658
4184750273
4184755400
4184761381
4184765959
4184772368
4184777617
4184783598
4184790007
4184796354
4184801664
4184808683
4184814176
4184821134
4184826628
4184832121
4184838774
4184844511
4184849150
4184855863
4184860685
4184868131
4184872831
4184877348
4184885404
4184890592
4184896146
4184902067
4184906156
4184909452
4184917020
4184920560
4184928922
4184935575
4184942350
4184947477
4184951810
4184957731
4184962369
4184972135
4184977140
4184983793
4184988981
4184996793
4185002042
4185012235
4185016446
4185026029
4185033719
4185039884
4185045377
4185050382
4185054044
4185062467
4185066129
4185076749
4185080960
4185087552
4185093473
4185098600
4185103238
4185109281
4185113980
4185122281
4185126065
4185134244
4185137540
4185145902
4185150662
4185156644
4185161527
4185167935
4185173367
4185179044
4185186307
4185191922
4185197049
4185203153
4185207852
4185214749
4185219449
4185226773
4185233304
4185238553
4185243558
4185249295
4185254117
4185259915
4185265713
4185271451
4185276822
4185282376
4185287503
4185293912
4185299039
4185305325
4185310513
4185314786
4185322232
4185328885
4185334500
4185339810
4185347561
4185352688
4185357449
4185363553
4185368924
4185375210
4185380398
4185384915
4185393093
4185397854
4185404568
4185409695
4185416592
4185422024
4185431729
4185436672
4185443936
4185447659
4185454251
4185459072
4185464382
4185470669
4185475918
4185480374
4185487942
4185492336
4185498623
4185504910
4185511257
4185516689
4185523159
4185531094
4185536587
4185541653
4185547939
4185553127
4185560696
4185566677
4185573391
4185578884
4185584926
4185589992
4185599270
4185605861
4185615444
4185623317
4185628200
4185636196
4185641384
4185646694
4185652370
4185659755
4185666774
4185672939
4185677578
4185685817
4185690212
4185697109
4185701625
4185707363
4185712123
4185715724
4185724025
4185727321
4185736721
4185740383
4185746608
4185751613
4185757961
4185763454
4185768276
4185774501
4185785854
4185792445
4185798122
4185802882
4185808864
4185813197
4185819179
4185823390
4185831508
4185836208
4185843227
4185847377
4185853236
4185857204
4185863673
4185868129
4185873134
4185879298
4185885280
4185891017
4185896510
4185900783
4185906764
4185911281
4185916041
4185922389
4185927455
4185933192
4185937953
4185943080
4185949244
4185954005
4185960292
4185965419
4185969752
4185975673
4185981532
4185987635
4185992030
4185998072
4186002284
4186007960
4186015650
4186021449
4186026271
4186029872
4186037074
4186040675
4186047633
4186052577
4186060572
4186066737
4186071497
4186077784
4186083338
4186090968
4186096339
4186104456
4186111353
4186116541
4186121729
4186128321
4186132594
4186138636
4186143031
4186152491
4186161036
4186166468
4186170435
4186177149
4186184717
4186189417
4186192652
4186201380
4186205469
4186216089
4186222742
4186227991
4186235682
4186239893
4186246241
4186252039
4186258143
4186262171
4186267115
4186273951
4186279261
4186283411
4186288782
4186294886
4186301355
4186307276
4186313013
4186317469
4186323328
4186327967
4186334070
4186340540
4186344812
4186350061
4186357263
4186360864
4186369409
4186373193
4186383081
4186387048
4186394495
4186397913
4186405359
4186408777
4186414880
4186419763
4186427454
4186432764
4186438013
4186443994
4186449365
4186454248
4186459009
4186464624
4186471033
4186475671
4186481775
4186487451
4186492883
4186497400
4186501611
4186508508
4186514367
4186518762
4186524865
4186530664
4186533960
4186540002
4186544702
4186550317
4186556665
4186563623
4186569299
4186574670
4186579736
4186587060
4186593347
4186599023
4186603906
4186611108
4186617272
4186622583
4186627160
4186633447
4186637902
4186644128
4186648950
4186654199
4186664025
4186670129
4186674951
4186681176
4186685693
4186692223
4186696862
4186700158
4186709252
4186715417
4186721032
4186726586
4186731103
4186737939
4186742394
4186748498
4186755028
4186761986
4186769128
4186775292
4186780663
4186784142
4186792687
4186796410
4186804772
4186811547
4186818078
4186823327
4186828698
4186834679
4186839928
4186846215
4186850548
4186857750
4186862267
4186868554
4186873131
4186879479
4186885582
4186892113
4186896813
4186903466
4186907921
4186914696
4186920494
4186925804
4186930260
4186933678
4186942223
4186948570
4186952843
4186956200
4186963768
4186967369
4186974999
4186978294
4186986534
4186992210
4186996483
4187001366
4187007530
4187012230
4187017235
4187023399
4187028160
4187034080
4187040123
4187044640
4187050255
4187055992
4187061058
4187067222
4187073753
4187080406
4187086754
4187091026
4187097923
4187102379
4187105858
4187114280
4187118004
4187126548
4187130577
4187138450
4187142967
4187150352
4187155662
4187161277
4187165977
4187172508
4187178123
4187183982
4187191734
4187195945
4187201255
4187209556
4187215476
4187223411
4187230979
4187235679
4187242210
4187247825
4187251304
4187259422
4187263145
4187271690
4187278465
4187283286
4187288474
4187295249
4187300620
4187305808
4187310508
4187317466
4187325034
4187331809
4187336448
4187342918
4187349937
4187355308
4187363364
4187369407
4187375876
4187382773
4187387534
4187392356
4187398765
4187403647
4187409995
4187415122
4187426291
4187433005
4187440513
4187448203
4187454673
4187460410
4187465781
4187467612
4187477317
4187484946
4187489646
4187495871
4187500937
4187507224
4187511862
4187518637
4187525168
4187529990
4187534445
4187540976
4187545127
4187551230
4187556906
4187558920
4187567221
4187573630
4187579428
4187584494
4187588828
4187592246
4187598715
4187603293
4187611777
4187617575
4187621786
4187626425
4187633078
4187637778
4187643515
4187648276
4187655173
4187661520
4187665915
4187670248
4187675986
4187681723
4187687643
4187693442
4187699118
4187705038
4187710470
4187716086
4187721335
4187727072
4187730368
4187737814
4187741049
4187751059
4187755148
4187761068
4187766256
4187772055
4187776876
4187782186
4187788290
4187793295
4187799826
4187804830
4187811117
4187816000
4187822225
4187827780
4187832357
4187839071
4187843527
4187852011
4187857076
4187862814
4187870870
4187876180
4187882223
4187889303
4187896261
4187902120
4187907919
4187912374
4187918600
4187923421
4187930624
4187937643
4187947652
4187954793
4187960531
4187968343
4187972555
4187980001
4187986165
4187993917
4187998617
4188004415
4188009237
4188015157
4188020894
4188027120
4188031942
4188037191
4188043111
4188049886
4188053182
4188061788
4188068074
4188075277
4188080159
4188086385
4188090840
4188095784
4188101338
4188106160
4188110555
4188117574
4188122029
4188127339
4188131612
4188137776
4188143086
4188150472
4188155843
4188163838
4188169759
4188173482
4188180196
4188184224
4188190328
4188195088
4188199483
4188205220
4188211507
4188217061
4188221272
4188226216
4188231953
4188236531
4188242512
4188245808
4188255025
4188259053
4188265950
4188269368
4188276692
4188279988
4188286519
4188293110
4188301045
4188306477
4188313130
4188318989
4188324421
4188328938
4188335103
4188341267
4188343159
4188352436
4188357258
4188364460
4188368672
4188375019
4188380879
4188387410
4188390950
4188397419
4188405110
4188410298
4188415058
4188422016
4188426899
4188432759
4188438984
4188444782
4188450886
4188456562
4188461140
4188466816
4188471882
4188474751
4188481281
4188484394
4188491962
4188495808
4188502705
4188506062
4188513508
4188518574
4188524250
4188529926
4188537922
4188542499
4188550251
4188555500
4188565266
4188570820
4188579120
4188584858
4188589374
4188593830
4188599262
4188604694
4188609394
4188615619
4188618488
4188627399
4188633014
4188637836
4188642963
4188649433
4188656696
4188661090
4188667255
4188671344
4188676593
4188681110
4188687152
4188692585
4188699115
4188704242
4188709552
4188715473
4188719867
4188726337
4188730731
4188737384
4188741657
4188747760
4188751972
4188758319
4188763263
4188768573
4188773273
4188779926
4188786700
4188790851
4188796466
4188801776
4188806476
4188812335
4188820453
4188826007
4188830157
4188836688
4188841571
4188846271
4188850177
4188858356
4188863483
4188868671
4188874713
4188879535
4188883685
4188886615
4188896563
4188901751
4188906085
4188912433
4188917376
4188923480
4188926471
4188935504
4188942889
4188946795
4188952411
4188956927
4188963275
4188966571
4188973590
4188979449
4188983538
4188989581
4188993792
4188999957
4189005206
4189010821
4189016375
4189021746
4189027362
4189034197
4189039996
4189045184
4189050860
4189055682
4189063128
4189068621
4189075030
4189080889
4189085223
4189089678
4189098101
4189101763
4189109087
4189114642
4189119341
4189125323
4189130755
4189134173
4189143633
4189149126
4189154558
4189159014
4189164507
4189169756
4189175249
4189181170
4189187578
4189191851
4189197649
4189203142
4189209490
4189214617
4189218828
4189226519
4189231279
4189238298
4189244890
4189251360
4189256548
4189263567
4189268877
4189274370
4189283220
4189289080
4189294756
4189301226
4189306963
4189313188
4189318987
4189325456
4189330339
4189336138
4189341936
4189346147
4189349443
4189357561
4189361101
4189369219
4189373247
4189380022
4189383318
4189390581
4189394121
4189400102
4189406267
4189413103
4189418413
4189423906
4189428728
4189435686
4189440507
4189444841
4189451311
4189455095
4189464738
4189468950
4189477128
4189482255
4189487504
4189494279
4189499406
4189504228
4189506303
4189516374
4189523881
4189528154
4189534562
4189539140
4189545305
4189549638
4189553056
4189561906
4189565812
4189573747
4189577043
4189584245
4189587907
4189598710
4189605668
4189612260
4189619157
4189622331
4189631303
4189635514
4189643510
4189649857
4189656754
4189663285
4189668473
4189674210
4189678483
4189683671
4189688432
4189695573
4189699174
4189709245
4189718400
4189724198
4189728532
4189733903
4189739884
4189749039
4189765214
4189775101
4189779740
4189784318
4189788163
4189796464
4189801652
4189807145
4189812333
4189818314
4189822220
4189829117
4189835892
4189840531
4189846878
4189852738
4189857804
4189861954
4189867936
4189871903
4189877396
4189883011
4189887894
4189892655
4189900833
4189906998
4189915055
4189924515
4189931656
4189938553
4189944718
4189951737
4189955155
4189964432
4189969498
4189978897
4189988358
4189993118
4190001358
4190007584
4190013504
4190021439
4190029495
4190037552
4190041885
4190053055
4190058243
4190065628
4190071243
4190079056
4190087845
4190093887
4190102493
4190108474
4190114578
4190121231
4190128921
4190134414
4190138748
4190144180
4190149246
4190154190
4190159317
4190167190
4190176528
4190182083
4190189407
4190194473
4190201004
4190206802
4190212478
4190218215
4190224441
4190228958
4190236160
4190242996
4190249648
4190254165
4190259597
4190265212
4190269241
4190274978
4190280349
4190284744
4190290298
4190298476
4190305068
4190310073
4190314346
4190319411
4190323928
4190329177
4190333572
4190338393
4190344863
4190350417
4190356032
4190363174
4190369643
4190380752
4190388137
4190393691
4190400954
4190408095
4190414687
4190419997
4190430983
4190438063
4190442824
4190451003
4190456557
4190464919
4190472060
4190482802
4190492324
4190499770
4190506423
4190512282
4190520522
4190528884
4190536269
4190545302
4190554396
4190561720
4190570815
4190577956
4190586379
4190593031
4190598280
4190604201
4190608229
4190613356
4190618910
4190623244
4190629103
4190635512
4190643324
4190648268
4190654127
4190661146
4190667982
4190674757
4190681410
4190687086
4190693983
4190699904
4190705214
4190710463
4190721449
4190731031
4190745375
4190757826
4190765638
4190772840
4190784498
4190790724
4190797987
4190803785
4190810682
4190815992
4190822828
4190831129
4190836317
4190842542
4190847425
4190854444
4190859632
4190864515
4190870008
4190875806
4190881300
4190890516
4190896619
4190901014
4190909620
4190916456
4190925550
4190932874
4190939954
4190945753
4190951978
4190957960
4190965833
4190973157
4190980054
4190987989
4190992994
4191001233
4191008924
4191015882
4191023206
4191029126
4191036512
4191043775
4191052625
4191059644
4191065198
4191074353
4191082471
4191090100
4191096082
4191101697
4191110547
4191114820
4191120435
4191125195
4191130811
4191135266
4191140698
4191145276
4191155469
4191161023
4191165906
4191170606
4191175305
4191183972
4191186963
4191195203
4191200940
4191206006
4191210644
4191215039
4191221081
4191225293
4191235791
4191239087
4191246655
4191251843
4191256238
4191260632
4191267163
4191273083
4191278699
4191284558
4191289258
4191296765
4191303601
4191309094
4191313733
4191321240
4191327832
4191333264
4191338391
4191346508
4191350781
4191357067
4191362988
4191370251
4191377026
4191383129
4191388745
4191396740
4191402294
4191411083
4191417370
4191424816
4191428723
4191439709
4191445812
4191452526
4191457348
4191465588
4191472546
4191479382
4191486279
4191492992
4191500072
4191505077
4191513012
4191517651
4191525341
4191531200
4191539379
4191547314
4191554272
4191559765
4191567638
4191573009
4191582165
4191590282
4191598217
4191604137
4191611461
4191616954
4191622753
4191626964
4191633617
4191638378
4191644542
4191649059
4191654552
4191659374
4191665294
4191670055
4191680004
4191684764
4191691478
4191697093
4191702770
4191706066
4191713207
4191716686
4191724986
4191728771
4191737560
4191742931
4191748607
4191751964
4191758861
4191763683
4191770396
4191775462
4191781017
4191785655
4191791515
4191796275
4191802074
4191808360
4191814098
4191820445
4191826366
4191832713
4191837413
4191843700
4191847606
4191855052
4191860240
4191868052
4191874217
4191878673
4191883616
4191890391
4191895091
4191901683
4191906443
4191913218
4191919932
4191925547
4191930491
4191933909
4191940623
4191946421
4191953440
4191959178
4191967540
4191972727
4191981883
4191987376
4191993540
4191997935
4192005137
4192012400
4192020274
4192023387
4192031748
4192036265
4192042002
4192047556
4192052805
4192058115
4192064097
4192068491
4192073557
4192079295
4192083811
4192090098
4192094859
4192101817
4192108103
4192113352
4192117686
4192122568
4192126841
4192132883
4192137278
4192142954
4192148020
4192152903
4192157480
4192162974
4192167063
4192173655
4192176645
4192183542
4192186777
4192193857
4192198679
4192204050
4192209055
4192215403
4192221079
4192225840
4192232004
4192235056
4192241648
4192247690
4192251474
4192258799
4192265940
4192271250
4192275522
4192280954
4192286447
4192292185
4192297617
4192304636
4192310739
4192315988
4192321237
4192326792
4192332590
4192337961
4192343515
4192348032
4192354868
4192360910
4192364633
4192369760
4192374704
4192381723
4192388437
4192395334
4192400217
4192405588
4192410287
4192414621
4192420236
4192424997
4192432748
4192435983
4192443368
4192448007
4192453500
4192457467
4192463144
4192470651
4192478036
4192483041
4192490915
4192495920
4192502084
4192508493
4192513803
4192518869
4192526193
4192531503
4192537301
4192540658
4192550302
4192557016
4192561654
4192568185
4192572152
4192576058
4192582955
4192588571
4192594125
4192600656
4192604501
4192609628
4192615914
4192621163
4192625680
4192631661
4192637399
4192643075
4192647530
4192654183
4192657479
4192663522
4192668404
4192676095
4192682259
4192686349
4192692269
4192696419
4192699715
4192707345
4192710824
4192718941
4192724129
4192730050
4192734994
4192741280
4192745309
4192752083
4192755318
4192763497
4192768685
4192774178
4192779244
4192784676
4192789925
4192795235
4192799935
4192805550
4192812325
4192816781
4192823555
4192829537
4192836190
4192841072
4192848214
4192853279
4192861214
4192866585
4192871163
4192875496
4192881478
4192886727
4192892342
4192897957
4192903023
4192908821
4192913582
4192918648
4192923531
4192931954
4192939339
4192943611
4192949654
4192953865
4192960152
4192965401
4192972725
4192978706
4192984749
4192989387
4192994637
4193001411
4193005440
4193015572
4193021431
4193028511
4193034187
4193039986
4193045479
4193051765
4193057625
4193062202
4193068733
4193074104
4193079902
4193085579
4193090400
4193096687
4193101021
4193107002
4193111274
4193117134
4193122322
4193129036
4193132576
4193143257
4193148017
4193153450
4193156623
4193163520
4193168769
4193173957
4193180244
4193185188
4193190193
4193195136
4193201972
4193206855
4193212348
4193216987
4193224250
4193229865
4193237006
4193244392
4193248908
4193255317
4193260139
4193265754
4193273200
4193279853
4193285468
4193291877
4193298774
4193306403
4193318671
4193324470
4193332770
4193338019
4193345466
4193352851
4193359138
4193365546
4193370917
4193377265
4193383918
4193388312
4193395026
4193401679
4193406867
4193413764
4193418464
4193429511
4193436286
4193441230
4193446784
4193454779
4193458380
4193470893
4193477484
4193485480
4193493353
4193500373
4193508490
4193515021
4193519965
4193534796
4193543280
4193549628
4193555426
4193565558
4193570502
4193578375
4193586005
4193594183
4193602545
4193610174
4193617621
4193626593
4193634344
4193644110
4193652350
4193655585
4193667853
4193674383
4193684820
4193691900
4193699591
4193704657
4193713018
4193720160
4193728399
4193735479
4193746160
4193752325
4193760199
4193766912
4193772161
4193780828
4193787725
4193795538
4193802069
4193811346
4193817388
4193824896
4193831060
4193835760
4193845098
4193851812
4193857977
4193866888
4193873846
4193879644
4193884344
4193894292
4193901067
4193906988
4193913152
4193915838
4193928899
4193933965
4193942022
4193946538
4193954229
4193959966
4193965581
4193970342
4193976934
4193983587
4193989385
4193993718
4193999456
4194005254
4194009465
4194015264
4194019292
4194026982
4194030645
4194037542
4194041448
4194048772
4194054143
4194059270
4194064153
4194072209
4194075749
4194082036
4194087041
4194095037
4194098638
4194107793
4194111699
4194120000
4194125920
4194131474
4194137029
4194144170
4194149480
4194154546
4194161076
4194166692
4194171574
4194177983
4194184209
4194189824
4194196049
4194200383
4194206608
4194210759
4194219853
4194225163
4194231816
4194236943
4194242802
4194247441
4194253850
4194258549
4194264653
4194272160
4194278203
4194283146
4194289311
4194293950
4194299260
4194306279
4194312016
4194319828
4194324589
4194333134
4194339543
4194346623
4194351933
4194357548
4194361821
4194368717
4194375492
4194382267
4194387211
4194393192
4194398075
4194404850
4194409611
4194415653
4194421024
4194427738
4194432621
4194438297
4194442631
4194449040
4194453922
4194460209
4194465275
4194473026
4194479313
4194483646
4194489445
4194493839
4194499515
4194505924
4194511722
4194517277
4194522892
4194528385
4194532596
4194538822
4194543155
4194546329
4194555546
4194562137
4194566471
4194572086
4194577823
4194583317
4194588321
4194593570
4194600284
4194607242
4194613224
4194618595
4194623539
4194629825
4194632083
4194640567
4194645206
4194653141
4194659549
4194665836
4194669559
4194676639
4194681888
4194687259
4194691959
4194698367
4194705081
4194711612
4194716190
4194722720
4194727359
4194733646
4194738590
4194743716
4194749210
4194754886
4194762454
4194767886
4194773441
4194778262
4194784671
4194789371
4194797610
4194802615
4194809451
4194814273
4194821109
4194826724
4194833194
4194837832
4194843081
4194848453
4194855472
4194861819
4194868655
4194876162
4194882144
4194888614
4194897158
4194906253
4194912783
4194920535
4194927920
4194933413
4194946353
4194953616
4194963198
4194972354
4194981204
4194991152
4194998843
4195004885
4195009463
4195017520
4195023745
4195031558
4195037905
4195044131
4195055972
4195063906
4195069765
4195077883
4195084841
4195089053
4195096987
4195105044
4195107668
4195118410
4195123598
4195131411
4195138796
4195144839
4195151613
4195156801
4195167360
4195172060
4195180544
4195187563
4195195253
4195201113
4195203737
4195213625
4195221193
4195227724
4195234438
4195241335
4195247621
4195255800
4195261965
4195266664
4195276369
4195280702
4195287660
4195292970
4195299928
4195307375
4195312380
4195316835
4195323061
4195328920
4195333254
4195339052
4195344850
4195352174
4195356508
4195362367
4195365724
4195373170
4195376466
4195383424
4195388246
4195394716
4195399721
4195406129
4195411073
4195416994
4195423036
4195427370
4195433473
4195439638
4195444642
4195450563
4195456361
4195461549
4195465822
4195471376
4195477662
4195481324
4195490175
4195494569
4195501466
4195504701
4195512208
4195515809
4195523194
4195528260
4195533815
4195541200
4195545106
4195551393
4195555665
4195560487
4195566346
4195572022
4195576722
4195582887
4195589234
4195594911
4195600160
4195604493
4195607667
4195616395
4195622926
4195631410
4195638429
4195644715
4195649964
4195656068
4195661561
4195667603
4195673585
4195680665
4195687073
4195691590
4195698975
4195703614
4195709351
4195715394
4195720948
4195727112
4195732483
4195738404
4195743897
4195748292
4195753724
4195759400
4195763123
4195772278
4195778992
4195784546
4195791199
4195795594
4195801636
4195806214
4195811524
4195818177
4195821900
4195828797
4195832093
4195838745
4195843689
4195848877
4195855164
4195860169
4195867066
4195873352
4195878174
4195883240
4195887634
4195894348
4195898560
4195904419
4195910339
4195915527
4195921570
4195926514
4195932800
4195936340
4195944031
4195949280
4195956238
4195961548
4195967957
4195973145
4195980713
4195987305
4195994263
4196001099
4196010376
4196015259
4196022095
4196027771
4196036377
4196041504
4196047790
4196054626
4196060791
4196067016
4196071106
4196079284
4196082946
4196090027
4196095398
4196100464
4196107360
4196111877
4196118225
4196125000
4196129882
4196136230
4196141052
4196144775
4196153320
4196157043
4196165283
4196172729
4196177978
4196181823
4196189758
4196193725
4196199890
4196204711
4196213195
4196219726
4196224242
4196232177
4196241149
4196249084
4196255370
4196263976
4196269103
4196276183
4196281737
4196286681
4196292846
4196294921
4196303100
4196306579
4196315795
4196319579
4196326659
4196331725
4196337768
4196343383
4196349791
4196356017
4196362792
4196367797
4196374144
4196380248
4196385192
4196390502
4196395995
4196402465
4196407042
4196413085
4196418334
4196424254
4196429869
4196435485
4196439574
4196445372
4196448851
4196457091
4196462279
4196467772
4196471373
4196478758
4196482176
4196488768
4196493651
4196499816
4196504698
4196512450
4196518736
4196525816
4196531310
4196537962
4196543578
4196552550
4196559630
4196564024
4196569640
4196576109
4196581175
4196587767
4196594603
4196600706
4196607054
4196612425
4196618651
4196623778
4196629942
4196633482
4196640440
4196645933
4196653929
4196659361
4196665770
4196671080
4196676878
4196681700
4196688536
4196693480
4196697752
4196705503
4196709715
4196717466
4196721006
4196727476
4196732542
4196739561
4196744932
4196750120
4196757322
4196763304
4196767027
4196774595
4196780821
4196785520
4196790342
4196796263
4196803648
4196807615
4196814390
4196820310
4196826597
4196831724
4196836485
4196842710
4196848325
4196857420
4196863950
4196871458
4196877317
4196882688
4196888731
4196893980
4196902036
4196908445
4196914976
4196920591
4196926328
4196930967
4196937864
4196944761
4196950925
4196956418
4196962400
4196968808
4196974119
4196979612
4196985593
4196988950
4196997068
4197002134
4197010617
4197014157
4197020444
4197025327
4197031369
4197036252
4197042661
4197047605
4197055600
4197058957
4197064572
4197070676
4197075070
4197081357
4197086606
4197093564
4197099240
4197103513
4197108762
4197114621
4197119016
4197124814
4197129086
4197136166
4197142270
4197148129
4197152951
4197157101
4197161862
4197168759
4197172238
4197178952
4197184262
4197190793
4197195859
4197203366
4197209347
4197217526
4197224789
4197231137
4197236752
4197243344
4197248776
4197256100
4197261288
4197266415
4197271054
4197277279
4197285275
4197290890
4197297055
4197302365
4197307064
4197312252
4197318905
4197324093
4197331417
4197337765
4197343685
4197350460
4197357540
4197361996
4197370663
4197375302
4197381893
4197388546
4197394772
4197399227
4197404720
4197410275
4197414913
4197418453
4197429440
4197436276
4197441463
4197447750
4197453060
4197461483
4197466854
4197475399
4197480648
4197487484
4197493404
4197498653
4197505550
4197510860
4197516781
4197520199
4197529781
4197534969
4197541012
4197544979
4197551876
4197557125
4197562740
4197565975
4197573909
4197577572
4197584224
4197590694
4197594905
4197600704
4197606136
4197611446
4197617244
4197624202
4197629879
4197634822
4197641780
4197646907
4197654293
4197660457
4197667354
4197670711
4197677364
4197682491
4197689998
4197693721
4197701778
4197705379
4197713558
4197718990
4197725765
4197731441
4197738033
4197744319
4197751949
4197757625
4197763789
4197770930
4197776607
4197781428
4197788081
4197793025
4197799190
4197803767
4197807490
4197817012
4197834773
4197837703
4197840449
4197842891
4197844905
4197847529
4197849421
4197851741
4197853938
4197855708
4197857661
4197859797
4197861873
4197863948
4197865657
4197868098
4197870173
4197872249
4197873896
4197876216
4197877986
4197879817
4197882258
4197884700
4197886836
4197888606
4197890498
4197893550
4197896235
4197899043
4197900996
4197903315
4197905085
4197907710
4197909663
4197911494
4197913264
4197915522
4197917231
4197919245
4197921382
4197923091
4197925044
4197926875
4197929133
4197931086
4197933039
4197935298
4197937129
4197939448
4197941950
4197944331
4197947138
4197949458
4197951716
4197953974
4197956538
4197958308
4197960932
4197963069
4197964961
4197966670
4197968623
4197970515
4197972224
4197974299
4197976618
4197978510
4197980464
4197982234
4197984736
4197986689
4197988825
4197990473
4197992610
4197994624
4197996455
4197998347
4198001032
4198003352
4198005915
4198007990
4198010676
4198012690
4198014826
4198017024
4198018794
4198020869
4198022761
4198025080
4198026728
4198028620
4198030573
4198032404
4198034480
4198036555
4198038264
4198040705
4198042353
4198044550
4198046259
4198048212
4198050043
4198052180
4198055048
4198057368
4198059931
4198062067
4198064082
4198066279
4198068537
4198070734
4198072565
4198074885
4198076594
4198078608
4198080561
4198082880
4198085139
4198087031
4198088984
4198090632
4198092585
4198094111
4198096064
4198098078
4198100275
4198102412
4198104426
4198106440
4198109247
4198111689
4198113886
4198116205
4198118342
4198120539
4198122980
4198125055
4198126948
4198128596
4198131342
4198133661
4198135981
4198137873
4198139643
4198141535
4198143549
4198145563
4198147333
4198149408
4198151362
4198153498
4198155207
4198157160
4198158869
4198161249
4198164362
4198166620
4198168940
4198171381
4198173334
4198175348
4198177240
4198179377
4198181269
4198183405
4198185175
4198187189
4198189142
4198191645
4198193598
4198196039
4198197931
4198200129
4198202082
4198204035
4198206232
4198208124
4198209650
4198211786
4198213922
4198217829
4198220453
4198222956
4198225458
4198227472
4198230036
4198231806
4198233820
4198236139
4198238275
4198240106
4198242182
4198244318
4198246454
4198248529
4198250788
4198252619
4198255792
4198257868
4198259882
4198262140
4198264154
4198266168
4198268183
4198270807
4198273493
4198275873
4198278131
4198280939
4198283197
4198285394
4198287714
4198289667
4198291559
4198293634
4198295526
4198297724
4198299555
4198301447
4198303400
4198305414
4198307123
4198309381
4198311029
4198312921
4198314874
4198317133
4198319086
4198321283
4198323297
4198325433
4198328241
4198330499
4198332697
4198335260
4198337091
4198339532
4198341486
4198343317
4198345270
4198347284
4198349237
4198351251
4198353082
4198355096
4198357294
4198359064
4198361017
4198362665
4198364801
4198366632
4198368768
4198370782
4198378839
4198381586
4198384943
4198387811
4198391229
4198394098
4198396539
4198399103
4198401300
4198403009
4198404962
4198406976
4198408929
4198412286
4198414483
4198416620
4198419000
4198420587
4198422723
4198424798
4198426385
4198428460
4198430353
4198432672
4198434442
4198436578
4198438531
4198441217
4198444635
4198446954
4198450067
4198452020
4198454583
4198456415
4198458551
4198460504
4198462640
4198464593
4198466607
4198468438
4198470269
4198472467
4198473871
4198476007
4198478021
4198480096
4198482049
4198483941
4198485894
4198487909
4198490045
4198492181
4198494622
4198497064
4198499444
4198502679
4198504937
4198507196
4198509393
4198511590
4198513421
4198516046
4198518304
4198520501
4198522454
4198524469
4198526849
4198528741
4198530877
4198532586
4198534783
4198537408
4198539117
4198541375
4198543328
4198545465
4198547296
4198549554
4198551446
4198553826
4198556634
4198558892
4198561639
4198563958
4198565972
4198568170
4198570916
4198572991
4198575006
4198577081
4198579705
4198581475
4198583367
4198585504
4198587579
4198589593
4198591912
4198593926
4198595757
4198597894
4198599725
4198601861
4198603692
4198605584
4198607415
4198609368
4198611443
4198614068
4198616998
4198619378
4198622186
4198624444
4198626519
4198628655
4198630669
4198633050
4198634698
4198636956
4198638970
4198641167
4198642999
4198645318
4198647576
4198649712
4198651910
4198653863
4198656304
4198658318
4198660271
4198662102
4198664361
4198666253
4198668389
4198670647
4198672723
4198675835
4198678338
4198681023
4198683465
4198685906
4198688164
4198691277
4198693047
4198695183
4198697076
4198699212
4198701104
4198703301
4198705132
4198707207
4198709405
4198711419
4198713799
4198715630
4198717888
4198719842
4198722283
4198724236
4198726189
4198728325
4198730279
4198732232
4198734185
4198737237
4198743218
4198749810
4198753167
4198756585
4198760064
4198763298
4198766777
4198770134
4198772149
4198774102
4198776238
4198778313
4198780083
4198782219
4198783989
4198786309
4198788201
4198790276
4198792168
4198794243
4198796074
4198798516
4198800347
4198802422
4198804558
4198806572
4198809258
4198811882
4198814141
4198816704
4198819146
4198821282
4198823723
4198825859
4198827874
4198830010
4198832085
4198834160
4198836296
4198838311
4198840142
4198842400
4198844414
4198846184
4198848137
4198850212
4198851982
4198853997
4198856316
4198858025
4198860649
4198862663
4198864922
4198866814
4198869194
4198871880
4198874687
4198877251
4198879265
4198881157
4198883354
4198885613
4198887688
4198889519
4198891838
4198893852
4198895928
4198898003
4198899956
4198901970
4198903923
4198906181
4198908135
4198910088
4198911858
4198913933
4198915764
4198917778
4198919670
4198921562
4198924004
4198927971
4198930351
4198932915
4198935722
4198937675
4198939995
4198942131
4198944084
4198946037
4198948112
4198949882
4198951836
4198953911
4198956108
4198957939
4198960075
4198962334
4198964165
4198966484
4198968254
4198970268
4198972038
4198974174
4198976250
4198978142
4198980217
4198983696
4198986320
4198988640
4198991386
4198993523
4198995231
4198997856
4199000114
4199002189
4199004326
4199006096
4199008293
4199010368
4199012443
4199014519
4199016411
4199018486
4199020317
4199022209
4199024284
4199026298
4199028251
4199030082
4199032463
4199034599
4199036674
4199038933
4199041130
4199043754
4199046196
4199048454
4199051017
4199053032
4199055290
4199058464
4199060478
4199062492
4199064567
4199066826
4199068657
4199070671
4199072746
4199074577
4199076774
4199078788
4199080558
4199082756
4199084526
4199086418
4199088615
4199090629
4199093010
4199095634
4199097709
4199099907
4199103019
4199105583
4199108085
4199110771
4199112907
4199114738
4199116935
4199120292
4199122123
4199123954
4199125968
4199128105
4199130058
4199132255
4199134452
4199136466
4199138603
4199140434
4199142692
4199144767
4199146842
4199148796
4199151115
4199153007
4199154960
4199156974
4199159416
4199161430
4199164176
4199166557
4199169425
4199172111
4199174369
4199177116
4199179130
4199181144
4199182975
4199185050
4199186759
4199188835
4199190605
4199192680
4199194999
4199196891
4199199149
4199200797
4199203178
4199205009
4199207023
4199208976
4199211295
4199213004
4199215141
4199217033
4199220145
4199223014
4199225700
4199228141
4199230460
4199232597
4199235038
4199237357
4199239249
4199241142
4199243156
4199245292
4199247123
4199249198
4199251334
4199253471
4199256766
4199258598
4199260856
4199263053
4199265311
4199267387
4199270316
4199272086
4199274833
4199276969
4199279349
4199281242
4199283805
4199286002
4199288383
4199291251
4199293082
4199295524
4199298148
4199300468
4199302360
4199304557
4199307364
4199309257
4199311210
4199313407
4199315543
4199317374
4199319449
4199321403
4199323600
4199325492
4199327384
4199329459
4199331473
4199333671
4199335746
4199337882
4199339652
4199342399
4199345206
4199347464
4199350211
4199352408
4199354545
4199356742
4199359427
4199361136
4199363089
4199364982
4199367179
4199369254
4199371146
4199373526
4199375907
4199378226
4199380240
4199382132
4199384085
4199386161
4199388480
4199390372
4199392264
4199394034
4199395987
4199398124
4199400748
4199403250
4199406241
4199408316
4199410941
4199412894
4199414847
4199416983
4199418936
4199420768
4199422782
4199425040
4199427054
4199429190
4199431388
4199433951
4199435843
