4388741816
4388745356
4388748652
4388752009
4388755366
4388758845
4388762202
4388765376
4388769099
4388773066
4388776545
4388780390
4388784846
4388788691
4388792414
4388797541
4388802302
4388807795
4388812006
4388816828
4388822993
4388828425
4388832880
4388837946
4388843439
4388847956
4388856074
4388862238
4388866388
4388874201
4388881037
4388887446
4388894465
4388903681
4388910578
4388918390
4388926142
4388935419
4388941645
4388948542
4388957392
4388964289
4388971979
4388978815
4388985651
4388995416
4389003656
4389011347
4389017328
4389023554
4389032404
4389040399
4389048639
4389056146
4389062921
4389071039
4389079828
4389087640
4389094232
4389102167
4389111200
4389119623
4389126764
4389135126
4389142999
4389150995
4389156671
4389164911
4389173028
4389180536
4389186273
4389194574
4389203302
4389209771
4389217279
4389224237
4389230157
4389237115
4389244805
4389253839
4389261346
4389268365
4389275262
4389282159
4389289239
4389296014
4389301202
4389309442
4389318109
4389325860
4389334527
4389340875
4389348809
4389356927
4389366509
4389372796
4389380425
4389388177
4389396050
4389403863
4389412286
4389418816
4389427849
4389436455
4389443047
4389451653
4389457451
4389465203
4389471001
4389480706
4389489678
4389495537
4389504387
4389510003
4389517266
4389524346
4389534478
4389540642
4389548943
4389556023
4389563164
4389571038
4389578301
4389586052
4389594536
4389602104
4389608086
4389616814
4389621514
4389631401
4389638603
4389645928
4389653557
4389660759
4389667900
4389674736
4389680840
4389687675
4389693840
4389702080
4389711723
4389718010
4389724419
4389731682
4389739067
4389744926
4389753349
4389759941
4389768974
4389775322
4389786796
4389791374
4389800346
4389804741
4389815483
4389826042
4389833671
4389840446
4389848381
4389856193
4389863700
4389871635
4389880424
4389888053
4389893974
4389902641
4389908500
4389917167
4389922965
4389931571
4389940666
4389950248
4389959037
4389968620
4389976981
4389984977
4389993766
4390002311
4390009574
4390017509
4390026725
4390033500
4390043204
4390051139
4390059318
4390064445
4390074576
4390083854
4390090201
4390098624
4390107413
4390115714
4390125846
4390133841
4390145011
4390152945
4390160941
4390169425
4390178275
4390186026
4390192252
4390200858
4390208060
4390215140
4390221854
4390228934
4390237723
4390246817
4390252615
4390261588
4390267752
4390278433
4390282889
4390293875
4390301504
4390306876
4390315665
4390321158
4390330557
4390338980
4390344900
4390353445
4390361258
4390369131
4390374746
4390382742
4390390127
4390397146
4390405020
4390412771
4390421255
4390428579
4390436819
4390443533
4390448721
4390456716
4390464468
4390471853
4390480581
4390488149
4390495718
4390501455
4390508596
4390519338
4390527883
4390533987
4390542349
4390548025
4390556509
4390563894
4390570547
4390581228
4390588064
4390594472
4390602651
4390608816
4390617788
4390626882
4390636770
4390645681
4390654226
4390663015
4390670400
4390677114
4390684560
4390693471
4390701406
4390710256
4390718068
4390726430
4390733632
4390738088
4390742543
4390747060
4390751882
4390755544
4390760305
4390764821
4390768972
4390773366
4390778981
4390784047
4390789235
4390794179
4390799245
4390806142
4390813161
4390817800
4390822255
4390827504
4390831654
4390835194
4390841115
4390847157
4390850697
4390856191
4390861989
4390866444
4390871510
4390874745
4390879506
4390883778
4390888783
4390891469
4390897084
4390901845
4390907582
4390912221
4390916188
4390921132
4390925160
4390929127
4390933156
4390937428
4390942067
4390946827
4390950856
4390953847
4390958790
4390962086
4390965992
4390971241
4390977284
4390979847
4390985280
4390988881
4390996937
4391001698
4391007191
4391012196
4391014698
4391020008
4391024464
4391028431
4391033192
4391039967
4391044911
4391049061
4391054493
4391059254
4391064076
4391066822
4391073658
4391076405
4391083424
4391086781
4391092945
4391097706
4391101429
4391106373
4391111500
4391114796
4391121388
4391127308
4391131092
4391136402
4391140186
4391144886
4391150074
4391152943
4391160816
4391162586
4391169849
4391172474
4391178883
4391183704
4391187733
4391193897
4391199207
4391202991
4391207691
4391210682
4391217213
4391220508
4391230030
4391235950
4391241138
4391246692
4391252308
4391257618
4391262012
4391269764
4391272388
4391280140
4391283985
4391288318
4391292713
4391297168
4391301502
4391308033
4391312976
4391317981
4391322864
4391326404
4391332630
4391335132
4391341114
4391346302
4391351001
4391355518
4391360218
4391364856
4391371204
4391377368
4391384509
4391388599
4391393543
4391398853
4391403919
4391408740
4391414539
4391419360
4391425220
4391428272
4391433887
4391438586
4391442859
4391446521
4391450855
4391455188
4391461719
4391466968
4391471606
4391474475
4391480334
4391484973
4391491199
4391494372
4391501086
4391506885
4391510425
4391515613
4391519214
4391523364
4391528491
4391533557
4391540088
4391545032
4391549914
4391552966
4391559436
4391562427
4391569018
4391573596
4391581286
4391584277
4391589770
4391593921
4391599353
4391603747
4391609790
4391612841
4391620410
4391623645
4391629138
4391633532
4391638659
4391644213
4391648791
4391654284
4391660937
4391665759
4391670703
4391674487
4391679675
4391684985
4391689074
4391694811
4391699572
4391705248
4391711840
4391716235
4391721606
4391727709
4391733141
4391742236
4391747607
4391753405
4391759264
4391763110
4391769640
4391774096
4391778979
4391784960
4391792040
4391795397
4391802355
4391808031
4391812792
4391816637
4391822008
4391824877
4391831591
4391836657
4391841845
4391846483
4391851305
4391855272
4391861376
4391866381
4391871935
4391877306
4391881395
4391887011
4391890734
4391896471
4391900621
4391906908
4391912279
4391916430
4391921617
4391925890
4391930773
4391935228
4391940050
4391946581
4391951952
4391956896
4391960741
4391966051
4391970079
4391974352
4391980699
4391986193
4391990404
4391995043
4391999864
4392005724
4392011949
4392016283
4392020799
4392027147
4392034227
4392038133
4392043749
4392047899
4392054063
4392057054
4392061937
4392068773
4392076219
4392079881
4392086290
4392091722
4392104478
4392122362
4392129808
4392137681
4392146287
4392153734
4392160875
4392169481
4392176561
4392183702
4392188707
4392193589
4392198106
4392201585
4392208177
4392211045
4392218980
4392223985
4392228440
4392234239
4392237168
4392243455
4392249864
4392255967
4392263841
4392270677
4392276536
4392282273
4392287461
4392292466
4392298753
4392304673
4392310777
4392315782
4392320054
4392324387
4392329392
4392335679
4392341050
4392344529
4392350755
4392354478
4392359116
4392364182
4392369553
4392373887
4392376389
4392382432
4392386155
4392391709
4392396653
4392400254
4392405442
4392410325
4392415269
4392421189
4392425522
4392431626
4392437241
4392442612
4392446885
4392453293
4392457932
4392463303
4392468613
4392472764
4392478806
4392481614
4392488327
4392493943
4392499863
4392503281
4392510849
4392518418
4392522995
4392528061
4392534409
4392539658
4392544113
4392550095
4392555954
4392560288
4392564865
4392569931
4392574082
4392580124
4392586350
4392592453
4392597458
4392602524
4392607651
4392612717
4392617844
4392623703
4392628586
4392633896
4392638229
4392643784
4392647568
4392654343
4392658798
4392663742
4392669479
4392673264
4392679062
4392683639
4392688827
4392694809
4392699509
4392705368
4392710007
4392715561
4392719162
4392727829
4392733871
4392743454
4392747787
4392752426
4392755966
4392762253
4392768295
4392773727
4392778793
4392783981
4392789840
4392795272
4392800155
4392805038
4392810165
4392815658
4392820419
4392825058
4392829879
4392833786
4392839645
4392844711
4392849288
4392854598
4392859359
4392863876
4392868637
4392874069
4392878768
4392882797
4392887679
4392892745
4392897445
4392901412
4392907394
4392913986
4392919174
4392924361
4392927413
4392934066
4392938522
4392944503
4392950423
4392953231
4392959945
4392965621
4392970992
4392975936
4392981307
4392987044
4392992721
4392997787
4393001693
4393006759
4393014449
4393017623
4393024825
4393030013
4393035811
4393039901
4393044112
4393051375
4393056563
4393061324
4393067550
4393073897
4393078719
4393084823
4393090377
4393096480
4393099410
4393106124
4393111068
4393115889
4393119857
4393124984
4393133162
4393137984
4393142379
4393148726
4393152693
4393160506
4393164900
4393172286
4393178328
4393184371
4393189864
4393193892
4393200911
4393207747
4393211775
4393216170
4393221419
4393226424
4393231612
4393236128
4393244307
4393248701
4393255598
4393260603
4393265120
4393269575
4393273787
4393278426
4393283247
4393289656
4393293318
4393299055
4393303267
4393307966
4393314192
4393319502
4393324141
4393329573
4393335737
4393339461
4393345076
4393349226
4393354597
4393360396
4393364790
4393370100
4393375166
4393380781
4393385969
4393390486
4393396528
4393401533
4393406904
4393411482
4393417829
4393423506
4393430769
4393434858
4393444136
4393448591
4393455244
4393459883
4393466047
4393469770
4393477461
4393481550
4393489485
4393493269
4393502851
4393507978
4393512861
4393518110
4393524580
4393529340
4393535078
4393541059
4393547468
4393552351
4393557539
4393561994
4393569257
4393573469
4393579145
4393586164
4393591413
4393595624
4393602094
4393608686
4393615583
4393621381
4393626996
4393632367
4393639203
4393643415
4393649274
4393653547
4393659589
4393665448
4393667402
4393675763
4393679364
4393687543
4393690839
4393698102
4393701886
4393709455
4393714521
4393721418
4393728803
4393737531
4393744062
4393749066
4393753888
4393759748
4393764691
4393771649
4393776410
4393782208
4393786603
4393791120
4393798383
4393802899
4393808209
4393814557
4393820172
4393826337
4393831097
4393836652
4393841351
4393846783
4393850995
4393857159
4393860822
4393868024
4393873273
4393877423
4393881940
4393887616
4393891949
4393897320
4393901898
4393908795
4393913006
4393919171
4393922223
4393928509
4393932965
4393938824
4393944073
4393949627
4393954083
4393958844
4393964459
4393970318
4393974957
4393980999
4393987347
4393991436
4393997113
4394001934
4394006451
4394012493
4394016339
4394021527
4394028485
4394034100
4394037884
4394044293
4394048382
4394054119
4394059429
4394064068
4394072247
4394078594
4394084881
4394089459
4394095806
4394101421
4394105511
4394110638
4394114849
4394120464
4394126934
4394132061
4394137371
4394142620
4394146526
4394151714
4394157757
4394162395
4394168743
4394175030
4394178875
4394183697
4394188824
4394194073
4394198833
4394205669
4394211407
4394216106
4394222454
4394230388
4394234173
4394242595
4394250225
4394258770
4394264751
4394268963
4394275921
4394283245
4394288799
4394296428
4394301738
4394306438
4394312603
4394318401
4394325054
4394329265
4394336528
4394344280
4394350200
4394356243
4394360881
4394366191
4394371501
4394377178
4394382427
4394388530
4394393901
4394399577
4394404643
4394410014
4394414165
4394421428
4394427348
4394431682
4394437297
4394443156
4394448344
4394453227
4394457988
4394463420
4394468669
4394473552
4394479777
4394484355
4394490275
4394496257
4394502788
4394506206
4394512614
4394517436
4394522563
4394525615
4394532878
4394536235
4394545573
4394551982
4394556315
4394561870
4394566325
4394569560
4394577128
4394580485
4394587016
4394592814
4394599040
4394604472
4394610453
4394615153
4394620402
4394624858
4394631022
4394638468
4394644877
4394649027
4394655497
4394659648
4394665507
4394669779
4394676127
4394680644
4394684367
4394692912
4394698527
4394703349
4394709879
4394714152
4394719645
4394725871
4394730631
4394739970
4394744913
4394752299
4394758524
4394766581
4394773417
4394780009
4394788309
4394794230
4394801127
4394806193
4394810770
4394815958
4394820902
4394827311
4394832926
4394837198
4394843058
4394847391
4394852762
4394857035
4394861612
4394867716
4394871805
4394877176
4394881510
4394886942
4394892008
4394896708
4394900736
4394906107
4394911051
4394915567
4394919535
4394925943
4394929117
4394935770
4394938700
4394945780
4394950785
4394955484
4394960062
4394964945
4394968973
4394974344
4394978922
4394983194
4394988992
4394994058
4394998819
4395001566
4395008951
4395015115
4395019144
4395023904
4395028665
4395033548
4395038675
4395042703
4395047830
4395050943
4395057718
4395062295
4395067911
4395073343
4395077371
4395080484
4395088479
4395094217
4395099649
4395104654
4395108987
4395114419
4395119607
4395122720
4395131387
4395134805
4395141763
4395144937
4395151834
4395155130
4395161721
4395165994
4395171182
4395175943
4395181680
4395185952
4395191385
4395196084
4395202615
4395207254
4395212320
4395216897
4395223245
4395226235
4395233316
4395243753
4395248086
4395254495
4395257852
4395265725
4395268655
4395275552
4395278909
4395285867
4395292153
4395300149
4395305642
4395310098
4395316995
4395321389
4395327859
4395333657
4395339394
4395345437
4395349953
4395355019
4395360024
4395365578
4395370827
4395374795
4395379922
4395385842
4395391640
4395395730
4395401772
4395404885
4395411477
4395416604
4395420388
4395426003
4395431374
4395436562
4395441506
4395446023
4395450722
4395455605
4395460244
4395466469
4395471962
4395476601
4395481728
4395486977
4395492348
4395497597
4395502236
4395508705
4395512673
4395519265
4395523720
4395529763
4395534035
4395539772
4395546059
4395551308
4395557228
4395562294
4395568154
4395573097
4395578896
4395584023
4395588783
4395594704
4395600624
4395606239
4395610451
4395616676
4395622475
4395625771
4395632240
4395638588
4395644447
4395649452
4395656227
4395659767
4395666908
4395669960
4395677345
4395683754
4395689857
4395695595
4395704445
4395711403
4395717262
4395720741
4395728248
4395733986
4395740150
4395745094
4395750953
4395755348
4395761146
4395766761
4395771461
4395776405
4395785133
4395788673
4395794349
4395799049
4395805702
4395810463
4395815956
4395821205
4395827796
4395832618
4395837806
4395844703
4395850135
4395855201
4395860938
4395869422
4395874854
4395879310
4395885719
4395893409
4395897865
4395901710
4395907142
4395911964
4395916480
4395921119
4395926612
4395931007
4395935462
4395940894
4395946143
4395951148
4395954322
4395960426
4395963111
4395968848
4395971351
4395981544
4395986548
4395990455
4395996192
4395999732
4396005775
4396009803
4396014686
4396020362
4396025733
4396030066
4396036109
4396040076
4396045508
4396050757
4396053687
4396061255
4396066382
4396071997
4396073951
4396081702
4396085181
4396091529
4396094580
4396100928
4396105628
4396111426
4396115821
4396120948
4396126990
4396131995
4396135047
4396140479
4396148718
4396154273
4396157446
4396163184
4396166052
4396172217
4396176795
4396182898
4396187048
4396193701
4396197424
4396203650
4396208044
4396213477
4396217993
4396222998
4396229346
4396234839
4396238623
4396244299
4396248694
4396254919
4396258765
4396263525
4396269018
4396274390
4396280371
4396282324
4396291418
4396296545
4396300574
4396304907
4396310888
4396314001
4396321570
4396327124
4396332312
4396335302
4396346655
4396366125
4396381506
4396407324
4396421484
4396432775
4396444982
4396455480
4396469457
4396475622
4396481237
4396486730
4396491430
4396495947
4396500524
4396505956
4396512426
4396519262
4396525182
4396530248
4396534582
4396539465
4396544347
4396548559
4396553075
4396558752
4396564611
4396569799
4396574621
4396581945
4396586767
4396592016
4396597448
4396602331
4396607458
4396612401
4396615575
4396621862
4396625158
4396645604
4396661535
4396672094
4396691930
4396707250
4396720800
4396735692
4396745519
4396754247
4396761022
4396772435
4396784154
4396794896
4396806004
4396818639
4396835606
4396841710
4396846471
4396851659
4396856053
4396861363
4396866368
4396871495
4396875951
4396881261
4396885167
4396890538
4396895299
4396900242
4396905919
4396910618
4396915257
4396920140
4396924717
4396929539
4396933507
4396940709
4396945652
4396951146
4396956150
4396961644
4396965977
4396971104
4396974095
4396980626
4396985691
4396991612
4396995152
4397001072
4397005894
4397009434
4397013462
4397018406
4397023167
4397030186
4397034642
4397038243
4397043553
4397051365
4397056370
4397064671
4397069554
4397077366
4397082310
4397088841
4397091770
4397098301
4397103123
4397107517
4397112278
4397116184
4397122288
4397125401
4397132053
4397138218
4397142246
4397146946
4397150791
4397156956
4397159763
4397167148
4397172886
4397177036
4397182163
4397186985
4397190708
4397194065
4397200352
4397205173
4397210972
4397215488
4397221103
4397226108
4397231479
4397236179
4397242222
4397247715
4397253513
4397259128
4397264255
4397268406
4397273044
4397279514
4397284275
4397289646
4397295200
4397299472
4397303134
4397310581
4397316623
4397321872
4397326023
4397331943
4397335483
4397341281
4397346103
4397351535
4397356174
4397362949
4397367099
4397371311
4397376132
4397382175
4397387302
4397393283
4397399081
4397403537
4397408725
4397412936
4397418246
4397423984
4397426852
4397432834
4397439365
4397443576
4397448947
4397454623
4397460422
4397465976
4397469638
4397475009
4397479159
4397485446
4397492160
4397496982
4397502841
4397511081
4397517306
4397520785
4397528598
4397535312
4397540988
4397544284
4397551547
4397556735
4397561496
4397567111
4397572848
4397579867
4397585910
4397591098
4397596286
4397602084
4397606967
4397612521
4397617221
4397623995
4397627047
4397634127
4397638583
4397644198
4397649508
4397655551
4397660922
4397665194
4397671237
4397675448
4397679904
4397686678
4397691073
4397697726
4397702853
4397709200
4397716402
4397721590
4397727572
4397733431
4397738436
4397743563
4397750216
4397755648
4397760409
4397767428
4397771700
4397777621
4397782442
4397789828
4397794771
4397798067
4397805391
4397811068
4397815462
4397820223
4397826449
4397833407
4397840914
4397847628
4397852938
4397855928
4397861910
4397867220
4397874910
4397880648
4397885897
4397891329
4397897005
4397901522
4397907198
4397912996
4397917757
4397925020
4397931368
4397933321
4397941927
4397945406
4397952913
4397956514
4397963106
4397968660
4397974092
4397979036
4397984712
4397990755
4397998995
4398003938
4398010103
4398014803
4398021883
4398026460
4398031709
4398037996
4398044466
4398050935
4398053072
4398062898
4398071382
4398079011
4398084077
4398089387
4398095369
4398099763
4398104646
4398111543
4398117586
4398122224
4398127778
4398132722
4398139314
4398143770
4398149019
4398155915
4398161287
4398166414
4398172029
4398176423
4398181184
4398186494
4398191194
4398198213
4398203035
4398209138
4398213655
4398217988
4398224763
4398228852
4398234712
4398238862
4398245454
4398249543
4398254792
4398260529
4398264924
4398270478
4398273896
4398280976
4398286164
4398291718
4398296052
4398301850
4398305146
4398312043
4398316987
4398322785
4398328095
4398335053
4398338532
4398344697
4398349641
4398355500
4398359833
4398366425
4398372407
4398378449
4398382661
4398388520
4398394501
4398400300
4398404816
4398411591
4398417023
4398423066
4398429108
4398433625
4398439911
4398445710
4398449982
4398455964
4398460480
4398466156
4398473297
4398476715
4398482636
4398487580
4398494599
4398499359
4398504608
4398509369
4398516083
4398520478
4398526642
4398531342
4398536896
4398543122
4398548371
4398553375
4398559296
4398564240
4398570221
4398574677
4398580170
4398585297
4398591827
4398597870
4398606842
4398610077
4398619904
4398624054
4398631927
4398637482
4398644501
4398651520
4398656525
4398661407
4398667328
4398672211
4398677215
4398683441
4398687713
4398693207
4398699920
4398707123
4398718963
4398724151
4398730011
4398734405
4398739837
4398744964
4398751007
4398759369
4398765411
4398771148
4398775238
4398781036
4398785675
4398793182
4398798065
4398801422
4398810028
4398815582
4398820037
4398824798
4398830841
4398836028
4398843780
4398847076
4398853851
4398858184
4398862762
4398868560
4398872405
4398878631
4398883636
4398887969
4398894256
4398898834
4398904449
4398909087
4398914642
4398919585
4398926421
4398931731
4398936797
4398941558
4398948333
4398954131
4398955962
4398964446
4398971282
4398977508
4398982757
4398987578
4398994170
4398998565
4399003570
4399010405
4399017486
4399022307
4399028289
4399033721
4399039092
4399044524
4399049407
4399055693
4399061187
4399067595
4399072051
4399078215
4399082244
4399087798
4399092498
4399097747
4399104216
4399108916
4399114226
4399120024
4399123747
4399128386
4399133757
4399139922
4399146453
4399152312
4399156828
4399163420
4399170622
4399175078
4399182890
4399192839
4399199126
4399202727
4399211394
4399215178
4399222075
4399226591
4399231413
4399238798
4399243193
4399247587
4399253569
4399258086
4399263762
4399269621
4399275480
4399283049
4399287382
4399291960
4399298674
4399303190
4399307768
4399313261
4399317289
4399324919
4399329985
4399335600
4399340971
4399346037
4399353117
4399358366
4399364897
4399368986
4399376127
4399381010
4399387175
4399392057
4399397978
4399402677
4399407987
4399412565
4399418119
4399424894
4399430815
4399438200
4399444425
4399449552
4399457487
4399463712
4399469450
4399476164
4399481413
4399488249
4399493986
4399499235
4399503080
4399512540
4399517545
4399524686
4399528104
4399534147
4399539091
4399545133
4399549528
4399555692
4399560941
4399567533
4399571989
4399578275
4399582548
4399585843
4399593595
4399597013
4399603238
4399608976
4399616483
4399621793
4399628507
4399633451
4399639554
4399644193
4399650113
4399655423
4399661893
4399667813
4399672757
4399678067
4399683316
4399689115
4399693509
4399698697
4399705716
4399710477
4399715482
4399719998
4399726224
4399730374
4399736844
4399741788
4399750089
4399757291
4399762845
4399768948
4399775906
4399780911
4399785794
4399793668
4399800565
4399804898
4399811551
4399816190
4399823636
4399829068
4399835171
4399842129
4399848843
4399853604
4399859585
4399864468
4399868985
4399874844
4399879849
4399886258
4399892666
4399897000
4399902920
4399907254
4399910672
4399918911
4399922451
4399928494
4399934658
4399940518
4399943631
4399949490
4399954007
4399959988
4399964932
4399970303
4399975552
4399982327
4399987332
4399991848
4399998257
4400002835
4400007473
4400014126
4400019436
4400026394
4400031094
4400036709
4400043118
4400047939
4400052212
4400057034
4400063625
4400067165
4400075588
4400078945
4400085720
4400090542
4400095669
4400099880
4400105801
4400110989
4400118496
4400125210
4400131618
4400136806
4400142666
4400148647
4400153347
4400159206
4400164638
4400171413
4400176235
4400181118
4400187893
4400191128
4400199123
4400205410
4400211025
4400215847
4400219814
4400225307
4400230495
4400234707
4400242153
4400249111
4400254299
4400260280
4400265285
4400271022
4400275539
4400281581
4400286525
4400293849
4400298244
4400303859
4400308986
4400317104
4400321742
4400330409
4400340602
4400345241
4400349269
4400357448
4400364406
4400370082
4400373317
4400380092
4400383327
4400390712
4400393947
4400401088
4400404201
4400411037
4400417689
4400425075
4400429591
4400436122
4400439174
4400445644
4400448939
4400456080
4400462123
4400467006
4400470851
4400478419
4400484218
4400489650
4400495753
4400501246
4400505702
4400511256
4400515895
4400521693
4400526759
4400532557
4400537806
4400542018
4400545314
4400553248
4400559047
4400565211
4400568690
4400574672
4400579554
4400585170
4400591334
4400596522
4400601588
4400607569
4400612452
4400618067
4400624110
4400631251
4400637232
4400641810
4400648707
4400655055
4400659998
4400666224
4400672266
4400676905
4400682215
4400687891
4400692835
4400699793
4400704859
4400711085
4400715845
4400721949
4400727503
4400730799
4400737757
4400744654
4400749171
4400754114
4400760767
4400765406
4400771326
4400776209
4400781397
4400785914
4400792078
4400798060
4400803797
4400808497
4400814722
4400820337
4400825647
4400830103
4400836939
4400841517
4400844812
4400852808
4400858118
4400863977
4400868738
4400873865
4400880579
4400886866
4400892420
4400898706
4400903040
4400909815
4400917017
4400919275
4400927942
4400935755
4400940393
4400946558
4400950952
4400956873
4400960962
4400966516
4400971033
4400978113
4400983545
4400988916
4400994287
4400999475
4401004663
4401011194
4401016992
4401022302
4401028039
4401033594
4401038171
4401044458
4401050012
4401055261
4401061243
4401067590
4401072412
4401077783
4401082666
4401088769
4401093469
4401099206
4401103967
4401110864
4401115808
4401122339
4401127282
4401133142
4401140283
4401144738
4401149316
4401156640
4401161096
4401167321
4401171777
4401177941
4401183801
4401185693
4401195153
4401201135
4401206018
4401212243
4401216455
4401222009
4401227868
4401231408
4401237328
4401244775
4401250634
4401254296
4401261010
4401265832
4401270532
4401276818
4401282128
4401288781
4401295495
4401301842
4401306420
4401312585
4401316857
4401323144
4401327660
4401333764
4401338769
4401345421
4401351647
4401356347
4401361901
4401367333
4401372826
4401377404
4401384911
4401391076
4401394433
4401400231
4401405175
4401411278
4401416161
4401422081
4401427391
4401433007
4401439782
4401446373
4401451561
4401457360
4401462792
4401469200
4401477135
4401485558
4401491234
4401497154
4401506432
4401510887
4401516381
4401521630
4401527306
4401531517
4401537804
4401543541
4401548973
4401553734
4401559471
4401565331
4401571678
4401575646
4401581383
4401585289
4401589928
4401595665
4401599876
4401605247
4401612633
4401617821
4401622032
4401627769
4401632042
4401637657
4401642906
4401649254
4401654991
4401659630
4401662559
4401669456
4401674400
4401678306
4401682457
4401688255
4401693260
4401699302
4401702598
4401709129
4401713340
4401718284
4401722252
4401728172
4401732689
4401739341
4401743858
4401750328
4401754417
4401759788
4401765586
4401770103
4401776145
4401781578
4401787254
4401793663
4401797447
4401803428
4401807273
4401812644
4401816978
4401822044
4401828208
4401833640
4401838096
4401843894
4401848228
4401854759
4401863059
4401867210
4401874595
4401881309
4401886985
4401892478
4401897422
4401902122
4401908897
4401913963
4401920798
4401925620
4401931419
4401936423
4401942649
4401948264
4401955588
4401960288
4401965598
4401971335
4401975730
4401981528
4401985679
4401991050
4401998130
4402003867
4402011130
4402016868
4402024314
4402029807
4402040000
4402045432
4402054648
4402061911
4402068259
4402074118
4402079428
4402084922
4402090415
4402097800
4402105185
4402110129
4402120383
4402127097
4402135947
4402144980
4402151145
4402161276
4402167258
4402171530
4402181784
4402190390
4402198935
4402210593
4402214987
4402220053
4402224997
4402228598
4402235068
4402239889
4402246054
4402248617
4402255270
4402258017
4402264487
4402268820
4402273886
4402278830
4402283713
4402289267
4402296652
4402303915
4402309958
4402318930
4402325583
4402334066
4402342123
4402347372
4402357504
4402362692
4402373251
4402377462
4402381613
4402389242
4402392904
4402395895
4402402853
4402408407
4402412130
4402417013
4402422933
4402427328
4402432638
4402438009
4402443563
4402447714
4402453085
4402458090
4402463278
4402470174
4402474691
4402482198
4402487936
4402491903
4402496725
4402502645
4402510641
4402516866
4402521566
4402526937
4402531270
4402536764
4402542074
4402546773
4402553304
4402558004
4402563924
4402567708
4402573995
4402579183
4402584737
4402592000
4402599386
4402605245
4402610982
4402616536
4402622396
4402627889
4402633504
4402638204
4402645467
4402649739
4402655049
4402661275
4402667195
4402671651
4402681600
4402687886
4402692647
4402698140
4402702291
4402708150
4402713765
4402719136
4402726033
4402731587
4402736287
4402742085
4402746785
4402753621
4402757954
4402763692
4402769246
4402774739
4402779561
4402785847
4402790364
4402796529
4402799886
4402806355
4402811726
4402816792
4402821980
4402827534
4402832600
4402838460
4402841756
4402848714
4402853840
4402859761
4402865315
4402870564
4402876118
4402880391
4402885212
4402890645
4402896992
4402904133
4402909077
4402914692
4402919636
4402925068
4402930439
4402939717
4402946308
4402952229
4402958699
4402963826
4402968098
4402974629
4402978962
4402985737
4402991535
4402998738
4403004109
4403009663
4403014973
4403020893
4403025776
4403031086
4403037800
4403041950
4403049824
4403056477
4403062946
4403069416
4403075031
4403081074
4403086689
4403093159
4403098469
4403104877
4403115253
4403123554
4403131428
4403137775
4403144062
4403151142
4403156574
4403163959
4403170002
4403185993
4403206989
4403226093
4403244403
4403256000
4403266376
4403274494
4403287311
4403292560
4403298480
4403303729
4403309284
4403314289
4403323078
4403327594
4403332599
4403337848
4403341876
4403346393
4403350238
4403355853
4403362445
4403367206
4403372028
4403376117
4403381183
4403385944
4403389606
4403394672
4403400104
4403403705
4403408771
4403413898
4403418536
4403422809
4403429584
4403434161
4403439899
4403444659
4403450397
4403464679
4403486346
4403507037
4403523883
4403545367
4403561358
4403573138
4403593341
4403614947
4403630328
4403649065
4403661334
4403676653
4403693621
4403704607
4403719622
4403736346
4403748736
4403764055
4403779619
4403791338
4403806109
4403824968
4403846392
4403863237
4403877397
4403889299
4403901262
4403912554
4403925981
4403939714
4403951616
4403962663
4403973833
4403986040
4403997392
4404009172
4404020463
4404032365
4404048784
4404060075
4404069963
4404081987
4404093461
4404109575
4404122514
4404134050
4404145585
4404156388
4404169755
4404183366
4404197160
4404209855
4404221879
4404232987
4404246171
4404257951
4404271867
4404282304
4404294266
4404305924
4404315873
4404327531
4404339127
4404349686
4404361893
4404374405
4404387040
4404399369
4404409867
4404423111
4404437394
4404448807
4404460099
4404469010
4404483902
4404495316
4404508377
4404521622
4404534012
4404545181
4404559647
4404571243
4404583023
4404594070
4404606338
4404615738
4404628799
4404639358
4404651626
4404663101
4404675186
4404687637
4404697769
4404708877
4404719314
4404731155
4404743118
4404755996
4404767532
4404778213
4404791702
4404802444
4404814041
4404826492
4404839248
4404849197
4404862258
4404872207
4404884719
4404894851
4404906020
4404916152
4404925857
4404938430
4404945693
4404954238
4404961379
4404968642
4404977187
4404982802
4404988967
4404997207
4405005141
4405011916
4405021804
4405029067
4405035903
4405042861
4405049880
4405058303
4405064894
4405071913
4405079299
4405087660
4405093032
4405102492
4405111098
4405118300
4405131850
4405139052
4405159560
4405166884
4405175124
4405183913
4405190810
4405196852
4405206312
4405213454
4405221205
4405231398
4405237318
4405240370
4405248915
4405255202
4405261366
4405265883
4405272413
4405277113
4405282667
4405286940
4405295485
4405300123
4405305861
4405313429
4405318434
4405324965
4405331739
4405337233
4405343031
4405349501
4405358045
4405367201
4405378553
4405387403
4405395460
4405401563
4405408888
4405414808
4405419630
4405428114
4405435682
4405439832
4405446302
4405454664
4405465162
4405474805
4405480848
4405486463
4405490736
4405496839
4405504468
4405509412
4405514661
4405519788
4405525709
4405530958
4405535047
4405539686
4405547071
4405551526
4405555738
4405560377
4405570325
4405576612
4405582288
4405589734
4405594556
4405599744
4405606336
4405611463
4405617688
4405622144
4405626966
4405631910
4405635266
4405641370
4405648572
4405653577
4405661573
4405666089
4405670606
4405673413
4405680371
4405685559
4405690137
4405694043
4405698560
4405704785
4405708631
4405715466
4405722058
4405729016
4405735059
4405741162
4405747510
4405752026
4405759412
4405766553
4405770947
4405777783
4405784192
4405790112
4405794507
4405802014
4405805737
4405815442
4405820935
4405827099
4405833386
4405839306
4405844555
4405850903
4405859448
4405864819
4405871838
4405876843
4405883984
4405890149
4405896130
4405904492
4405910168
4405916394
4405920605
4405926342
4405931652
4405936596
4405941296
4405948437
4405953076
4405960583
4405963757
4405971569
4405977123
4405983044
4405988293
4405994091
4405999767
4406003735
4406008862
4406014599
4406019604
4406026257
4406032787
4406042309
4406054699
4406062023
4406072338
4406075817
4406083507
4406089123
4406094372
4406097790
4406106518
4406110607
4406117260
4406123302
4406130993
4406140026
4406144909
4406151439
4406156383
4406160228
4406165355
4406169872
4406175060
4406180980
4406186046
4406193248
4406198253
4406204357
4406211803
4406219005
4406227001
4406233409
4406239208
4406245128
4406252025
4406256664
4406263317
4406271068
4406277904
4406283214
4406290172
4406295116
4406302013
4406307018
4406313426
4406318797
4406326610
4406336803
4406345226
4406353221
4406357127
4406367686
4406378673
4406384532
4406393382
4406399181
4406406444
4406414561
4406421519
4406426646
4406434032
4406438853
4406444652
4406449473
4406455333
4406461314
4406465892
4406474437
4406480906
4406488353
4406493907
4406498423
4406502696
4406507762
4406514537
4406519419
4406523936
4406535594
4406541209
4406552317
4406562144
4406573374
4406584605
4406591990
4406602000
4406609873
4406615916
4406639048
4406650034
4406660960
4406671091
4406682017
4406694590
4406705881
4406722239
4406731333
4406738535
4406749338
4406759836
4406768503
4406777048
4406789621
4406799448
4406811045
4406824594
4406837717
4406846201
4406860605
4406868418
4406879831
4406891123
4406899973
4406911020
4406920480
4406931345
4406943674
4406953256
4406961984
4406969675
4406980417
4406990671
4406999216
4407004037
4407018014
4407026254
4407034189
4407043039
4407049447
4407060861
4407071725
4407079171
4407088815
4407097909
4407107919
4407114511
4407123605
4407132150
4407139901
4407149484
4407155587
4407163644
4407169625
4407179818
4407189095
4407197274
4407205453
4407211312
4407220956
4407228890
4407235726
4407245126
4407253548
4407262582
4407269540
4407276925
4407285531
4407293099
4407299935
4407305489
4407316292
4407323556
4407331673
4407338082
4407345284
4407355538
4407362923
4407370125
4407378609
4407386544
4407395272
4407408455
4407419686
4407429634
4407435067
4407452156
4407465401
4407480110
4407489876
4407499581
4407505562
4407517403
4407524971
4407532662
4407539742
4407549751
4407555183
4407566353
4407574898
4407583198
4407586067
4407592964
4407598213
4407603096
4407607918
4407613045
4407616890
4407621528
4407626411
4407631233
4407635628
4407641487
4407645881
4407649605
4407654304
4407658272
4407665352
4407669746
4407676765
4407680610
4407685554
4407690498
4407696113
4407701423
4407708259
4407713020
4407717353
4407723701
4407726265
4407732429
4407735115
4407742256
4407746711
4407753120
4407758430
4407763435
4407767524
4407771247
4407776191
4407781257
4407787788
4407790534
4407795905
4407800849
4407805427
4407810371
4407815193
4407819953
4407825141
4407828742
4407833259
4407838630
4407843757
4407847541
4407853950
4407859260
4407863227
4407868354
4407872565
4407877143
4407880927
4407886603
4407892280
4407896857
4407900519
4407907905
4407914191
4407918647
4407923041
4407929145
4407934577
4407938483
4407944587
4407949470
4407955512
4407964057
4407971198
4407975776
4407979682
4407985663
4407989692
4407994208
4407999762
4408005256
4408010993
4408014106
4408019904
4408024115
4408028998
4408034369
4408038886
4408043647
4408051703
4408056037
4408062079
4408067389
4408072394
4408077094
4408082282
4408087897
4408092108
4408097968
4408102057
4408105170
4408112738
4408119086
4408124335
4408130805
4408136481
4408140570
4408145819
4408150824
4408156012
4408157782
4408165594
4408171942
4408177435
4408181830
4408187506
4408192511
4408196356
4408202276
4408206793
4408213202
4408218878
4408224066
4408229010
4408234015
4408238836
4408243780
4408249151
4408253180
4408258307
4408263128
4408267889
4408272589
4408276678
4408281561
4408287176
4408292425
4408297674
4408301703
4408306829
4408311468
4408316717
4408320379
4408326178
4408331915
4408337042
4408341070
4408346380
4408351873
4408355230
4408363287
4408372381
4408381231
4408393560
4408400274
4408409124
4408413641
4408419500
4408425543
4408430730
4408436163
4408440984
4408445379
4408450567
4408455083
4408461675
4408466680
4408471380
4408476079
4408483831
4408488225
4408496038
4408499517
4408507696
4408514471
4408518804
4408524053
4408529363
4408534917
4408538823
4408545110
4408549199
4408553167
4408561040
4408566900
4408571477
4408574834
4408581731
4408585088
4408591253
4408597356
4408603215
4408607976
4408614385
4408617559
4408623418
4408627996
4408633489
4408638921
4408644292
4408650701
4408656133
4408660710
4408664800
4408669499
4408675481
4408680242
4408689458
4408695500
4408703069
4408713628
4408720097
4408727300
4408732671
4408739629
4408743779
4408749150
4408754887
4408758733
4408764287
4408768986
4408774846
4408779301
4408784611
4408790715
4408795964
4408800725
4408805913
4408814213
4408820561
4408824284
4408831608
4408839726
4408847477
4408851384
4408857182
4408861027
4408866887
4408869999
4408876530
4408879582
4408885685
4408892521
4408897343
4408903386
4408908818
4408917179
4408923832
4408929570
4408934147
4408940922
4408943730
4408950138
4408955265
4408959904
4408964909
4408968571
4408976444
4408980717
4408987980
4408992191
4408997868
4409003483
4409009037
4409014164
4409025883
4409034794
4409043705
4409049870
4409058537
4409066959
4409073551
4409083195
4409094547
4409106937
4409116520
4409127506
4409138126
4409151066
4409163944
4409176944
4409187503
4409197696
4409208561
4409219364
4409230716
4409241092
4409252323
4409261905
4409276248
4409285709
4409295902
4409307010
4409317874
4409328372
4409338077
4409348514
4409359317
4409369083
4409379092
4409391238
4409400821
4409411746
4409421329
4409432864
4409444461
4409454165
4409465030
4409475345
4409485476
4409495181
4409504946
4409515139
4409524966
4409536318
4409546511
4409555422
4409568179
4409578005
4409588748
4409598025
4409609316
4409619631
4409629336
4409641360
4409651308
4409662173
4409672854
4409683840
4409697268
4409707216
4409716982
4409728335
4409736269
4409751223
4409767153
4409781252
4409794191
4409807924
4409821108
4409836428
4409850649
4409864076
4409877321
4409892153
4409905702
4409919679
4409932191
4409947877
4409964906
4409977968
4409988466
4410002992
4410018373
4410031923
4410045411
4410066774
4410082887
4410098085
4410112184
4410127748
4410142396
4410156861
4410170594
4410183412
4410194520
4410209779
4410225098
4410239381
4410255067
4410264954
4410278077
4410287476
4410303834
4410314515
4410326600
4410337647
4410346802
4410361756
4410369324
4410388123
4410398438
4410406983
4410418335
4410437928
4410456116
4410478699
4410499390
4410520325
4410541992
4410561401
4410582764
4410595581
4410605713
4410617798
4410626831
4410638855
4410649048
4410659912
4410671814
4410681457
4410695251
4410706420
4410716980
4410727417
4410737731
4410749755
4410762329
4410773193
4410784728
4410794189
4410806396
4410826232
4410837890
4410850097
4410859618
4410869811
4410880187
4410891418
4410903197
4410913573
4410923827
4410934569
4410944335
4410954650
4410965819
4410975585
4410990477
4411004576
4411021117
4411036925
4411054747
4411069029
4411082091
4411095763
4411109129
4411123595
4411137450
4411149840
4411161986
4411172484
4411183531
4411198240
4411210509
4411220762
4411232054
4411242491
4411253050
4411263853
4411275755
4411289427
4411301512
4411309446
4411317015
4411324217
4411333921
4411342893
4411350889
4411361387
4411369444
4411377073
4411384031
4411391538
4411398863
4411406004
4411414243
4411421323
4411428281
4411434080
4411442075
4411451170
4411459898
4411466672
4411472593
4411480772
4411487241
4411495237
4411504575
4411511838
4411518308
4411525937
4411532224
4411540098
4411546994
4411555112
4411561704
4411568235
4411575498
4411582151
4411589536
4411595945
4411602475
4411610654
4411620481
4411628232
4411634580
4411641660
4411649472
4411653989
4411663571
4411669614
4411676694
4411683713
4411691403
4411698361
4411706845
4411714230
4411718381
4411728391
4411735043
4411741818
4411749387
4411756039
4411762875
4411768735
4411777219
4411783444
4411791867
4411796383
4411804989
4411813717
4411821652
4411826291
4411836789
4411844296
4411851925
4411861630
4411868405
4411874875
4411884701
4411891110
4411897824
4411908017
4411915280
4411923336
4411933468
4411941281
4411950131
4411957577
4411964962
4411972286
4411980343
4411988461
4411996761
4412005673
4412010983
4412020443
4412029354
4412037533
4412046139
4412054989
4412062679
4412069027
4412077022
4412084225
4412092220
4412100155
4412107723
4412117061
4412123836
4412136348
4412151363
4412158260
4412166134
4412173641
4412181820
4412189449
4412196041
4412204097
4412209896
4412218868
4412224727
4412233760
4412240718
4412248287
4412257625
4412267940
4412275081
4412282405
4412289607
4412297054
4412304927
4412311885
4412318599
4412327998
4412337215
4412343257
4412352046
4412359676
4412368281
4412376948
4412384151
4412390193
4412398860
4412403499
4412413020
4412421809
4412427730
4412436274
4412441646
4412446528
4412449763
4412456355
4412460017
4412465815
4412471797
4412475642
4412478389
4412484614
4412489497
4412494319
4412498774
4412502925
4412508723
4412513118
4412517329
4412521601
4412526667
4412531794
4412537654
4412543818
4412549433
4412552973
4412558589
4412561213
4412567683
4412573786
4412578364
4412584589
4412588801
4412594355
4412598994
4412604487
4412608149
4412615473
4412620173
4412624995
4412629389
4412633234
4412638544
4412644892
4412650507
4412654963
4412660639
4412665400
4412670893
4412675226
4412681269
4412685602
4412692805
4412698847
4412702936
4412708063
4412712275
4412716181
4412721796
4412726374
4412731806
4412735163
4412742365
4412745417
4412751581
4412755915
4412762507
4412768732
4412774469
4412779474
4412784845
4412790644
4412795038
4412798944
4412805536
4412809870
4412815790
4412820124
4412825373
4412833734
4412841364
4412850946
4412858820
4412865778
4412877496
4412885065
4412893610
4412900629
4412908197
4412917719
4412928400
4412938592
4412952814
4412963434
4412976312
4412986261
4412992975
4412998590
4413003778
4413008722
4413014154
4413018609
4413023797
4413029046
4413033502
4413038446
4413044976
4413050409
4413055475
4413060785
4413065850
4413071527
4413076165
4413081536
4413085809
4413096795
4413102471
4413106683
4413111993
4413116937
4413122125
4413125665
4413134454
4413139153
4413145684
4413151849
4413156426
4413162713
4413166863
4413173333
4413177606
4413184625
4413189568
4413195001
4413199517
4413206841
4413213982
4413219903
4413224297
4413229363
4413236626
4413240716
4413245965
4413251275
4413255730
4413261651
4413267571
4413272942
4413277093
4413282891
4413287896
4413292290
4413296929
4413300774
4413305840
4413309258
4413316155
4413323296
4413327019
4413331902
4413337334
4413344231
4413351555
4413356560
4413363335
4413368340
4413374077
4413379143
4413384087
4413389946
4413394646
4413402214
4413408135
4413413018
4413417595
4413424248
4413429619
4413434014
4413438408
4413444390
4413450005
4413455193
4413460564
4413464836
4413471001
4413476860
4413482536
4413487969
4413493584
4413497917
4413503655
4413509575
4413513481
4413517998
4413523796
4413528984
4413535698
4413541313
4413546501
4413549614
4413555473
4413559868
4413566582
4413572075
4413578056
4413582817
4413588493
4413593376
4413599235
4413603569
4413609123
4413613823
4413621513
4413627739
4413634391
4413639946
4413646537
4413652031
4413658317
4413663261
4413670097
4413675529
4413681266
4413685722
4413692680
4413697013
4413703117
4413709770
4413717155
4413721672
4413727287
4413732719
4413738456
4413742790
4413747978
4413754203
4413760002
4413766166
4413772270
4413776969
4413783500
4413789420
4413794181
4413799552
4413806571
4413810783
4413816825
4413820853
4413825614
4413830802
4413835502
4413839957
4413846183
4413852286
4413863273
4413868217
4413874625
4413879874
4413885673
4413890677
4413895804
4413900870
4413905326
4413911307
4413916373
4413921622
4413928275
4413932608
4413937735
4413943107
4413948356
4413953727
4413956717
4413963736
4413968680
4413978446
4413981375
4413989127
4413992545
4413999747
4414003043
4414009635
4414014273
4414022025
4414027091
4414035025
4414048941
4414060843
4414068472
4414091483
4414101675
4414108694
4414114859
4414120169
4414125479
4414130423
4414134573
4414142447
4414147208
4414152884
4414158377
4414164480
4414170523
4414176504
4414181753
4414186514
4414193655
4414203055
4414208365
4414215384
4414223440
4414229055
4414234488
4414240408
4414245413
4414249807
4414256704
4414262564
4414269522
4414279226
4414285574
4414297232
4414305410
4414317495
4414324575
4414330374
4414338003
4414343374
4414348745
4414353933
4414358022
4414363943
4414369741
4414375478
4414380178
4414384756
4414390066
4414395681
4414401235
4414405325
4414409780
4414414602
4414418508
4414423452
4414427541
4414434194
4414439992
4414444204
4414449758
4414455617
4414461355
4414465810
4414470876
4414476919
4414482351
4414488149
4414496755
4414503591
4414512624
4414526296
4414536184
4414543142
4414548208
4414553273
4414557546
4414564016
4414565541
4414573232
4414580312
4414584829
4414591115
4414596486
4414601918
4414607289
4414611074
4414616872
4414622121
4414626821
4414631093
4414641835
4414650868
4414659169
4414664662
4414676625
4414684316
4414692921
4414713734
4414736195
4414755177
4414774586
4414789479
4414797658
4414805409
4414812062
4414820118
4414829152
4414835560
4414844593
4414851735
4414859364
4414866932
4414874562
4414882252
4414889210
4414898060
4414905323
4414913014
4414923268
4414942494
4414955128
4414963429
4414971119
4414978138
4414986012
4414993885
4415000599
4415008778
4415016407
4415023426
4415031055
4415037952
4415047291
4415054859
4415061634
4415068348
4415075855
4415082691
4415089588
4415096119
4415104114
4415109607
4415117115
4415124134
4415131275
4415135791
4415144336
4415153064
4415159839
4415168628
4415174732
4415182972
4415187732
4415197742
4415206958
4415212512
4415220813
4415227344
4415234424
4415243396
4415249927
4415259754
4415266162
4415274402
4415280933
4415289722
4415298145
4415306934
4415314868
4415320972
4415331836
4415339648
4415348010
4415361560
4415371142
4415388049
4415402209
4415413745
4415421618
4415429309
4415437610
4415446582
4415453357
4415461535
4415468615
4415477160
4415485400
4415494006
4415501269
4415507861
4415515307
4415522265
4415530749
4415539965
4415546008
4415550890
4415557421
4415564623
4415569445
4415576403
4415587023
4415592822
4415598620
4415604357
4415609789
4415614306
4415620226
4415625719
4415630907
4415635973
4415641894
4415647631
4415651842
4415657519
4415661486
4415667528
4415671801
4415677782
4415682055
4415687487
4415691759
4415696520
4415701464
4415706591
4415710314
4415718065
4415722460
4415727037
4415731615
4415736071
4415740038
4415744677
4415750780
4415754198
4415758837
4415763720
4415768236
4415773058
4415777513
4415781420
4415786425
4415790331
4415795214
4415798998
4415804125
4415807970
4415813158
4415817797
4415823778
4415828600
4415833055
4415835680
4415841722
4415844286
4415850511
4415855211
4415860765
4415865282
4415870775
4415874681
4415879503
4415885728
4415890184
4415897081
4415901231
4415907091
4415911302
4415916856
4415921312
4415926134
4415932176
4415937364
4415942247
4415948534
4415953355
4415958909
4415962816
4415968492
4415972581
4415979906
4415984788
4415989793
4415994066
4416000474
4416004442
4416010179
4416014207
4416021043
4416027147
4416032212
4416036668
4416041856
4416047410
4416050767
4416057786
4416061876
4416069993
4416073045
4416080674
4416084397
4416091844
4416095140
4416102159
4416109605
4416115403
4416122300
4416126634
4416132676
4416136643
4416142381
4416148057
4416153367
4416160935
4416167161
4416172349
4416178147
4416183518
4416189195
4416194688
4416200486
4416206284
4416210130
4416214707
4416219651
4416222642
4416229295
4416234421
4416239487
4416242844
4416248765
4416254014
4416258958
4416263657
4416267563
4416273484
4416280808
4416283921
4416291123
4416296311
4416300522
4416305222
4416311020
4416316514
4416322312
4416327317
4416332749
4416338425
4416343369
4416347336
4416353196
4416357956
4416366074
4416372666
4416377182
4416381516
4416388596
4416392868
4416398178
4416403855
4416410324
4416416550
4416420090
4416427597
4416431015
4416436936
4416441757
4416448349
4416453476
4416460190
4416465378
4416471664
4416477036
4416482468
4416486740
4416492661
4416496994
4416503891
4416508408
4416511703
4416519150
4416522446
4416529159
4416534042
4416539902
4416544906
4416551803
4416556869
4416562240
4416567489
4416573288
4416580856
4416585434
4416590256
4416598373
4416603378
4416609665
4416615646
4416621261
4416625839
4416629196
4416637313
4416642440
4416648422
4416655563
4416660263
4416663864
4416671066
4416675949
4416683395
4416689071
4416695175
4416700485
4416705551
4416712509
4416717269
4416723251
4416728439
4416735031
4416741622
4416746810
4416752242
4416758407
4416760543
4416769210
4416772933
4416779159
4416784652
4416792770
4416796981
4416804000
4416808883
4416814315
4416818710
4416824447
4416828780
4416835494
4416841659
4416846358
4416851974
4416856673
4416862594
4416865890
4416872848
4416876571
4416884261
4416890304
4416897933
4416903853
4416910201
4416916366
4416921004
4416928145
4416933699
4416939498
4416945113
4416950362
4416954695
4416960372
4416966292
4416972213
4416978316
4416982588
4416988692
4416992720
4416998946
4417003768
4417009871
4417015608
4417023299
4417027693
4417034773
4417040022
4417044844
4417049727
4417056868
4417061751
4417069319
4417074202
4417077803
4417085982
4417089705
4417096724
4417102156
4417108565
4417116988
4417124678
4417134566
4417144820
4417152754
4417162031
4417169783
4417179609
4417187117
4417197676
4417206831
4417213728
4417225447
4417233076
4417240705
4417246504
4417252302
4417257124
4417263166
4417267683
4417272871
4417277449
4417282148
4417287397
4417292951
4417297529
4417302961
4417307539
4417312544
4417317732
4417323225
4417327192
4417333112
4417336958
4417341352
4417345564
4417351423
4417354841
4417362775
4417367475
4417372541
4417377973
4417383100
4417387373
4417392561
4417396711
4417400434
4417405683
4417410688
4417416120
4417420209
4417424848
4417430219
4417435102
4417439558
4417443098
4417448408
4417453596
4417457929
4417463483
4417470197
4417476484
4417484296
4417492841
4417500165
4417507245
4417512067
4417518049
4417521711
4417526593
4417530622
4417536359
4417540815
4417545209
4417550946
4417555585
4417558942
4417563337
4417568158
4417572858
4417577558
4417583905
4417591352
4417595136
4417599713
4417604962
4417610700
4417614850
4417620404
4417625836
4417631452
4417636884
4417641705
4417645673
4417648724
4417656354
4417661481
4417666913
4417670453
4417677106
4417683331
4417687299
4417691632
4417697247
4417701886
4417707196
4417712384
4417718915
4417724347
4417730694
4417735455
4417740887
4417745526
4417751996
4417757123
4417762372
4417767682
4417774090
4417778912
4417783551
4417788861
4417793133
4417797528
4417805035
4417809552
4417816449
4417821698
4417827130
4417831524
4417837140
4417842083
4417849163
4417854351
4417860638
4417865643
4417870831
4417874798
4417880841
4417885235
4417891644
4417897991
4417901959
4417907147
4417912701
4417916668
4417922772
4417928875
4417933575
4417939739
4417944012
4417947918
4417954449
4417958538
4417963665
4417969341
4417975811
4417979961
4417985271
4417991131
4417996624
4418000896
4418004436
4418012615
4418016888
4418024761
4418030559
4418034771
4418039715
4418046123
4418050945
4418056011
4418060589
4418068584
4418073711
4418079143
4418083782
4418089397
4418095195
4418100567
4418104839
4418113506
4418118145
4418129619
4418136150
4418140239
4418145916
4418151470
4418157695
4418162700
4418168376
4418174175
4418179546
4418187541
4418192119
4418197734
4418202922
4418209636
4418214580
4418220622
4418225566
4418231853
4418236308
4418241435
4418246074
4418253093
4418258708
4418265422
4418270671
4418275920
4418282695
4418287273
4418291911
4418300578
4418305522
4418311870
4418316630
4418321391
4418327190
4418333781
4418338603
4418343303
4418352153
4418356486
4418365031
4418371074
4418377055
4418379191
4418390117
4418395060
4418399699
4418406962
4418411845
4418417277
4418421916
4418428935
4418436503
4418442485
4418447673
4418453654
4418459574
4418465556
4418470561
4418474955
4418481242
4418486186
4418492289
4418496928
4418503031
4418508097
4418513896
4418518473
4418526042
4418531413
4418536967
4418540873
4418545878
4418551554
4418557169
4418561564
4418568522
4418573161
4418579630
4418584025
4418590006
4418594218
4418599039
4418605326
4418610758
4418619364
4418623087
4418629191
4418634012
4418639811
4418644633
4418649821
4418654154
4418662089
4418666910
4418673807
4418678141
4418684427
4418688761
4418692240
4418700235
4418705240
4418711344
4418714640
4418722574
4418726664
4418735392
4418739603
4418748453
4418754007
4418761515
4418767923
4418774881
4418777262
4418787271
4418791239
4418798990
4418803263
4418811075
4418816324
4418821451
4418826273
4418833231
4418838114
4418842020
4418850809
4418857095
4418864114
4418867838
4418876382
4418880228
4418886758
4418892191
4418898538
4418904642
4418910257
4418915811
4418923685
4418928689
4418933877
4418940530
4418944314
4418951578
4418958352
4418966226
4418970071
4418977945
4418983255
4418989114
4418993936
4418999246
4419003946
4419013467
4419019082
4419023721
4419029947
4419034585
4419040689
4419045571
4419051675
4419055825
4419064187
4419069253
4419075051
4419083901
4419094338
4419100747
4419105447
4419107644
4419121865
4419133645
4419138833
4419146462
4419149880
4419156533
4419160439
4419168191
4419173989
4419180032
4419185342
4419191933
4419198586
4419203225
4419210244
4419215066
4419222756
4419227639
4419233681
4419238747
4419244607
4419250222
4419256997
4419262368
4419268044
4419274697
4419281045
4419286171
4419293313
4419297707
4419304421
4419310463
4419315407
4419320168
4419325722
4419330727
4419337380
4419344155
4419350624
4419360329
4419367043
4419377907
4419385292
4419392372
4419401039
4419408547
4419415993
4419423622
4419430275
4419435768
4419442787
4419448341
4419453774
4419458534
4419462807
4419466774
4419472511
4419477272
4419482887
4419488014
4419492043
4419496864
4419501686
4419506569
4419511085
4419517616
4419523231
4419527626
4419529762
4419536781
4419542152
4419546791
4419551918
4419556862
4419562050
4419568031
4419573890
4419577919
4419583839
4419590858
4419595863
4419600563
4419605079
4419609657
4419615760
4419620216
4419625343
4419630348
4419635109
4419638343
4419643531
4419648170
4419653175
4419657691
4419664649
4419668373
4419672950
4419677284
4419681678
4419686988
4419690162
4419695289
4419700111
4419705665
4419709449
4419715003
4419718726
4419724830
4419728919
4419736488
4419741065
4419746864
4419752540
4419757484
4419763221
4419768409
4419772681
4419779945
4419784888
4419789588
4419795570
4419801002
4419805518
4419811317
4419815955
4419824805
4419829993
4419834693
4419840430
4419845679
4419849586
4419855445
4419859717
4419868201
4419872657
4419879004
4419885413
4419890296
4419896705
4419901221
4419905555
4419912696
4419916846
4419922889
4419927161
4419932715
4419939063
4419944068
4419950110
4419956092
4419962500
4419968299
4419974524
4419976416
4419984717
4419988867
4419995032
4420000586
4420006445
4420011939
4420019080
4420023963
4420028906
4420033240
4420040259
4420044959
4420053992
4420059241
4420065833
4420070349
4420077612
4420082129
4420087866
4420092444
4420099341
4420105566
4420112707
4420117041
4420122900
4420128454
4420133459
4420137976
4420146277
4420151587
4420157141
4420161474
4420167395
4420177588
4420182409
4420186499
4420192907
4420198095
4420203833
4420208288
4420213232
4420218969
4420223242
4420229223
4420235388
4420239965
4420246374
4420250708
4420256689
4420262854
4420268408
4420273779
4420279333
4420285009
4420289770
4420293859
4420296972
4420304540
4420307775
4420315161
4420318762
4420326940
4420330541
4420336950
4420345068
4420355383
4420364233
4420371008
4420379430
4420387975
4420392980
4420400610
4420406469
4420412023
4420415136
4420422399
4420425817
4420433324
4420440343
4420444494
4420450902
4420457006
4420462072
4420467748
4420472020
4420479833
4420486913
4420492772
4420497472
4420505162
4420508641
4420518224
4420524266
4420534764
4420545690
4420553990
4420562657
