4287289805
4287295909
4287301402
4287307078
4287312754
4287317576
4287322520
4287328135
4287335032
4287341807
4287347178
4287352976
4287358164
4287365061
4287369822
4287376353
4287383128
4287388499
4287395152
4287400889
4287408518
4287414378
4287418955
4287424937
4287431956
4287438731
4287445628
4287452158
4287458018
4287464976
4287471140
4287479563
4287485789
4287493357
4287500376
4287507212
4287513193
4287521616
4287528269
4287533945
4287541941
4287547129
4287555185
4287562510
4287570566
4287576426
4287585520
4287591867
4287598276
4287605356
4287613657
4287620737
4287628550
4287634958
4287641062
4287649790
4287655832
4287664865
4287671396
4287679392
4287685800
4287693369
4287699289
4287706979
4287715524
4287721567
4287726999
4287733347
4287740976
4287746957
4287754587
4287762827
4287769479
4287776132
4287783762
4287790292
4287795663
4287803720
4287810312
4287819101
4287825876
4287834298
4287839853
4287846505
4287853830
4287860299
4287868295
4287876352
4287882699
4287888803
4287896188
4287902047
4287907968
4287915414
4287922738
4287930856
4287937936
4287943002
4287951547
4287958749
4287967355
4287973641
4287982186
4287989511
4287995675
4288002755
4288011544
4288018502
4288025277
4288032906
4288040902
4288047433
4288054879
4288061227
4288068185
4288074776
4288082406
4288091073
4288098153
4288104195
4288111092
4288118722
4288124276
4288131844
4288138619
4288146737
4288153695
4288160592
4288167122
4288174813
4288181038
4288189461
4288198067
4288204049
4288210396
4288218209
4288224678
4288232125
4288238594
4288244942
4288253426
4288258858
4288267220
4288274361
4288280098
4288287178
4288296761
4288304756
4288314949
4288322945
4288330574
4288337532
4288344063
4288350655
4288359444
4288369148
4288374702
4288383186
4288389839
4288397835
4288404426
4288410469
4288417976
4288425850
4288433296
4288440803
4288449104
4288454719
4288463264
4288470405
4288478157
4288484443
4288493049
4288501594
4288507331
4288513984
4288522163
4288529121
4288535530
4288544075
4288550483
4288558662
4288563484
4288571601
4288577827
4288585456
4288592292
4288599983
4288606391
4288614875
4288621467
4288626411
4288633003
4288641792
4288648139
4288653938
4288660407
4288667487
4288673957
4288683173
4288691352
4288698676
4288705390
4288712409
4288719367
4288725409
4288734199
4288741401
4288747931
4288756965
4288762092
4288770697
4288777716
4288783820
4288791694
4288799567
4288807318
4288813361
4288821234
4288827399
4288834906
4288841071
4288847907
4288856146
4288862921
4288870551
4288877387
4288884589
4288891486
4288898261
4288907660
4288914069
4288920783
4288928656
4288935431
4288941718
4288950201
4288956488
4288966437
4288974005
4288983832
4288993353
4289001410
4289009772
4289021490
4289028876
4289037542
4289044439
4289052801
4289059149
4289065130
4289076056
4289082342
4289090582
4289097174
4289103765
4289110357
4289116949
4289124456
4289133367
4289139471
4289145086
4289151922
4289159368
4289166204
4289172491
4289179876
4289188299
4289196050
4289203619
4289211126
4289220403
4289228582
4289235967
4289240789
4289245123
4289249456
4289253728
4289258184
4289262945
4289267400
4289271734
4289276311
4289280157
4289284917
4289288946
4289292913
4289296880
4289301580
4289306646
4289310674
4289314580
4289318426
4289322515
4289326421
4289330266
4289337102
4289341253
4289346074
4289349309
4289353826
4289358220
4289364507
4289371587
4289375921
4289379827
4289383672
4289388433
4289392339
4289396550
4289401433
4289406621
4289410772
4289415044
4289419072
4289422917
4289426824
4289431096
4289438848
4289443242
4289447515
4289451177
4289455144
4289458928
4289463872
4289468511
4289472783
4289477788
4289483281
4289487737
4289491948
4289497380
4289504277
4289509160
4289513249
4289519841
4289525151
4289529668
4289534612
4289539861
4289542729
4289547673
4289552861
4289556584
4289562138
4289565556
4289570195
4289574345
4289579838
4289584843
4289589482
4289593693
4289597661
4289602605
4289607365
4289612553
4289617192
4289621281
4289626042
4289629948
4289633122
4289636845
4289641850
4289646794
4289651494
4289656071
4289660710
4289665471
4289669255
4289672917
4289679997
4289684636
4289691166
4289693852
4289699406
4289703129
4289708317
4289712529
4289717778
4289722050
4289729008
4289733341
4289737736
4289743046
4289746891
4289751042
4289757511
4289761601
4289766789
4289771305
4289776493
4289780461
4289786198
4289790592
4289795414
4289800907
4289805302
4289810124
4289815434
4289820805
4289824039
4289830265
4289835758
4289841923
4289846378
4289852360
4289857426
4289862186
4289868961
4289871708
4289879642
4289885746
4289890507
4289894962
4289899723
4289905582
4289910343
4289914615
4289920231
4289926029
4289931095
4289935978
4289940983
4289945377
4289950382
4289954838
4289961490
4289965458
4289973636
4289978031
4289984134
4289989750
4289995304
4290001346
4290007572
4290012210
4290017643
4290022037
4290028446
4290033634
4290036319
4290042362
4290047061
4290052616
4290057376
4290061344
4290065616
4290070316
4290075137
4290080753
4290084964
4290091495
4290095340
4290100101
4290105350
4290110233
4290114444
4290121219
4290127017
4290132144
4290135867
4290140567
4290145145
4290149600
4290154178
4290159366
4290165164
4290170230
4290175845
4290182742
4290190311
4290197513
4290207095
4290217410
4290227359
4290231021
4290238223
4290243716
4290248965
4290254702
4290260013
4290264956
4290271670
4290276919
4290281253
4290286197
4290290530
4290295230
4290300357
4290305484
4290310855
4290315615
4290320559
4290325015
4290329837
4290334231
4290341433
4290346255
4290351748
4290354434
4290361514
4290364810
4290370669
4290374392
4290382571
4290387148
4290392581
4290398989
4290404726
4290410647
4290416811
4290420290
4290430422
4290433230
4290440310
4290444826
4290449709
4290454897
4290457827
4290462282
4290468935
4290475649
4290481020
4290486208
4290492373
4290496950
4290505678
4290512697
4290519228
4290527102
4290532351
4290540712
4290546633
4290551760
4290557802
4290560671
4290569826
4290574770
4290580629
4290592165
4290596926
4290602846
4290607973
4290612856
4290618593
4290623293
4290629579
4290634889
4290639223
4290643984
4290650759
4290656618
4290661196
4290667299
4290671022
4290676821
4290681093
4290685671
4290690187
4290697450
4290701051
4290705690
4290711733
4290716676
4290722170
4290726869
4290734743
4290740724
4290745363
4290750978
4290755983
4290760744
4290768251
4290773256
4290777894
4290782594
4290788209
4290793947
4290798524
4290803224
4290809328
4290815858
4290820070
4290827699
4290832216
4290836915
4290842042
4290848390
4290853761
4290860109
4290866884
4290870546
4290877076
4290883851
4290889405
4290895143
4290900758
4290906434
4290911134
4290916749
4290922792
4290925843
4290933778
4290938478
4290943177
4290948426
4290953187
4290959046
4290964601
4290971559
4290976991
4290981141
4290986146
4290991761
4290997010
4291002869
4291008973
4291015748
4291024171
4291030091
4291039246
4291044801
4291054810
4291063233
4291070924
4291077637
4291084412
4291089661
4291095765
4291099793
4291104981
4291109192
4291114319
4291118775
4291123169
4291128235
4291133851
4291138855
4291143067
4291148377
4291152771
4291156861
4291161377
4291165772
4291171082
4291174866
4291179444
4291184571
4291189515
4291193909
4291199524
4291204529
4291208802
4291214478
4291218811
4291223572
4291228577
4291233094
4291238159
4291243897
4291247864
4291253540
4291257324
4291263001
4291266968
4291271485
4291276184
4291281067
4291285889
4291292236
4291296387
4291301880
4291307190
4291312500
4291318420
4291323853
4291329468
4291333435
4291339111
4291344543
4291349060
4291354065
4291358032
4291365112
4291369629
4291377136
4291381714
4291386902
4291392151
4291397217
4291401977
4291408935
4291412597
4291417541
4291422912
4291428222
4291432739
4291437561
4291443664
4291449035
4291454467
4291458679
4291464904
4291468750
4291473510
4291479797
4291485473
4291490600
4291496887
4291502136
4291506713
4291511901
4291518493
4291527282
4291532470
4291542724
4291548461
4291553955
4291559631
4291564086
4291570739
4291575195
4291581176
4291586669
4291591064
4291596313
4291600219
4291605468
4291609252
4291614257
4291619567
4291624206
4291629089
4291634704
4291638183
4291644775
4291649596
4291653747
4291658752
4291663573
4291669738
4291673827
4291681029
4291685668
4291690368
4291696044
4291701537
4291705688
4291710692
4291715148
4291722594
4291727843
4291731994
4291737365
4291743651
4291748046
4291752623
4291760070
4291764891
4291769774
4291775389
4291780211
4291785949
4291790709
4291798217
4291802062
4291808409
4291812682
4291819762
4291824706
4291830260
4291836180
4291840392
4291846312
4291851500
4291856139
4291861510
4291866454
4291871214
4291876158
4291881285
4291888060
4291891844
4291898436
4291903502
4291908995
4291913023
4291918517
4291923094
4291928770
4291934935
4291938475
4291944762
4291950072
4291955015
4291960264
4291965086
4291969054
4291977537
4291982847
4291988157
4291993101
4291998594
4292003172
4292008726
4292014219
4292020933
4292026732
4292031859
4292036802
4292044920
4292047422
4292054625
4292060484
4292066710
4292074339
4292080137
4292085081
4292089537
4292095213
4292101133
4292107176
4292114256
4292120420
4292125486
4292129820
4292135679
4292140013
4292145017
4292150999
4292155699
4292161619
4292166868
4292171690
4292177732
4292182432
4292187681
4292192381
4292198179
4292204221
4292209165
4292213804
4292217832
4292224302
4292229185
4292233640
4292237363
4292243894
4292247617
4292254148
4292258604
4292264097
4292266904
4292273923
4292278135
4292288022
4292293210
4292296689
4292303708
4292306943
4292312009
4292317746
4292322629
4292328000
4292335325
4292340818
4292345762
4292349729
4292356992
4292361753
4292367246
4292372739
4292379331
4292384336
4292389890
4292392759
4292398618
4292405637
4292411130
4292415525
4292421262
4292428037
4292433347
4292438535
4292444638
4292449887
4292454648
4292460202
4292465878
4292471127
4292478024
4292483212
4292487363
4292494138
4292498410
4292504025
4292507504
4292514890
4292520322
4292527036
4292531979
4292537106
4292542355
4292548947
4292554318
4292562131
4292570737
4292576413
4292582883
4292589474
4292598080
4292605099
4292610776
4292620053
4292631039
4292638669
4292650204
4292654293
4292665890
4292675839
4292685055
4292694332
4292702206
4292712826
4292721798
4292731808
4292740353
4292748654
4292756344
4292763058
4292770016
4292777645
4292785336
4292792843
4292800900
4292806332
4292811703
4292821468
4292827877
4292835201
4292841793
4292848202
4292855831
4292861507
4292868404
4292874386
4292882137
4292888058
4292896297
4292902645
4292908504
4292917110
4292924679
4292932125
4292938656
4292946285
4292952999
4292957332
4292965389
4292969905
4292980526
4292988155
4292993282
4293002864
4293008724
4293015193
4293023372
4293028926
4293036678
4293045467
4293053523
4293059078
4293067867
4293072505
4293082637
4293088496
4293094295
4293102473
4293108516
4293118037
4293122981
4293130916
4293138423
4293145137
4293151179
4293155574
4293164973
4293172236
4293177424
4293186091
4293194087
4293200313
4293206660
4293213862
4293221248
4293225703
4293233516
4293239436
4293249690
4293256648
4293263179
4293270259
4293277339
4293282344
4293290400
4293296015
4293301936
4293308650
4293318049
4293325617
4293330989
4293338069
4293345881
4293351191
4293356196
4293363947
4293370783
4293378962
4293385249
4293391230
4293397578
4293406245
4293413203
4293417963
4293425471
4293429438
4293439326
4293445795
4293451350
4293461970
4293469538
4293477411
4293484308
4293493525
4293499750
4293511164
4293519465
4293524592
4293533014
4293543207
4293549189
4293556025
4293562860
4293568781
4293576410
4293583429
4293588434
4293592340
4293598993
4293603632
4293608576
4293613703
4293619013
4293623407
4293628412
4293633844
4293639093
4293643427
4293648554
4293654657
4293661493
4293666132
4293670892
4293674494
4293680475
4293684747
4293691156
4293695551
4293702203
4293706415
4293712823
4293718744
4293722040
4293728815
4293734308
4293738641
4293744867
4293750177
4293757257
4293763483
4293769098
4293774408
4293779107
4293784662
4293789117
4293795038
4293800958
4293806573
4293811822
4293817560
4293821832
4293826532
4293831537
4293838311
4293845514
4293850335
4293855706
4293862054
4293868890
4293873956
4293879937
4293889520
4293894769
4293897882
4293902337
4293909539
4293915521
4293921075
4293926080
4293932122
4293936822
4293943597
4293948358
4293953851
4293959161
4293964593
4293967828
4293975884
4293981927
4293989129
4293995293
4294001153
4294008294
4294015130
4294020867
4294027642
4294035088
4294043084
4294052178
4294058587
4294063103
4294073418
4294079095
4294086480
4294095696
4294100579
4294111260
4294119317
4294129570
4294136712
4294147515
4294153557
4294161980
4294167595
4294175835
4294183342
4294193535
4294202629
4294208428
4294214226
4294221184
4294227593
4294233757
4294238396
4294246330
4294252373
4294257866
4294262077
4294267021
4294271111
4294275993
4294282341
4294288811
4294292961
4294299431
4294303886
4294308830
4294313957
4294319756
4294324638
4294328972
4294336540
4294341789
4294347160
4294352836
4294358391
4294363823
4294367973
4294374443
4294380119
4294385002
4294390434
4294396965
4294403007
4294407402
4294413017
4294417289
4294423332
4294428459
4294434684
4294439750
4294445854
4294450492
4294455070
4294461784
4294465812
4294473808
4294477714
4294485160
4294490470
4294496147
4294500724
4294506340
4294509208
4294516715
4294521476
4294528190
4294532829
4294539115
4294544547
4294549980
4294555045
4294558830
4294567497
4294572929
4294578605
4294583366
4294589591
4294595451
4294599357
4294607169
4294612479
4294619682
4294624503
4294632438
4294636710
4294642264
4294648185
4294654105
4294658256
4294665519
4294671622
4294677726
4294681327
4294688224
4294695243
4294700614
4294706229
4294712027
4294717765
4294723075
4294728995
4294735587
4294743522
4294765006
4294771842
4294778189
4294783622
4294789908
4294795645
4294802725
4294808158
4294813285
4294819632
4294823966
4294829886
4294834281
4294839957
4294844046
4294848563
4294854849
4294860220
4294864737
4294871268
4294876090
4294881400
4294886343
4294891348
4294896414
4294903189
4294907950
4294913260
4294918021
4294923392
4294928641
4294933768
4294938467
4294943960
4294950369
4294954458
4294960928
4294966849
4294971915
4294977164
4294981497
4294986990
4294994620
4295000479
4295005301
4295012198
4295017202
4295022451
4295027517
4295032034
4295038870
4295042288
4295048635
4295052786
4295059500
4295063467
4295068960
4295075735
4295084036
4295088613
4295093618
4295098867
4295104238
4295109060
4295114370
4295120474
4295126577
4295131948
4295137380
4295140310
4295147634
4295153127
4295158743
4295163015
4295169119
4295175710
4295181387
4295186453
4295192251
4295196218
4295201040
4295206594
4295212514
4295217214
4295223257
4295229421
4295234853
4295240041
4295245107
4295249135
4295256399
4295261342
4295267080
4295273794
4295280019
4295284170
4295290822
4295294240
4295305044
4295312795
4295319875
4295330739
4295339711
4295348195
4295354726
4295363088
4295367299
4295379811
4295390065
4295396474
4295405385
4295413686
4295419545
4295426381
4295433156
4295438222
4295447743
4295454091
4295461110
4295466725
4295470693
4295477406
4295481618
4295488759
4295495290
4295499440
4295505849
4295511037
4295515797
4295525014
4295529896
4295536244
4295540700
4295547291
4295553212
4295557789
4295563161
4295567921
4295573781
4295578480
4295584950
4295591359
4295594777
4295601491
4295606617
4295611256
4295616383
4295620900
4295625172
4295631947
4295636952
4295641529
4295647450
4295652333
4295656971
4295662342
4295669117
4295674122
4295679188
4295684742
4295690846
4295696583
4295700917
4295706532
4295711476
4295717030
4295723805
4295729054
4295733875
4295738819
4295743641
4295748768
4295753163
4295761402
4295767017
4295772327
4295778309
4295782826
4295788136
4295792896
4295798389
4295803211
4295808216
4295814991
4295820362
4295823963
4295828236
4295833912
4295840443
4295844654
4295850330
4295854603
4295859485
4295865467
4295870045
4295874195
4295880482
4295887317
4295893360
4295900074
4295908680
4295913562
4295924427
4295932117
4295940418
4295950428
4295959034
4295967151
4295975940
4295981922
4295988880
4295995960
4296006092
4296014759
4296021472
4296030017
4296035205
4296042285
4296048389
4296055835
4296066821
4296074390
4296078357
4296085620
4296092578
4296101062
4296108081
4296113940
4296121265
4296128955
4296134448
4296140491
4296148974
4296156360
4296165210
4296172351
4296179492
4296188586
4296196521
4296205615
4296213977
4296220141
4296228625
4296237048
4296245715
4296253650
4296260730
4296266040
4296277331
4296286059
4296293994
4296300524
4296307421
4296312426
4296320056
4296327075
4296335436
4296342639
4296349597
4296357043
4296364916
4296372973
4296380053
4296388232
4296394579
4296400256
4296409167
4296413439
4296421740
4296429064
4296436632
4296444750
4296449328
4296456286
4296462328
4296469897
4296476244
4296483935
4296488329
4296496935
4296504320
4296510119
4296516527
4296524889
4296530260
4296537340
4296544420
4296551317
4296557054
4296569139
4296575487
4296581530
4296588060
4296595384
4296602342
4296607958
4296616442
4296622484
4296632433
4296638719
4296645250
4296652086
4296657396
4296665025
4296671190
4296675829
4296683946
4296692369
4296699693
4296705125
4296712999
4296721239
4296726488
4296734422
4296740953
4296749864
4296752183
4296768114
4296775316
4296783311
4296791612
4296799180
4296805650
4296812486
4296817369
4296824815
4296831407
4296842637
4296848741
4296858873
4296865403
4296870530
4296875901
4296881028
4296885911
4296892930
4296898118
4296903123
4296909349
4296914292
4296919908
4296925950
4296930650
4296936753
4296941514
4296946031
4296951951
4296956529
4296961533
4296966172
4296972398
4296977647
4296983384
4296987840
4296994370
4296999497
4297004441
4297011155
4297016770
4297023606
4297028855
4297033677
4297039292
4297046372
4297051255
4297056199
4297061997
4297067307
4297072922
4297078110
4297084092
4297090134
4297094956
4297100449
4297105393
4297112900
4297118149
4297123948
4297129075
4297134995
4297139450
4297143845
4297150132
4297155625
4297161057
4297167160
4297172653
4297177414
4297183213
4297188889
4297194321
4297198410
4297207077
4297211838
4297217575
4297223068
4297226731
4297232285
4297238510
4297243820
4297250351
4297255722
4297261765
4297267502
4297273300
4297279526
4297286972
4297294113
4297302841
4297309372
4297316208
4297321762
4297329513
4297333542
4297340378
4297347641
4297354599
4297363693
4297372238
4297380722
4297387436
4297397629
4297402939
4297409530
4297419540
4297425155
4297435653
4297449020
4297457199
4297462143
4297472274
4297479965
4297487289
4297494308
4297502181
4297508163
4297514999
4297523544
4297530563
4297536910
4297544906
4297550277
4297557967
4297561935
4297571944
4297578902
4297585860
4297592147
4297596603
4297602767
4297608749
4297615829
4297620650
4297626937
4297631759
4297637008
4297643355
4297649581
4297652999
4297659957
4297665023
4297670211
4297676742
4297682418
4297687911
4297694503
4297699691
4297704818
4297711226
4297716658
4297722396
4297727156
4297734603
4297739058
4297744735
4297751143
4297755294
4297760848
4297768721
4297773787
4297779402
4297784407
4297790450
4297792891
4297798812
4297805403
4297810713
4297815779
4297821150
4297826644
4297832991
4297837691
4297842146
4297847579
4297853987
4297859786
4297864790
4297870223
4297875410
4297885054
4297891463
4297896162
4297902571
4297906721
4297913252
4297918562
4297922713
4297928084
4297933089
4297938277
4297944014
4297949385
4297954512
4297960005
4297965010
4297970259
4297975996
4297980696
4297984236
4297991804
4297999067
4298004927
4298009016
4298016584
4298022261
4298029158
4298035078
4298047590
4298054304
4298062849
4298070784
4298077864
4298088545
4298091047
4298103498
4298110945
4298118635
4298127363
4298133466
4298143964
4298150373
4298156599
4298164289
4298170759
4298177412
4298182539
4298187055
4298193403
4298197675
4298204084
4298209089
4298214033
4298220258
4298225690
4298232587
4298238141
4298242963
4298248090
4298253217
4298259138
4298264936
4298271894
4298276899
4298282514
4298287336
4298292890
4298297406
4298303266
4298308698
4298314862
4298322065
4298326459
4298332074
4298337934
4298342206
4298348127
4298353498
4298361249
4298366376
4298371503
4298377790
4298383466
4298391217
4298397077
4298402204
4298411786
4298416364
4298423261
4298427533
4298432904
4298439008
4298444806
4298447675
4298456830
4298461102
4298466595
4298471722
4298477155
4298482465
4298488141
4298491864
4298500714
4298505658
4298510785
4298516827
4298521527
4298526837
4298532635
4298537945
4298542096
4298548810
4298554730
4298560895
4298566632
4298570294
4298576031
4298581830
4298590924
4298597638
4298604779
4298612347
4298619915
4298626385
4298632550
4298640118
4298648724
4298657269
4298663922
4298669598
4298679730
4298688519
4298695416
4298704327
4298709698
4298718670
4298728130
4298736492
4298749493
4298755352
4298763531
4298767803
4298774761
4298781231
4298787395
4298796734
4298803020
4298808269
4298812664
4298818035
4298824322
4298829937
4298834820
4298840801
4298846355
4298850445
4298854900
4298860760
4298865642
4298871380
4298877971
4298883465
4298889202
4298894268
4298901226
4298904888
4298910381
4298915630
4298921123
4298926983
4298933025
4298937969
4298943584
4298948223
4298953167
4298958049
4298964336
4298969280
4298974102
4298982585
4298986614
4298993877
4298999187
4299005229
4299011577
4299018718
4299024211
4299029399
4299033733
4299040691
4299046428
4299051311
4299057231
4299062236
4299066325
4299074565
4299078532
4299084026
4299090556
4299096355
4299101115
4299106609
4299111919
4299116618
4299121623
4299127849
4299135722
4299142253
4299148601
4299155192
4299158549
4299165873
4299171611
4299177714
4299183818
4299189311
4299194987
4299201152
4299207194
4299214457
4299220134
4299225322
4299231486
4299236247
4299243632
4299248454
4299254069
4299259318
4299263163
4299270365
4299276103
4299280924
4299287150
4299293070
4299296855
4299303629
4299310832
4299322367
4299328471
4299334696
4299340495
4299347025
4299352396
4299359110
4299364664
4299370829
4299377665
4299382609
4299389750
4299395243
4299403056
4299406107
4299413615
4299419596
4299424662
4299429362
4299434733
4299440226
4299445902
4299451273
4299457499
4299463724
4299469889
4299475016
4299481119
4299486246
4299492289
4299498148
4299504313
4299509501
4299516642
4299521280
4299526590
4299532694
4299537638
4299542520
4299548258
4299553141
4299558268
4299564249
4299569437
4299574808
4299578470
4299584329
4299589639
4299595804
4299600748
4299605387
4299610819
4299615274
4299620462
4299624429
4299629984
4299636636
4299642740
4299648172
4299654520
4299659586
4299667703
4299674417
4299678629
4299684976
4299692361
4299698587
4299705118
4299710916
4299715250
4299721597
4299728616
4299737100
4299742410
4299748392
4299752603
4299758096
4299762491
4299767801
4299772867
4299778970
4299785745
4299790811
4299796182
4299800210
4299807046
4299810891
4299816262
4299821450
4299828286
4299834634
4299839944
4299843118
4299849465
4299854470
4299859597
4299866189
4299871743
4299876931
4299883157
4299888162
4299892556
4299899758
4299904946
4299910500
4299913613
4299925271
4299929910
4299936440
4299943093
4299948769
4299954812
4299960183
4299968789
4299976968
4299983376
4299989785
4299994912
4299999551
4300006386
4300011452
4300015664
4300023232
4300029214
4300034096
4300038674
4300045388
4300049477
4300054726
4300059609
4300065590
4300071938
4300077858
4300083107
4300087014
4300093056
4300096718
4300102456
4300109780
4300114663
4300119606
4300123818
4300128823
4300134438
4300139565
4300144692
4300148598
4300156349
4300160561
4300165077
4300172341
4300177346
4300184304
4300189308
4300196694
4300201271
4300206947
4300211159
4300217629
4300223244
4300228920
4300232094
4300240456
4300247902
4300254433
4300259804
4300264870
4300269630
4300274147
4300279640
4300284096
4300291298
4300296364
4300303688
4300308449
4300314064
4300319618
4300326454
4300331642
4300340004
4300344459
4300350136
4300355873
4300362037
4300367592
4300372902
4300376747
4300385536
4300391395
4300397194
4300402259
4300407631
4300413185
4300417274
4300421669
4300427467
4300431984
4300439003
4300444007
4300449379
4300454566
4300459632
4300464820
4300471107
4300477638
4300484535
4300489173
4300495277
4300502662
4300507484
4300514259
4300520850
4300526832
4300532630
4300538001
4300543800
4300548499
4300554054
4300559058
4300565955
4300570167
4300573951
4300578651
4300584388
4300589027
4300593665
4300599647
4300604285
4300609290
4300613563
4300620215
4300625953
4300631507
4300635840
4300641517
4300647498
4300653846
4300659217
4300664588
4300669593
4300673865
4300680640
4300685157
4300691138
4300696753
4300702063
4300707984
4300713599
4300719031
4300722937
4300729346
4300735511
4300741797
4300746070
4300750525
4300759497
4300765296
4300771826
4300775916
4300785132
4300792151
4300798132
4300803687
4300811011
4300814917
4300822302
4300827490
4300833655
4300838843
4300844092
4300849402
4300854712
4300860022
4300865576
4300871191
4300878271
4300883459
4300888892
4300893103
4300900244
4300905432
4300908728
4300913794
4300919531
4300927527
4300931494
4300938391
4300943823
4300950049
4300954870
4300959692
4300965918
4300971960
4300978003
4300983374
4300987219
4300994238
4300999365
4301004736
4301009985
4301015905
4301021826
4301027136
4301033239
4301039709
4301045874
4301050146
4301056188
4301063269
4301069372
4301078527
4301082739
4301090917
4301096288
4301101721
4301108251
4301114477
4301121008
4301126989
4301131262
4301136511
4301142797
4301148229
4301152929
4301158178
4301165075
4301169958
4301174902
4301179601
4301184911
4301190282
4301197301
4301202795
4301208166
4301213720
4301219701
4301226537
4301232458
4301235631
4301243627
4301249364
4301254674
4301259618
4301264562
4301269750
4301275182
4301280370
4301287755
4301292821
4301299474
4301305272
4301311315
4301317174
4301321386
4301325597
4301332494
4301338475
4301342015
4301347020
4301353551
4301359777
4301364049
4301370946
4301375096
4301382726
4301388158
4301396214
4301403356
4301414403
4301420995
4301429356
4301436864
4301444615
4301448521
4301454869
4301459752
4301463841
4301468114
4301473302
4301477818
4301483617
4301489964
4301496129
4301501683
4301506932
4301510411
4301515111
4301522740
4301528111
4301533482
4301539525
4301544713
4301549473
4301554478
4301559300
4301565037
4301570897
4301576390
4301581639
4301586766
4301591893
4301597081
4301601048
4301607884
4301615025
4301621739
4301626438
4301632237
4301636814
4301643406
4301648777
4301654576
4301660008
4301665257
4301669285
4301675572
4301680393
4301684788
4301690098
4301695225
4301699558
4301705418
4301709812
4301714390
4301718845
4301723606
4301727818
4301734104
4301739658
4301744236
4301748753
4301754246
4301758945
4301763035
4301767063
4301774815
4301779942
4301785007
4301790562
4301794895
4301799351
4301804478
4301809971
4301816379
4301821323
4301828037
4301832798
4301838108
4301842014
4301847141
4301851902
4301858310
4301864475
4301869724
4301874485
4301880039
4301884861
4301888157
4301894748
4301900608
4301905735
4301911045
4301916050
4301921360
4301926792
4301931186
4301936557
4301941867
4301948276
4301954502
4301960300
4301966037
4301969638
4301974460
4301980441
4301987155
4301992221
4301998813
4302004184
4302009250
4302013461
4302020847
4302024753
4302031894
4302036960
4302042636
4302048129
4302052219
4302058871
4302062534
4302067355
4302073154
4302078159
4302084811
4302090915
4302097079
4302102450
4302107272
4302113193
4302118991
4302123202
4302128451
4302134372
4302140109
4302143893
4302150302
4302154330
4302161044
4302164889
4302171420
4302180636
4302186007
4302195102
4302199435
4302205294
4302212008
4302215426
4302220187
4302225924
4302231234
4302240023
4302243930
4302250827
4302254061
4302263400
4302268710
4302274264
4302278842
4302283785
4302288668
4302294833
4302298739
4302303683
4302309115
4302314669
4302319186
4302324618
4302331027
4302336153
4302341036
4302346163
4302351534
4302356722
4302363131
4302368136
4302372286
4302377535
4302383944
4302388155
4302393221
4302401400
4302407259
4302411593
4302417330
4302423372
4302428255
4302433870
4302438082
4302444307
4302449801
4302455416
4302461031
4302465304
4302472445
4302476656
4302482210
4302486910
4302495455
4302499727
4302505465
4302510591
4302516390
4302520967
4302526400
4302530672
4302536043
4302541231
4302547945
4302553011
4302558138
4302563326
4302568819
4302574129
4302580049
4302586336
4302591036
4302596956
4302603121
4302608858
4302613558
4302619051
4302624483
4302628267
4302635896
4302641634
4302644685
4302651399
4302656953
4302663911
4302669771
4302673616
4302685579
4302691988
4302699129
4302705842
4302714143
4302720613
4302725984
4302735444
4302741792
4302753572
4302766389
4302771882
4302781526
4302789094
4302794160
4302804780
4302812226
4302819184
4302829621
4302836518
4302844880
4302849702
4302859345
4302867219
4302875093
4302883332
4302887238
4302895478
4302904878
4302911164
4302918794
4302924287
4302929841
4302935212
4302940827
4302945710
4302952973
4302958588
4302962739
4302968171
4302973786
4302978974
4302984467
4302989289
4302994904
4303000458
4303005952
4303011933
4303019196
4303025056
4303030671
4303036286
4303041291
4303047333
4303053315
4303058808
4303063813
4303070893
4303076447
4303081574
4303086396
4303095063
4303100190
4303105255
4303110382
4303116303
4303121979
4303127289
4303131623
4303140351
4303144867
4303150605
4303156281
4303162445
4303166901
4303172394
4303176727
4303183014
4303188446
4303193695
4303199005
4303205902
4303210907
4303216156
4303222870
4303229034
4303235260
4303241791
4303247650
4303253143
4303260101
4303266022
4303272003
4303278656
4303284393
4303288666
4303295318
4303301178
4303307709
4303313812
4303318573
4303324127
4303331573
4303337433
4303343597
4303348358
4303354706
4303360443
4303366852
4303370453
4303377838
4303384735
4303391998
4303399505
4303405365
4303413543
4303420440
4303428863
4303436676
4303442718
4303455780
4303464752
4303475616
4303485992
4303492889
4303498443
4303506316
4303513213
4303520965
4303530120
4303535674
4303541778
4303548309
4303555267
4303563079
4303566863
4303574004
4303577727
4303584014
4303589751
4303594329
4303599151
4303605132
4303610259
4303615142
4303622466
4303626861
4303631194
4303637298
4303640899
4303647429
4303651214
4303658233
4303663604
4303668486
4303674163
4303678801
4303683379
4303688567
4303693938
4303700469
4303705596
4303711028
4303715850
4303721831
4303727385
4303730620
4303736907
4303740935
4303747954
4303753020
4303758208
4303764372
4303769133
4303774321
4303779692
4303784331
4303791533
4303797331
4303802886
4303807951
4303813994
4303817778
4303821867
4303828459
4303833586
4303838713
4303845305
4303850676
4303855376
4303861113
4303866667
4303872160
4303878020
4303883208
4303889677
4303895720
4303900664
4303906523
4303910795
4303916472
4303921293
4303925871
4303932890
4303936918
4303943876
4303948149
4303953886
4303958891
4303964323
4303970366
4303974882
4303981291
4303987333
4303990324
4303996733
4304001921
4304007536
4304012663
4304019316
4304025541
4304034269
4304038175
4304044401
4304051298
4304056730
4304061918
4304066862
4304075041
4304082121
4304088407
4304093290
4304098295
4304103971
4304109647
4304115324
4304122892
4304128080
4304133512
4304138944
4304144315
4304150175
4304155424
4304160184
4304164030
4304170621
4304176725
4304183012
4304189359
4304195463
4304201261
4304207364
4304213590
4304218168
4304224088
4304231107
4304236966
4304242399
4304248441
4304254178
4304257963
4304265226
4304271024
4304276029
4304279569
4304285733
4304291654
4304296781
4304301419
4304308316
4304313748
4304319242
4304323636
4304329007
4304334195
4304339444
4304343656
4304350003
4304355252
4304361417
4304366788
4304372586
4304377591
4304383206
4304388822
4304394803
4304401944
4304407193
4304412808
4304418424
4304424405
4304427152
4304434110
4304439908
4304444363
4304451627
4304457547
4304461941
4304467190
4304472256
4304477261
4304482815
4304488064
4304494290
4304500516
4304506131
4304511014
4304518155
4304523160
4304528653
4304532559
4304538418
4304544766
4304548916
4304553616
4304561490
4304569302
4304576199
4304581692
4304590176
4304595913
4304602322
4304606839
4304612881
4304618374
4304625515
4304632168
4304641812
4304649563
4304655422
4304663113
4304670620
4304676663
4304682522
4304687527
4304693142
4304698391
4304704372
4304707607
4304714809
4304719326
4304724026
4304729092
4304736416
4304741665
4304746670
4304751064
4304756130
4304762173
4304766384
4304774136
4304779873
4304789211
4304795132
4304799404
4304804592
4304809658
4304815273
4304820339
4304824611
4304832241
4304836941
4304842434
4304848354
4304853908
4304858181
4304863735
4304869106
4304872829
4304879421
4304885280
4304889675
4304894374
4304900844
4304905727
4304910549
4304914760
4304922206
4304927150
4304932704
4304938076
4304943386
4304948451
4304953884
4304956752
4304965846
4304970485
4304976344
4304979152
4304986781
4304992885
4304996181
4305002467
4305007900
4305013271
4305018764
4305023891
4305028590
4305035121
4305039760
4305045253
4305050624
4305056117
4305062831
4305067104
4305071498
4305076747
4305081630
4305087184
4305091579
4305096950
4305103725
4305108851
4305114100
4305119472
4305125941
4305130458
4305136867
4305140895
4305147914
4305152491
4305159694
4305164088
4305170253
4305175258
4305181361
4305186732
4305192347
4305199610
4305204066
4305208827
4305215296
4305222377
4305225856
4305233546
4305237574
4305245204
4305250086
4305255274
4305261134
4305265894
4305271327
4305277125
4305280909
4305288538
4305293849
4305298487
4305303126
4305308741
4305313502
4305318995
4305324610
4305330714
4305336329
4305342249
4305346766
4305352015
4305357264
4305362818
4305367091
4305372340
4305379603
4305384424
4305389490
4305395777
4305400843
4305405909
4305410792
4305416285
4305422144
4305427149
4305432276
4305437525
4305443018
4305447901
4305453455
4305458338
4305464075
4305468531
4305474939
4305479212
4305484888
4305490015
4305495996
4305500879
4305505701
4305511499
4305516626
4305523889
4305528589
4305534326
4305538904
4305544458
4305549219
4305554651
4305563806
4305567957
4305572290
4305578882
4305583093
4305588709
4305593713
4305597803
4305605920
4305610315
4305616968
4305621179
4305627893
4305632410
4305638025
4305643030
4305649072
4305655054
4305660486
4305664575
4305670679
4305673608
4305680017
4305687585
4305693384
4305699426
4305705408
4305710901
4305716699
4305721643
4305726220
4305731775
4305736596
4305742517
4305748498
4305754174
4305759912
4305763574
4305768701
4305775232
4305780175
4305786950
4305793664
4305800988
4305809106
4305816491
4305823266
4305829797
4305834436
4305840478
4305846948
4305853234
4305858239
4305863427
4305869042
4305874413
4305879907
4305887048
4305892602
4305897912
4305903588
4305909264
4305915063
4305919274
4305924706
4305931176
4305937463
4305941796
4305946069
4305953271
4305959923
4305965722
4305971459
4305977563
4305983605
4305989525
4305994774
4305998864
4306005211
4306008629
4306013756
4306021020
4306027001
4306033532
4306038964
4306044640
4306050133
4306054711
4306061852
4306066796
4306072472
4306078637
4306083031
4306088341
4306093895
4306099083
4306104454
4306107506
4306113976
4306121971
4306127709
4306132286
4306137596
4306142845
4306148949
4306154076
4306159935
4306165245
4306171349
4306176415
4306182152
4306186669
4306192833
4306198326
4306201378
4306210838
4306215111
4306222374
4306227684
4306232018
4306236595
4306243797
4306247948
4306254356
4306260521
4306266319
4306271751
4306277611
4306282371
4306288170
4306292991
4306299400
4306303978
4306311363
4306315635
4306320823
4306325950
4306331566
4306338829
4306343406
4306357628
4306363914
4306371605
4306379173
4306385398
4306395530
4306403648
4306409812
4306419639
4306430015
4306437705
4306443748
4306452842
4306459556
4306465721
4306474998
4306483787
4306490684
4306496970
4306504600
4306510642
4306518699
4306522971
4306531028
4306538169
4306543540
4306551658
4306559104
4306564841
4306571006
4306577720
4306584434
4306592002
4306597922
4306605430
4306612632
4306620749
4306626121
4306630881
4306637290
4306641745
4306647422
4306652305
4306657004
4306664817
4306670066
4306675437
4306680014
4306685813
4306691794
4306695884
4306701865
4306708091
4306714438
4306719077
4306723227
4306728842
4306734030
4306739279
4306745505
4306750632
4306756064
4306760947
4306766623
4306772116
4306777854
4306782858
4306788291
4306794577
4306798911
4306803183
4306810324
4306814597
4306819235
4306825461
4306830405
4306835471
4306842001
4306847311
4306853415
4306858420
4306863608
4306869406
4306874411
4306880148
4306883322
4306891501
4306896750
4306904196
4306908957
4306914389
4306920126
4306925253
4306931662
4306937826
4306946798
4306955099
4306960653
4306967917
4306973532
4306981588
4306989096
4306995993
4307002706
4307008566
4307018881
4307027792
4307034384
4307041281
4307049887
4307055624
4307063925
4307071249
4307079183
4307087423
4307099813
4307106039
4307116171
4307121847
4307131368
4307138448
4307146932
4307150594
4307157918
4307164205
4307176473
4307181478
4307187643
4307192892
4307198385
4307203023
4307208639
4307214864
4307219503
4307223714
4307230672
4307235799
4307241292
4307245565
4307250386
4307257467
4307262593
4307267659
4307272542
4307279317
4307282796
4307289632
4307294088
4307302693
4307306661
4307312398
4307318685
4307324178
4307327046
4307334432
4307343526
4307349263
4307356832
4307363301
4307367574
4307374471
4307378743
4307383809
4307390157
4307394185
4307401631
4307407491
4307412984
4307417256
4307423970
4307428365
4307433980
4307439046
4307446065
4307452168
4307456746
4307461018
4307466572
4307471638
4307476948
4307483174
4307488606
4307495259
4307510518
4307515767
4307521077
4307526082
4307531025
4307537373
4307544758
4307549885
4307555623
4307560139
4307564473
4307570088
4307576069
4307581013
4307588581
4307593342
4307598835
4307603840
4307609394
4307613606
4307620442
4307626179
4307631855
4307637715
4307642781
4307646870
4307651997
4307657551
4307672138
4307694111
4307702839
4307710468
4307719563
4307725178
4307731770
4307737568
4307743427
4307748493
4307753437
4307758686
4307767414
4307772724
4307777180
4307781513
4307785969
4307791462
4307796467
4307801838
4307806354
4307813251
4307817585
4307822162
4307827472
4307834552
4307840107
4307845112
4307851520
4307857685
4307863300
4307867817
4307872211
4307877277
4307882465
4307887104
4307892597
4307898151
4307901874
4307906574
4307913349
4307918231
4307922809
4307929645
4307935321
4307940631
4307944721
4307950580
4307954913
4307960224
4307964618
4307970538
4307976703
4307981525
4307986530
4307991840
4307996295
4308003558
4308007770
4308013324
4308018695
4308023761
4308027911
4308033099
4308040912
4308045428
4308049884
4308054584
4308059772
4308063739
4308068988
4308072894
4308079852
4308084979
4308090167
4308094134
4308099078
4308104938
4308109515
4308116656
4308121905
4308126422
4308131732
4308136615
4308143206
4308150836
4308156024
4308162310
4308168048
4308172564
4308179339
4308186114
4308192279
4308199664
4308207537
4308213519
4308219134
4308224749
4308229388
4308235552
4308241107
4308246600
4308252764
4308257830
4308260455
4308267413
4308271746
4308279009
4308284380
4308290057
4308295184
4308300738
4308305071
4308310503
4308315447
4308321429
4308326922
4308331927
4308337237
4308342425
4308347918
4308353167
4308358477
4308363787
4308369341
4308374895
4308380572
4308383684
4308389605
4308394365
4308400835
4308405962
4308410845
4308418230
4308422381
4308429400
4308435198
4308440874
4308446489
4308455095
4308462175
4308467852
4308473162
4308477678
4308484087
4308489641
4308496172
4308501482
4308506426
4308514055
4308519304
4308525225
4308531206
4308537187
4308540056
4308547014
4308556291
4308563127
4308567766
4308574480
4308578996
4308584917
4308590776
4308596819
4308602495
4308610429
4308615862
4308621660
4308626665
4308632524
4308638322
4308643205
4308649126
4308654802
4308659685
4308666215
4308672685
4308678239
4308684038
4308689714
4308693742
4308699113
4308706498
4308713212
4308718278
4308723954
4308729631
4308734941
4308738603
4308745317
4308752519
4308758928
4308764421
4308770219
4308776445
4308782670
4308787126
4308794755
4308800004
4308806901
4308813249
4308820268
4308826127
4308831254
4308837480
4308842912
4308848466
4308853044
4308861039
4308866410
4308869706
4308876359
4308881913
4308886247
4308892106
4308897172
4308903397
4308908524
4308912736
4308918107
4308923295
4308928788
4308933854
4308939652
4308945756
4308949906
4308955338
4308961564
4308966202
4308971146
4308976029
4308981766
4308987321
4308992875
4308998002
4309002701
4309008194
4309013810
4309019120
4309024003
4309030900
4309037430
4309041703
4309047806
4309051163
4309057938
4309062516
4309067459
4309073624
4309079361
4309084610
4309091690
4309097122
4309102433
4309107376
4309112625
4309116959
4309123795
4309131424
4309137589
4309145035
4309150772
4309156571
4309162369
4309171829
4309177628
4309181595
4309188370
4309193680
4309196182
4309202286
4309208755
4309214981
4309220291
4309225418
4309229935
4309235672
4309238419
4309245499
4309252518
4309258438
4309263260
4309269180
4309273697
4309279190
4309284256
4309289810
4309296646
4309302322
4309306900
4309312393
4309317032
4309322464
4309328628
4309335220
4309341140
4309348159
4309355728
4309363052
4309369033
4309376785
4309381729
4309387649
4309395401
4309404006
4309408889
4309412918
4309417922
4309422866
4309427566
4309436477
4309441787
4309446914
4309451919
4309457351
4309461501
4309468093
4309473647
4309479446
4309485488
4309491103
4309494155
4309500320
4309505386
4309510452
4309516677
4309520644
4309528213
4309533095
4309538100
4309542068
4309548904
4309553786
4309559218
4309562026
4309568984
4309573501
4309580703
4309585158
4309589858
4309596694
4309601577
4309606460
4309612014
4309617324
4309623366
4309628371
4309633864
4309639785
4309643874
4309649245
4309654921
4309659011
4309667128
4309673293
4309676162
4309684096
4309688674
4309693801
4309699294
4309705519
4309711989
4309717971
4309725417
4309729018
4309735610
4309740859
4309745863
4309750563
4309757765
4309762709
4309770033
4309775099
4309780837
4309785353
4309790785
4309796095
4309801711
4309807387
4309811842
4309818434
4309822035
4309828383
4309833266
4309838332
4309842787
4309849745
4309856642
4309861586
4309866286
4309872023
4309877211
4309882155
4309887282
4309893385
4309901259
4309908522
4309915053
4309920607
4309926100
4309934584
4309938673
4309947889
4309953505
4309958570
4309964308
4309968702
4309974256
4309979994
4309986952
4309995436
4309999403
4310005873
4310011122
4310015943
4310020948
4310025892
4310032728
4310037916
4310043897
4310048841
4310054273
4310059644
4310065321
4310069227
4310075269
4310080763
4310085645
4310093153
4310098951
4310104627
4310109205
4310114820
4310119031
4310123853
4310130933
4310136243
4310141553
4310146619
4310152357
4310157484
4310162916
4310168775
4310173353
4310180066
4310184278
4310188489
4310194105
4310200452
4310205213
4310210645
4310215101
4310222730
4310226758
4310233777
4310238538
4310244642
4310249036
4310254956
4310260633
4310264234
4310272840
4310276624
4310281873
4310288831
4310294019
4310298780
4310304700
4310310987
4310319287
4310324964
4310330029
4310335217
4310340955
4310345654
4310351819
4310357251
4310360852
4310367383
4310375073
4310380383
4310386609
4310392224
4310396558
4310402356
4310408093
4310415601
4310418835
4310427197
4310433179
4310439343
4310444531
4310448987
4310455762
4310461743
4310470105
4310477734
4310483349
4310489575
4310497815
4310505627
4310511426
4310518322
4310524548
4310535840
4310545361
4310557873
4310563855
4310578015
4310585583
4310590954
4310599133
4310607311
4310615368
4310622143
4310628308
4310636974
4310645275
4310651562
4310656323
4310663220
4310669689
4310680370
4310687634
4310695446
4310701855
4310706738
4310716381
4310721447
4310729259
4310734325
4310742931
4310747204
4310756359
4310763317
4310770519
4310775829
4310779674
4310790233
4310796520
4310803234
4310810009
4310815685
4310821422
4310827953
4310832592
4310837597
4310843151
4310848156
4310853710
4310859996
4310865917
4310870861
4310874950
4310879161
4310885631
4310890087
4310894908
4310902111
4310907176
4310912609
4310917491
4310924632
4310928050
4310935008
4310939159
4310946849
4310952281
4310957835
4310966197
4310973766
4310978038
4310985790
4310990245
4310996715
4311002879
4311010326
4311014842
4311022716
4311028270
4311034618
4311039683
4311046763
4311052684
4311058848
4311064219
4311067882
4311076243
4311081431
4311086741
4311091380
4311100718
4311105357
4311111155
4311117808
4311122813
4311129649
4311133311
4311138743
4311145884
4311151927
4311157908
4311163279
4311169810
4311175242
4311180796
4311185313
4311191050
4311197337
4311203807
4311208201
4311213816
4311222483
4311227671
4311236521
4311247141
4311251292
4311258616
4311264903
4311268626
4311273570
4311278513
4311285716
4311290720
4311295420
4311300913
4311307200
4311312022
4311317026
4311322520
4311325816
4311333445
4311338694
4311343577
4311348765
4311353464
4311358347
4311363230
4311368540
4311376475
4311381174
4311387644
4311393564
4311398813
4311404184
4311409800
4311415415
4311422007
4311427988
4311433970
4311439524
4311443552
4311448801
4311454172
4311458445
4311463266
4311471750
4311477671
4311482004
4311487009
4311493479
4311497202
4311503916
4311507822
4311513681
4311519663
4311525644
4311529856
4311535532
4311540781
4311546335
4311550485
4311555551
4311563974
4311568002
4311574228
4311578745
4311583871
4311588327
4311595346
4311600412
4311605417
4311612985
4311617746
4311623300
4311629404
4311634347
4311640451
4311645273
4311649606
4311659006
4311664865
4311670480
4311674692
4311680673
4311686960
4311691537
4311696237
4311702035
4311708749
4311717355
4311720407
4311727304
4311734750
4311738290
4311744760
4311748239
4311756845
4311761605
4311768136
4311772409
4311778817
4311783334
4311788705
4311795236
4311801583
4311807076
4311813546
4311820260
4311826425
4311832223
4311838143
4311844003
4311849984
4311855599
4311862679
4311868173
4311873544
4311878548
4311883492
4311887704
4311894173
4311899972
4311905953
4311909005
4311916207
4311920846
4311925729
4311930733
4311937203
4311942635
4311951424
4311956490
4311961983
4311966683
4311972054
4311976937
4311982918
4311989937
4311993599
4311998665
4312004281
4312010506
4312015206
4312020272
4312024605
4312033089
4312039254
4312044258
4312048714
4312054146
4312058907
4312064400
4312070259
4312073983
4312082711
4312086373
4312093514
4312096871
4312103462
4312108956
4312114205
4312119332
4312124703
4312129646
4312135262
4312140144
4312146126
4312151863
4312157845
4312162972
4312169380
4312174873
4312181221
4312185860
4312191658
4312197090
4312202522
4312208748
4312213020
4312220283
4312226326
4312232490
4312237678
4312241035
4312248054
4312252937
4312257820
4312262947
4312269661
4312277778
4312284553
4312289436
4312296211
4312301521
4312306831
4312312385
4312319465
4312324043
4312331428
4312336921
4312341560
4312347114
4312352424
4312358100
4312361885
4312370430
4312374397
4312380012
4312386848
4312395149
4312399055
4312407478
4312413581
4312421638
4312430427
4312435249
4312440620
4312445564
4312450141
4312454963
4312460883
4312465705
4312470771
4312475288
4312479987
4312484748
4312489387
4312494758
4312499030
4312504768
4312510505
4312514838
4312521613
4312526313
4312532722
4312537726
4312546454
4312551642
4312555976
4312561408
4312567512
4312572822
4312577643
4312584418
4312588691
4312595038
4312599616
4312605353
4312611152
4312616217
4312624823
4312630133
4312636725
4312640143
4312646796
4312651862
4312656379
4312662116
4312668708
4312673957
4312680182
4312685614
4312690863
4312695075
4312700568
4312704657
4312709357
4312715888
4312721747
4312726080
4312731635
4312736762
4312744086
4312749884
4312753973
4312758917
4312765509
4312770453
4312775275
4312784308
4312789862
4312796149
4312801764
4312806525
4312812201
4312817328
4312821966
4312829718
4312836920
4312841376
4312847906
4312852911
4312859442
4312863592
4312870245
4312876654
4312884833
4312891058
4312896307
4312901434
4312904242
4312917730
4312927740
4312943914
4312954046
4312962896
4312971136
4312979925
4312988958
4312996954
4313006414
4313015081
4313021612
4313026739
4313031622
4313035833
4313040289
4313045355
4313049566
4313053838
4313058782
4313063665
4313068060
4313072820
4313076788
4313080938
4313085699
4313089971
4313096136
4313101080
4313104986
4313110113
4313114873
4313120672
4313125127
4313130010
4313138372
4313145269
4313150152
4313154973
4313160222
4313165349
4313168950
4313174138
4313180791
4313185857
4313188665
4313194524
4313198797
4313204107
4313208318
4313213323
4313220830
4313226384
4313230718
4313235906
4313240911
4313245977
4313251470
4313256292
4313263250
4313267644
4313274846
4313280156
4313285039
4313289739
4313295354
4313303166
4313310979
4313319951
4313325139
4313329167
4313336125
4313339971
4313346806
4313351323
4313357121
4313364201
4313369695
4313375005
4313380437
4313386052
4313391362
4313395329
4313401433
4313407719
4313413518
4313418767
4313424382
4313430119
4313435246
4313441777
4313446721
4313453190
4313458928
4313465581
4313470952
4313475346
4313484929
4313491093
4313496647
4313503972
4313509282
4313513310
4313518986
4313525456
4313530888
4313535221
4313540837
4313546025
4313551762
4313555668
4313560124
4313564823
4313569462
4313573979
4313579045
4313583988
4313589848
4313594853
4313598698
4313604069
4313610111
4313615482
4313620365
4313625736
4313630131
4313635075
4313640324
4313644352
4313650700
4313656132
4313659306
4313666019
4313670170
4313675236
4313681767
4313687565
4313694096
4313698673
4313705082
4313709782
4313714970
4313719547
4313725040
4313730656
4313736393
4313741947
4313747867
4313753055
4313757206
4313763370
4313766971
4313773380
4313778385
4313786564
4313791874
4313796817
4313802860
4313808353
4313812687
4313818180
4313823551
4313829227
4313834537
4313840519
4313845645
4313851139
4313855533
4313860477
4313866947
4313872867
4313877323
4313882328
4313887393
4313893375
4313898380
4313902835
4313908389
4313914005
4313920230
4313925968
4313932071
4313937198
4313940494
4313945682
4313952213
4313957523
4313964969
4313972415
4313978580
4313984439
4313989078
4313995303
4314000857
4314006961
4314012820
4314016849
4314026004
4314031863
4314036624
4314042544
4314049624
4314054019
4314062137
4314067935
4314074099
4314079104
4314085330
4314090579
4314096805
4314100833
4314106631
4314111514
4314117373
4314122805
4314127444
4314133242
4314138369
4314143008
4314148440
4314154238
4314159854
4314164614
4314170901
4314175540
4314181338
4314187197
4314190554
4314197512
4314200930
4314208010
4314213381
4314218447
4314225039
4314230227
4314235354
4314240481
4314245242
4314250918
4314256533
4314262576
4314267886
4314273257
4314278017
4314283389
4314288088
4314294314
4314301516
4314305605
4314310671
4314316775
4314322207
4314327822
4314333498
4314338137
4314345644
4314351198
4314357180
4314362612
4314368105
4314372927
4314378542
4314383364
4314388491
4314393801
4314401186
4314405947
4314411013
4314418276
4314421816
4314427858
4314434206
4314441591
4314446657
4314452516
4314458132
4314463747
4314468996
4314475099
4314479738
4314484621
4314490297
4314496340
4314503298
4314508241
4314513796
4314518862
4314524782
4314530397
4314537904
4314543276
4314549379
4314554689
4314561220
4314565981
4314571352
4314575563
4314580873
4314586244
4314592104
4314598756
4314604127
4314610536
4314616212
4314622133
4314628786
4314636781
4314643251
4314650880
4314656556
4314662965
4314667970
4314673341
4314678773
4314685670
4314690553
4314696290
4314701661
4314706788
4314711366
4314716798
4314721986
4314727235
4314734437
4314738893
4314745362
4314750306
4314755128
4314760499
4314766114
4314772035
4314776734
4314782838
4314788453
4314793214
4314796815
4314802369
4314807984
4314814759
4314819703
4314825257
4314832276
4314837769
4314843202
4314847596
4314852662
4314859010
4314863587
4314869325
4314874390
4314881409
4314885621
4314891297
4314896424
4314901795
4314904664
4314912171
4314919007
4314923585
4314929688
4314932984
4314940186
4314944031
4314950989
4314955445
4314964234
4314968384
4314973938
4314978699
4314984742
4314990967
4314996888
4315001831
4315007813
4315013245
4315019287
4315022278
4315029663
4315034607
4315039917
4315044068
4315048401
4315056275
4315061829
4315067993
4315072327
4315078797
4315082276
4315087464
4315095398
4315100769
4315106445
4315112366
4315116211
4315122925
4315128784
4315133118
4315137146
4315145325
4315153442
4315161255
4315170593
4315178772
4315186401
4315193115
4315201477
4315208069
4315211670
4315217956
4315222534
4315227295
4315232544
4315237366
4315244201
4315249328
4315253906
4315259949
4315264160
4315269165
4315273315
4315280151
4315285461
4315289550
4315293762
4315298095
4315302185
4315306213
4315311218
4315316223
4315320190
4315325988
4315329162
4315334350
4315337585
4315343078
4315347534
4315352600
4315356750
4315361694
4315366271
4315371765
4315376525
4315382141
4315387023
4315392700
4315397216
4315402465
4315407043
4315411743
4315416808
4315421996
4315427612
4315432555
4315437560
4315442809
4315449828
4315456115
4315461425
4315466247
4315474487
4315478698
4315486327
4315490783
4315496520
4315502685
4315508971
4315513976
4315520263
4315525634
4315532714
4315536437
4315541808
4315547179
4315552855
4315557189
4315561889
4315570006
4315575072
4315580077
4315585509
4315590636
4315595214
4315600646
4315606871
4315611266
4315618407
4315622618
4315628051
4315633544
4315638304
4315643004
4315647887
4315653868
4315661559
4315667845
4315673033
4315679137
4315684264
4315690001
4315695616
4315701232
4315705992
4315713439
4315718077
4315724486
4315728697
4315736998
4315741148
4315748229
4315752501
4315763304
4315769469
4315775023
4315779784
4315785765
4315790831
4315796324
4315800719
4315806456
4315813231
4315818663
4315823912
4315827696
4315833250
4315838499
4315842711
4315847471
4315855711
4315859434
4315865965
4315871092
4315876280
4315880797
4315886290
4315891172
4315899717
4315904295
4315909910
4315914610
4315921446
4315926451
4315931883
4315936827
4315940245
4315947691
4315953428
4315957823
4315962705
4315969114
4315974302
4315979368
4315984922
4315990476
4315996641
4316001585
4316006651
4316014158
4316019773
4316024839
4316029600
4316037718
4316042844
4316049192
4316055479
4316061704
4316066831
4316073728
4316079404
4316082700
4316091123
4316097044
4316102109
4316105344
4316111631
4316115720
4316122495
4316127256
4316133054
4316139707
4316145200
4316150083
4316155942
4316161558
4316169065
4316173459
4316181821
4316187558
4316193357
4316198728
4316205075
4316211606
4316216611
4316221616
4316228269
4316234616
4316241758
4316247739
4316252439
4316258664
4316264340
4316270322
4316275754
4316279721
4316287717
4316291623
4316298520
4316303952
4316309323
4316314389
4316320493
4316326169
4316333371
4316341122
4316346799
4316351559
4316358701
4316363950
4316369931
4316375729
4316381528
4316389950
4316394589
4316401059
4316406247
4316412289
4316418942
4316423337
4316427243
4316434018
4316440304
4316445614
4316450680
4316455929
4316460507
4316465634
4316470578
4316476254
4316481625
4316489010
4316494564
4316500546
4316505307
4316510861
4316515377
4316519833
4316527645
4316533627
4316538693
4316543942
4316548703
4316554135
4316559750
4316564022
4316571347
4316576840
4316582943
4316587521
4316592953
4316597408
4316602841
4316608761
4316612118
