4018127530
4018138028
4018146512
4018155057
4018163114
4018171781
4018178739
4018187589
4018194608
4018201566
4018208219
4018216886
4018224881
4018235196
4018243802
4018251615
4018259244
4018267423
4018276212
4018283963
4018292569
4018300198
4018306851
4018314664
4018324674
4018333585
4018342313
4018348599
4018358243
4018366421
4018375516
4018382596
4018391873
4018396939
4018405667
4018411709
4018421902
4018429654
4018436673
4018444607
4018450345
4018458096
4018466336
4018473538
4018480801
4018487393
4018495694
4018502835
4018510159
4018517544
4018525540
4018533413
4018540371
4018547085
4018555020
4018561367
4018571072
4018578579
4018585354
4018592068
4018598721
4018605435
4018612820
4018621609
4018628811
4018645534
4018654018
4018660793
4018670132
4018677456
4018685573
4018692226
4018699306
4018705837
4018713711
4018723415
4018730312
4018738308
4018745083
4018751735
4018759609
4018766506
4018773647
4018781154
4018788784
4018796596
4018804958
4018811794
4018821071
4018827175
4018836025
4018844448
4018851833
4018860622
4018865444
4018875575
4018884120
4018893215
4018900966
4018910610
4018915309
4018926112
4018934779
4018943446
4018953273
4018963039
4018970607
4018980434
4018988307
4018995631
4019003200
4019009974
4019019008
4019028041
4019036158
4019043788
4019052943
4019060511
4019067103
4019076014
4019082667
4019090602
4019098658
4019106959
4019112086
4019120814
4019126979
4019136988
4019147608
4019155238
4019162745
4019170741
4019178126
4019184718
4019194544
4019204127
4019212244
4019219386
4019226649
4019234095
4019239588
4019250025
4019256434
4019266199
4019270228
4019280237
4019287134
4019303675
4019313441
4019321375
4019329493
4019333521
4019343836
4019351160
4019358851
4019366236
4019372400
4019383142
4019390467
4019399073
4019406031
4019413782
4019424036
4019431848
4019439112
4019448084
4019454370
4019465174
4019475549
4019482202
4019491541
4019499841
4019508264
4019516687
4019529382
4019536340
4019546899
4019557336
4019568506
4019577478
4019584985
4019594140
4019600915
4019609155
4019617395
4019624597
4019633203
4019643152
4019650720
4019659204
4019665918
4019672998
4019682153
4019688562
4019697107
4019706445
4019711938
4019719140
4019726708
4019735253
4019743005
4019750146
4019759362
4019765100
4019773644
4019780969
4019788903
4019796777
4019803979
4019811303
4019818200
4019826562
4019833703
4019841393
4019849023
4019857873
4019866234
4019874047
4019883691
4019891015
4019898461
4019906762
4019914391
4019920678
4019927147
4019936242
4019942833
4019956017
4019965111
4019971520
4019979149
4019986657
4019995079
4020003319
4020008873
4020017784
4020025902
4020034386
4020042870
4020050377
4020057091
4020065697
4020073509
4020081505
4020088036
4020092430
4020097313
4020103233
4020107445
4020112816
4020117882
4020123680
4020128929
4020133690
4020137413
4020143944
4020147484
4020152550
4020157982
4020161888
4020166527
4020171959
4020178551
4020185325
4020190208
4020194481
4020198570
4020204063
4020208092
4020212791
4020216820
4020221397
4020225914
4020231895
4020236778
4020242943
4020248008
4020252769
4020256187
4020260582
4020265892
4020271263
4020276023
4020279991
4020285057
4020289756
4020293541
4020297081
4020301170
4020306297
4020311424
4020315330
4020320335
4020324607
4020328819
4020332298
4020338401
4020343040
4020346275
4020350669
4020355003
4020359336
4020365501
4020369529
4020373435
4020378013
4020381431
4020390830
4020395835
4020400535
4020404380
4020409141
4020414024
4020418662
4020422324
4020428672
4020433372
4020438132
4020442771
4020447471
4020451621
4020457236
4020463401
4020467918
4020472434
4020477927
4020481284
4020488181
4020493796
4020499167
4020503989
4020509604
4020514243
4020518271
4020523704
4020528708
4020533347
4020538291
4020543479
4020547812
4020553672
4020559714
4020565512
4020570700
4020575034
4020579856
4020588340
4020593405
4020599204
4020606101
4020611106
4020614951
4020621360
4020624411
4020632041
4020637412
4020644797
4020649497
4020653464
4020658713
4020662802
4020668295
4020673789
4020680441
4020685874
4020689475
4020695212
4020699973
4020704977
4020710104
4020716147
4020720663
4020727499
4020730673
4020737021
4020739828
4020747702
4020753073
4020759054
4020764914
4020768698
4020774252
4020778097
4020782919
4020788290
4020792990
4020799399
4020805380
4020810080
4020818808
4020823935
4020830465
4020835470
4020845602
4020851217
4020857992
4020863363
4020867147
4020872885
4020878988
4020883261
4020888571
4020893637
4020898336
4020903585
4020907858
4020913656
4020919699
4020924276
4020930075
4020934225
4020940023
4020944784
4020949789
4020955526
4020963278
4020967855
4020972372
4020976400
4020983419
4020986227
4020991659
4020997762
4021005697
4021009115
4021016561
4021019918
4021027059
4021030172
4021037801
4021041158
4021050130
4021056112
4021060384
4021065816
4021070028
4021076436
4021079732
4021089437
4021095357
4021099141
4021102132
4021109090
4021113485
4021125264
4021131063
4021135762
4021140828
4021145711
4021151204
4021155538
4021162008
4021166768
4021171712
4021177022
4021182882
4021186971
4021193074
4021196248
4021203267
4021206319
4021213338
4021218648
4021223714
4021226583
4021232869
4021237508
4021242757
4021251058
4021256062
4021260579
4021267354
4021270162
4021277791
4021282613
4021288045
4021293965
4021300923
4021305623
4021311238
4021315877
4021320760
4021326985
4021331380
4021338765
4021343709
4021349751
4021354634
4021358906
4021365193
4021369343
4021372639
4021384297
4021391133
4021397114
4021398823
4021407063
4021410115
4021416951
4021419880
4021427632
4021431538
4021438069
4021441304
4021448323
4021451558
4021458455
4021463032
4021469136
4021474080
4021479756
4021484394
4021489460
4021493916
4021499348
4021504902
4021509724
4021515888
4021521931
4021526631
4021532551
4021539021
4021545063
4021552326
4021558186
4021566914
4021571858
4021577717
4021584065
4021589924
4021596272
4021601215
4021608906
4021616291
4021621540
4021625690
4021631428
4021635761
4021641254
4021647907
4021652241
4021658649
4021665241
4021670063
4021676594
4021680744
4021686298
4021690143
4021696003
4021704059
4021708698
4021714252
4021719257
4021723591
4021730427
4021733905
4021740863
4021744159
4021750812
4021754596
4021760578
4021767048
4021773029
4021778217
4021782672
4021788105
4021794086
4021800312
4021805133
4021810565
4021815265
4021823139
4021826374
4021833332
4021838153
4021843463
4021848773
4021854144
4021859882
4021865253
4021871539
4021875324
4021881488
4021884906
4021891254
4021896869
4021901508
4021908282
4021912921
4021919574
4021924762
4021930988
4021936359
4021942157
4021947894
4021950946
4021957721
4021962360
4021967853
4021973895
4021977862
4021984515
4021989825
4021994525
4021998858
4022003558
4022009601
4022014789
4022020892
4022027423
4022033282
4022040118
4022045428
4022050677
4022055499
4022061908
4022066851
4022072100
4022077349
4022083819
4022090289
4022094989
4022098162
4022105059
4022112017
4022116839
4022125506
4022128924
4022134905
4022140277
4022145770
4022151202
4022155718
4022160723
4022167071
4022171587
4022178057
4022183245
4022185992
4022192522
4022197222
4022202837
4022210101
4022214861
4022220721
4022226153
4022231524
4022236468
4022242571
4022246905
4022251726
4022257036
4022262530
4022267901
4022273028
4022277849
4022284014
4022289995
4022292803
4022300005
4022304278
4022309221
4022315142
4022317888
4022323809
4022328875
4022333635
4022337175
4022341021
4022349871
4022354570
4022364763
4022366411
4022374468
4022378557
4022381975
4022388750
4022394182
4022401934
4022405474
4022411333
4022416521
4022421282
4022425859
4022430132
4022436724
4022441728
4022447099
4022451311
4022455217
4022459795
4022465593
4022473650
4022477617
4022482073
4022487627
4022491350
4022497209
4022501970
4022507707
4022512834
4022516740
4022521745
4022528520
4022534074
4022538225
4022546220
4022551530
4022556413
4022560991
4022565935
4022571306
4022577226
4022582841
4022588090
4022593461
4022598405
4022604143
4022609086
4022615068
4022621293
4022624162
4022630815
4022636125
4022640275
4022645646
4022649919
4022657182
4022660173
4022667924
4022673661
4022679032
4022684770
4022688493
4022694352
4022698197
4022703630
4022708818
4022714372
4022719255
4022724198
4022729814
4022734574
4022739762
4022744279
4022749345
4022753617
4022760392
4022765153
4022771256
4022774979
4022781327
4022784623
4022791703
4022794938
4022801469
4022807511
4022815812
4022821061
4022825394
4022831376
4022836442
4022841691
4022845841
4022848954
4022857072
4022861832
4022869401
4022875138
4022881608
4022886551
4022891190
4022896500
4022901871
4022906815
4022912064
4022917008
4022921097
4022926957
4022931351
4022936051
4022942460
4022947220
4022953019
4022957840
4022962296
4022968399
4022973526
4022978043
4022984574
4022988663
4022993973
4022999649
4023004410
4023010330
4023015518
4023022171
4023027115
4023033524
4023038651
4023044876
4023050125
4023055802
4023059403
4023066116
4023069473
4023077286
4023080582
4023087601
4023092178
4023097916
4023103958
4023109146
4023115799
4023121536
4023127090
4023133499
4023138138
4023144363
4023149612
4023154373
4023160232
4023166702
4023171402
4023176529
4023180740
4023189834
4023195633
4023205459
4023211685
4023217361
4023221573
4023228286
4023232315
4023238296
4023242569
4023248245
4023254837
4023259475
4023263259
4023269790
4023274002
4023280532
4023284500
4023289627
4023295791
4023301162
4023305679
4023311721
4023317153
4023323257
4023327407
4023333694
4023339736
4023344558
4023351089
4023355483
4023361099
4023365188
4023370681
4023376174
4023383254
4023387710
4023393630
4023396438
4023403701
4023408401
4023413528
4023421340
4023428970
4023433669
4023440261
4023446426
4023451430
4023454421
4023461501
4023467544
4023473769
4023482131
4023488112
4023492751
4023497817
4023502578
4023508864
4023514113
4023517959
4023524489
4023529494
4023535170
4023539321
4023545546
4023550551
4023557998
4023562758
4023567763
4023573073
4023576796
4023582228
4023587599
4023593764
4023599440
4023604323
4023608412
4023614089
4023617873
4023623793
4023630080
4023635756
4023640090
4023646681
4023651808
4023657118
4023661574
4023667738
4023675734
4023681227
4023685255
4023690749
4023696913
4023701308
4023705336
4023710646
4023716750
4023721999
4023727675
4023733412
4023739455
4023747023
4023751845
4023757338
4023762465
4023769179
4023775831
4023780653
4023785658
4023790175
4023794447
4023800612
4023804335
4023811903
4023814650
4023821669
4023827650
4023831984
4023835157
4023843397
4023849440
4023855665
4023860182
4023864149
4023869642
4023874891
4023879530
4023886366
4023891310
4023895765
4023902174
4023905287
4023911390
4023915724
4023922010
4023928724
4023935316
4023939283
4023945814
4023951551
4023958570
4023961927
4023969068
4023973280
4023981275
4023984754
4023991529
4023994642
4024001539
4024004774
4024010999
4024016126
4024022779
4024028150
4024032056
4024036268
4024042982
4024045911
4024053663
4024060560
4024066480
4024070753
4024076002
4024080396
4024086072
4024092237
4024097730
4024103772
4024109754
4024114087
4024119947
4024124280
4024129590
4024134168
4024140332
4024146924
4024151929
4024157849
4024162427
4024168775
4024173963
4024178174
4024181714
4024190076
4024196424
4024202222
4024208264
4024212354
4024217542
4024222608
4024227857
4024234632
4024239942
4024247266
4024253308
4024257947
4024264111
4024269177
4024275830
4024279858
4024286694
4024289441
4024296521
4024302441
4024307751
4024313428
4024317700
4024323498
4024329602
4024334546
4024340588
4024345654
4024349377
4024356640
4024362805
4024366894
4024372754
4024377637
4024382275
4024387280
4024391553
4024397961
4024403576
4024407971
4024414196
4024418652
4024425244
4024429577
4024435559
4024440197
4024446545
4024452588
4024457104
4024462658
4024468090
4024472302
4024476452
4024484814
4024490917
4024498669
4024502514
4024509167
4024513195
4024519238
4024523693
4024530285
4024535778
4024543041
4024547619
4024552258
4024558544
4024563305
4024567761
4024574535
4024580090
4024584240
4024590221
4024594616
4024599255
4024604809
4024610058
4024614574
4024621044
4024626110
4024631542
4024635265
4024640697
4024646252
4024650341
4024657360
4024663036
4024667309
4024672680
4024676586
4024681713
4024686779
4024691845
4024698742
4024704357
4024708751
4024714184
4024718273
4024723583
4024727733
4024733532
4024740673
4024745006
4024750255
4024755199
4024759777
4024766368
4024770763
4024777721
4024783763
4024787548
4024791698
4024798168
4024803722
4024807689
4024812084
4024818675
4024824108
4024828441
4024832775
4024838085
4024842296
4024848094
4024852306
4024858959
4024864269
4024868541
4024872630
4024878673
4024883495
4024888805
4024893077
4024898692
4024903880
4024909496
4024913890
4024919994
4024924205
4024929881
4024936107
4024940196
4024948619
4024953685
4024957896
4024963511
4024969005
4024974071
4024979503
4024981334
4024990428
4024995921
4025001903
4025006907
4025011729
4025019725
4025026317
4025029673
4025035838
4025042735
4025049388
4025052623
4025059214
4025062693
4025069163
4025073313
4025080455
4025085398
4025091685
4025096202
4025100901
4025106394
4025111704
4025115855
4025121958
4025129160
4025134226
4025140025
4025145152
4025150767
4025155528
4025161021
4025165904
4025171214
4025177988
4025182993
4025186289
4025194041
4025199839
4025204600
4025209177
4025214060
4025220652
4025226328
4025230845
4025236338
4025241770
4025247141
4025251475
4025256968
4025263499
4025269053
4025273752
4025279185
4025285959
4025290476
4025294382
4025301645
4025306162
4025312632
4025317331
4025323557
4025327890
4025332773
4025338388
4025341684
4025349619
4025354013
4025361704
4025366831
4025371958
4025377085
4025381113
4025385324
4025391733
4025395029
4025402231
4025405405
4025411447
4025415659
4025421518
4025426218
4025431955
4025437143
4025443735
4025448251
4025454782
4025459177
4025464121
4025469797
4025475412
4025479868
4025485910
4025491769
4025496835
4025501474
4025507272
4025512521
4025516061
4025522287
4025526987
4025533639
4025536935
4025543893
4025548715
4025553842
4025558114
4025563180
4025569650
4025578073
4025583505
4025589364
4025593332
4025599374
4025603036
4025609140
4025613656
4025619882
4025626107
4025631540
4025638986
4025645761
4025650888
4025658273
4025663583
4025669381
4025675302
4025680123
4025684274
4025690072
4025695687
4025697518
4025706124
4025710580
4025719918
4025738351
4025742928
4025748971
4025754952
4025760445
4025766000
4025771920
4025777596
4025780404
4025787179
4025792123
4025797311
4025801217
4025807503
4025813302
4025817269
4025824044
4025828377
4025834298
4025840279
4025846139
4025853890
4025859505
4025865792
4025871041
4025875924
4025880929
4025886056
4025891854
4025895394
4025902779
4025907174
4025913033
4025916146
4025923409
4025926522
4025932259
4025936715
4025942940
4025947213
4025951912
4025957527
4025964363
4025968697
4025973397
4025977730
4025983650
4025987740
4025992134
4025999520
4026005562
4026010018
4026015877
4026020638
4026025826
4026029915
4026036568
4026042732
4026047127
4026052803
4026057686
4026062508
4026066292
4026072456
4026076912
4026082527
4026087898
4026093941
4026099373
4026106087
4026111885
4026119148
4026124397
4026131843
4026136482
4026141304
4026146797
4026150703
4026154793
4026160408
4026166572
4026171699
4026177070
4026182380
4026186409
4026192207
4026194954
4026201729
4026205085
4026212898
4026217476
4026223457
4026227913
4026232856
4026237861
4026243721
4026249214
4026255378
4026259224
4026265022
4026270637
4026275032
4026281196
4026286079
4026292671
4026299140
4026304450
4026310554
4026312995
4026320503
4026323737
4026331306
4026336433
4026343757
4026348640
4026356086
4026360786
4026365241
4026371406
4026375617
4026382819
4026388801
4026393439
4026398444
4026404182
4026408698
4026414191
4026418098
4026424384
4026431098
4026434821
4026441230
4026447150
4026452521
4026457892
4026465156
4026470405
4026475837
4026480292
4026487494
4026491034
4026497382
4026501716
4026507575
4026514228
4026519843
4026524543
4026530707
4026535834
4026540900
4026543952
4026550055
4026554450
4026560981
4026566046
4026572394
4026575690
4026583014
4026586310
4026591986
4026598090
4026604193
4026608893
4026615729
4026620307
4026625922
4026630316
4026636115
4026643805
4026650763
4026658026
4026663519
4026667975
4026675238
4026678717
4026686713
4026690253
4026696783
4026701910
4026707220
4026711798
4026717291
4026722601
4026728705
4026735113
4026739691
4026745428
4026749701
4026752875
4026759833
4026762762
4026770209
4026775946
4026780035
4026785528
4026790228
4026795233
4026801336
4026806646
4026810675
4026815863
4026822760
4026825872
4026832769
4026836065
4026843145
4026847906
4026852667
4026859930
4026865362
4026870184
4026875067
4026879339
4026886297
4026890447
4026895758
4026901617
4026908514
4026914129
4026918585
4026924810
4026930364
4026935613
4026939642
4026945867
4026951849
4026956121
4026962042
4026966253
4026971624
4026976629
4026979742
4026985906
4026991033
4026997198
4027000310
4027006597
4027009161
4027016485
4027021429
4027026494
4027034490
4027039434
4027044805
4027049444
4027053472
4027058843
4027062627
4027069036
4027075200
4027080327
4027084844
4027089666
4027095586
4027101507
4027104619
4027112737
4027118230
4027123723
4027128545
4027134954
4027139898
4027146062
4027150945
4027156682
4027161687
4027166753
4027172734
4027176885
4027183049
4027188420
4027195073
4027201116
4027206059
4027212529
4027217900
4027222844
4027227239
4027232732
4027238408
4027244023
4027248662
4027256535
4027260930
4027266789
4027271001
4027276860
4027281926
4027285100
4027290715
4027296330
4027302739
4027308598
4027312810
4027317326
4027322758
4027327580
4027333440
4027339604
4027347661
4027352177
4027357731
4027362370
4027367924
4027372197
4027377873
4027384404
4027390141
4027394230
4027400334
4027407048
4027412236
4027419377
4027425114
4027430912
4027439396
4027443791
4027449711
4027455876
4027460636
4027466130
4027470768
4027477665
4027483280
4027487614
4027492924
4027497135
4027503056
4027508488
4027512882
4027517948
4027527165
4027531803
4027538029
4027542545
4027548039
4027552311
4027557011
4027561527
4027568974
4027574162
4027579288
4027584110
4027590275
4027595036
4027599552
4027607670
4027613102
4027617741
4027623722
4027628300
4027634769
4027639347
4027645572
4027650577
4027655643
4027660343
4027666141
4027670780
4027676639
4027680790
4027686832
4027693607
4027698917
4027703067
4027709720
4027713871
4027719303
4027724857
4027729496
4027734012
4027741947
4027747501
4027754825
4027760196
4027764591
4027769596
4027774051
4027779361
4027784427
4027789920
4027795535
4027801151
4027806644
4027810306
4027815555
4027821353
4027827152
4027831973
4027838687
4027844058
4027852176
4027857364
4027865176
4027870303
4027875735
4027882083
4027889285
4027894534
4027901675
4027906619
4027913455
4027921329
4027927676
4027932376
4027935855
4027944095
4027947391
4027953860
4027958499
4027963687
4027970462
4027977420
4027982058
4027987002
4027990909
4027997561
4028002017
4028007449
4028015384
4028019961
4028025515
4028030398
4028034732
4028041507
4028045291
4028050906
4028055178
4028062075
4028066226
4028072451
4028077090
4028082095
4028087527
4028092837
4028097109
4028102847
4028108462
4028114260
4028118655
4028124026
4028129153
4028132815
4028138430
4028144595
4028148684
4028154238
4028159792
4028164431
4028169619
4028174624
4028180361
4028185915
4028192385
4028196719
4028202273
4028205508
4028212649
4028218264
4028224978
4028229128
4028235476
4028240298
4028246889
4028252566
4028258974
4028264406
4028269594
4028275637
4028281496
4028286501
4028292543
4028297304
4028305178
4028310671
4028317873
4028323793
4028331057
4028335756
4028340578
4028346132
4028350466
4028356142
4028359499
4028366030
4028372072
4028377138
4028381899
4028387209
4028391908
4028397890
4028402773
4028410036
4028415468
4028422304
4028427248
4028432680
4028439699
4028445924
4028453310
4028459291
4028465517
4028471620
4028477846
4028484499
4028488771
4028497865
4028501771
4028509950
4028515565
4028523012
4028528078
4028532716
4028539491
4028544923
4028551393
4028556337
4028562318
4028568605
4028574708
4028579774
4028586427
4028591127
4028596498
4028599733
4028606630
4028614381
4028620790
4028625123
4028630922
4028634217
4028640809
4028646669
4028651734
4028656495
4028664491
4028669068
4028674256
4028679200
4028684999
4028689759
4028695985
4028700929
4028707765
4028712403
4028717652
4028722291
4028728028
4028732362
4028738282
4028745301
4028750611
4028755494
4028761292
4028767762
4028774171
4028779542
4028787049
4028793519
4028800782
4028805726
4028810731
4028817506
4028822816
4028827454
4028833192
4028838257
4028845460
4028850159
4028856690
4028861756
4028868531
4028872986
4028875977
4028883667
4028889222
4028898072
4028904602
4028910035
4028914795
4028921387
4028926087
4028932190
4028938660
4028944275
4028948975
4028954529
4028961060
4028965760
4028970337
4028976258
4028982178
4028989075
4028995423
4029003601
4029009766
4029018738
4029026062
4029032532
4029040222
4029046448
4029050598
4029054688
4029059326
4029063721
4029068054
4029073608
4029077759
4029081909
4029085937
4029090820
4029094543
4029098816
4029104187
4029109314
4029113708
4029117798
4029122131
4029126221
4029129761
4029136108
4029140564
4029144836
4029150146
4029154602
4029159668
4029164367
4029167968
4029172973
4029177246
4029182129
4029186340
4029190551
4029195312
4029199585
4029204834
4029209472
4029213318
4029218383
4029222168
4029228088
4029230896
4029238952
4029243286
4029248474
4029253540
4029258605
4029263427
4029268188
4029273376
4029277404
4029283081
4029288391
4029292175
4029297790
4029302551
4029306579
4029312621
4029317870
4029324462
4029328613
4029334289
4029338744
4029344360
4029349975
4029354552
4029360534
4029365661
4029372314
4029377685
4029381957
4029385192
4029393310
4029396911
4029404662
4029410400
4029417480
4029420470
4029427367
4029431884
4029437011
4029441283
4029446105
4029452819
4029458861
4029463439
4029468139
4029472411
4029478087
4029483642
4029489440
4029494689
4029501647
4029506102
4029510131
4029516295
4029521910
4029526061
4029530883
4029538329
4029542662
4029550475
4029554076
4029560485
4029565367
4029570922
4029575377
4029582091
4029588317
4029594176
4029598692
4029603758
4029609435
4029620360
4029625426
4029632079
4029637511
4029642210
4029649291
4029654540
4029660948
4029664183
4029671934
4029678709
4029685240
4029689940
4029695433
4029700133
4029707945
4029713438
4029718687
4029723631
4029731016
4029737059
4029742125
4029747984
4029753233
4029758360
4029762571
4029769346
4029773619
4029779295
4029783140
4029788267
4029793516
4029798277
4029805296
4029810484
4029816648
4029821959
4029827574
4029833128
4029837461
4029843321
4029849241
4029854307
4029860105
4029865049
4029869261
4029874998
4029879820
4029884641
4029889768
4029896116
4029903013
4029907835
4029913084
4029917722
4029923399
4029927793
4029933042
4029940672
4029947080
4029952512
4029962034
4029964780
4029971372
4029977415
4029981504
4029988218
4029993650
4029997556
4030003416
4030009275
4030013730
4030019712
4030024412
4030029294
4030035215
4030041868
4030047361
4030050657
4030056882
4030061704
4030067563
4030072568
4030079343
4030084043
4030089780
4030094785
4030100278
4030104490
4030109616
4030116330
4030121579
4030127439
4030133298
4030139157
4030147580
4030153440
4030158994
4030163632
4030166989
4030175717
4030180173
4030186276
4030191159
4030196225
4030202085
4030208493
4030215207
4030221677
4030226865
4030231259
4030233945
4030242856
4030246091
4030252927
4030259091
4030265256
4030269833
4030275388
4030280270
4030285458
4030290951
4030296750
4030303158
4030309567
4030314206
4030319821
4030325497
4030329892
4030335568
4030339718
4030346127
4030352170
4030358395
4030362973
4030368588
4030371884
4030377743
4030382321
4030388607
4030393856
4030399960
4030405087
4030410641
4030418698
4030423519
4030427731
4030434079
4030440853
4030446286
4030452755
4030458554
4030463497
4030470150
4030474789
4030479916
4030485531
4030491024
4030497921
4030502621
4030508175
4030512570
4030517635
4030524654
4030530331
4030538326
4030544064
4030549862
4030555111
4030560787
4030565731
4030570003
4030573360
4030582333
4030588436
4030593075
4030596249
4030604610
4030608211
4030615963
4030621334
4030626400
4030632625
4030639278
4030644649
4030651241
4030658199
4030662960
4030670101
4030675838
4030681209
4030688167
4030693233
4030700008
4030707637
4030713497
4030719356
4030726192
4030732051
4030739559
4030743953
4030749935
4030754329
4030760677
4030766292
4030773067
4030778133
4030781978
4030790035
4030793453
4030800838
4030806514
4030811763
4030816524
4030822017
4030827449
4030835811
4030839107
4030845699
4030850398
4030855891
4030860530
4030866573
4030872920
4030878719
4030885615
4030890987
4030895442
4030902888
4030908931
4030915278
4030920344
4030926265
4030930659
4030937495
4030944087
4030949824
4030955378
4030960689
4030968501
4030974238
4030980281
4030984492
4030989131
4030995417
4030998408
4031004939
4031010127
4031017085
4031021357
4031027888
4031033259
4031038691
4031043513
4031048762
4031056513
4031063594
4031066767
4031073786
4031079707
4031084406
4031088557
4031094966
4031099970
4031107111
4031112971
4031122797
4031129328
4031135798
4031142878
4031148676
4031153742
4031161188
4031166315
4031172419
4031178828
4031185969
4031190913
4031196772
4031204279
4031210016
4031215998
4031221369
4031227717
4031233942
4031238215
4031244135
4031248713
4031255976
4031262568
4031264643
4031273737
4031278071
4031284845
4031290155
4031296808
4031304255
4031309320
4031315485
4031319757
4031326105
4031331293
4031336054
4031341181
4031347834
4031354730
4031359552
4031365839
4031370478
4031376215
4031381830
4031386041
4031390863
4031399957
4031404352
4031407587
4031414972
4031421014
4031426447
4031431635
4031437006
4031442072
4031448358
4031452509
4031459283
4031463556
4031469232
4031473810
4031480890
4031485467
4031491266
4031497125
4031501825
4031508111
4031511590
4031519037
4031522333
4031529169
4031536004
4031540582
4031546808
4031551751
4031556756
4031561578
4031566400
4031571893
4031577203
4031584283
4031589349
4031594354
4031598993
4031603936
4031609552
4031614007
4031620782
4031628167
4031632501
4031636651
4031642877
4031646356
4031653375
4031658868
4031663018
4031668633
4031674920
4031679742
4031684930
4031691094
4031696282
4031701959
4031709161
4031715814
4031722894
4031727349
4031733636
4031738030
4031743462
4031748956
4031754266
4031759026
4031765618
4031770379
4031776543
4031782586
4031786980
4031792596
4031798333
4031804558
4031810052
4031814934
4031821465
4031826287
4031831963
4031837151
4031840508
4031847039
4031851922
4031857720
4031862481
4031869256
4031874260
4031879754
4031883904
4031889336
4031897332
4031902459
4031908867
4031914543
4031919121
4031925347
4031929802
4031935540
4031942375
4031947319
4031953301
4031958672
4031964531
4031970940
4031976372
4031981194
4031987297
4031992180
4031999565
4032005730
4032010429
4032016960
4032022698
4032027092
4032033989
4032039116
4032046379
4032051872
4032056023
4032061455
4032067070
4032072441
4032076897
4032083610
4032088066
4032094414
4032099113
4032105461
4032109367
4032115166
4032119316
4032126762
4032131157
4032137382
4032141716
4032146476
4032152824
4032157585
4032162468
4032169182
4032173881
4032180046
4032184623
4032188774
4032194267
4032200065
4032205070
4032211906
4032218254
4032222709
4032225944
4032233268
4032237541
4032243827
4032247123
4032254081
4032258171
4032271659
4032277824
4032283500
4032289787
4032292960
4032298576
4032304679
4032310783
4032315543
4032321647
4032326286
4032332450
4032337089
4032343131
4032351310
4032357963
4032362540
4032367728
4032373771
4032378409
4032384086
4032387504
4032395316
4032399161
4032405692
4032408988
4032415336
4032420218
4032426139
4032430716
4032437125
4032442313
4032448356
4032453055
4032458915
4032464042
4032470450
4032474601
4032479911
4032485648
4032491874
4032497611
4032503897
4032508292
4032513968
4032519522
4032524222
4032528800
4032533622
4032543265
4032546622
4032554129
4032559806
4032564078
4032569571
4032576529
4032583365
4032587821
4032591239
4032598502
4032603140
4032609427
4032614737
4032619620
4032626028
4032632864
4032637564
4032643423
4032648123
4032653494
4032657889
4032662955
4032670523
4032675650
4032681937
4032687125
4032693289
4032698111
4032703604
4032706961
4032713736
4032717459
4032725210
4032728567
4032734976
4032739737
4032745962
4032750601
4032755484
4032762198
4032767325
4032772207
4032777639
4032782034
4032788382
4032792532
4032797476
4032803274
4032809866
4032814688
4032820791
4032824942
4032831411
4032835806
4032838858
4032849905
4032854666
4032862478
4032865896
4032872732
4032877310
4032883779
4032886587
4032892690
4032899343
4032905691
4032908804
4032916921
4032921682
4032928091
4032933889
4032939260
4032945242
4032950979
4032957143
4032961599
4032966054
4032973318
4032977407
4032983816
4032989614
4032996755
4033001821
4033007924
4033013296
4033019460
4033024953
4033031728
4033036794
4033042531
4033047475
4033055105
4033061330
4033066274
4033072683
4033078542
4033084951
4033090017
4033095998
4033100881
4033106496
4033114064
4033118642
4033125478
4033132314
4033139089
4033145192
4033150258
4033156362
4033161428
4033167531
4033172963
4033179799
4033186635
4033192128
4033197621
4033202748
4033209645
4033214528
4033219838
4033224049
4033229970
4033234731
4033241872
4033246938
4033251576
4033257924
4033263478
4033269948
4033273976
4033280080
4033284230
4033291554
4033296925
4033303639
4033310292
4033315419
4033318593
4033325612
4033331898
4033337758
4033344960
4033349354
4033354847
4033360096
4033365895
4033370778
4033374928
4033380726
4033392567
4033397572
4033402027
4033409352
4033415394
4033421376
4033426808
4033430653
4033435841
4033441700
4033446217
4033451344
4033459645
4033465626
4033470936
4033476734
4033481678
4033488514
4033492115
4033499867
4033504444
4033509876
4033515125
4033519581
4033526356
4033533009
4033537769
4033542408
4033547108
4033554005
4033558094
4033566212
4033574085
4033580067
4033588245
4033591663
4033600025
4033604175
4033612903
4033619678
4033625110
4033630726
4033637012
4033640247
4033649036
4033655567
4033659656
4033666492
4033670826
4033676380
4033681812
4033685169
4033692127
4033695667
4033702259
4033707447
4033714588
4033719287
4033724536
4033729175
4033734668
4033738880
4033744373
4033750110
4033756092
4033761035
4033767139
4033773731
4033778369
4033784534
4033788135
4033794849
4033800708
4033809009
4033814685
4033819629
4033824939
4033829944
4033836658
4033841174
4033846423
4033852893
4033857410
4033864062
4033868823
4033874805
4033879504
4033883227
4033891772
4033897937
4033905444
4033909534
4033916064
4033921435
4033927600
4033933032
4033939258
4033949389
4033955737
4033960803
4033967517
4033974048
4033979541
4033986621
4033991931
4033997546
4034005542
4034011096
4034017871
4034023181
4034029833
4034036914
4034044299
4034050402
4034057299
4034062182
4034068652
4034075060
4034080554
4034086840
4034092761
4034099902
4034105700
4034110583
4034114306
4034123217
4034127734
4034136156
4034142443
4034148302
4034152331
4034160387
4034165087
4034173205
4034177294
4034184679
4034189013
4034195849
4034201403
4034206957
4034211413
4034218065
4034221239
4034228197
4034233812
4034239611
4034246569
4034255053
4034260851
4034265184
4034271654
4034276232
4034282824
4034289476
4034295641
4034303392
4034308641
4034314257
4034318407
4034325121
4034330248
4034337328
4034340746
4034347887
4034353075
4034358507
4034364061
4034369310
4034375597
4034382555
4034387254
4034392137
4034399217
4034403246
4034409349
4034414964
4034421739
4034426500
4034431932
4034437975
4034443163
4034449266
4034456651
4034463731
4034468614
4034473802
4034480516
4034485582
4034491502
4034497972
4034505662
4034513170
4034520860
4034526170
4034531419
4034537767
4034544298
4034548509
4034552720
4034559312
4034564805
4034569444
4034576158
4034582750
4034587632
4034593553
4034598802
4034603624
4034609178
4034616380
4034622850
4034628343
4034632981
4034637376
4034641770
4034649156
4034656297
4034662034
4034668015
4034673570
4034680345
4034683762
4034690476
4034696580
4034705735
4034710130
4034715989
4034721055
4034725816
4034731736
4034737107
4034744431
4034751694
4034756150
4034760728
4034767930
4034771043
4034777695
4034782456
4034788621
4034793931
4034800034
4034803940
4034810105
4034815415
4034821763
4034825974
4034833542
4034836777
4034843796
4034850815
4034855637
4034860215
4034866318
4034871689
4034878464
4034881760
4034887680
4034893662
4034898484
4034902634
4034908188
4034914658
4034919358
4034926010
4034931198
4034935715
4034941513
4034947800
4034952622
4034957260
4034963974
4034971970
4034975510
4034981796
4034987534
4034993637
4034998703
4035005905
4035010788
4035017441
4035024643
4035031235
4035036728
4035043930
4035048813
4035056076
4035062118
4035069443
4035075119
4035080063
4035085739
4035090988
4035096420
4035101791
4035107651
4035114181
4035118637
4035124435
4035129928
4035133896
4035139511
4035144821
4035149215
4035156967
4035162277
4035165695
4035173690
4035176803
4035183395
4035190292
4035195480
4035200302
4035206955
4035212265
4035218917
4035225631
4035231124
4035237167
4035241622
4035246932
4035253768
4035260604
4035265914
4035272384
4035277877
4035284347
4035290023
4035295882
4035304305
4035309493
4035314010
4035321151
4035325668
4035333236
4035338790
4035344710
4035349715
4035357589
4035364120
4035370162
4035375350
4035381148
4035385787
4035391524
4035396407
4035402328
4035407027
4035413802
4035418502
4035423140
4035427840
4035433638
4035438704
4035445235
4035447982
4035455428
4035460250
4035465987
4035471053
4035476790
4035482161
4035487960
4035494857
4035502669
4035509200
4035514327
4035520796
4035522811
4035530623
4035537398
4035542159
4035548689
4035553084
4035557173
4035565840
4035569502
4035576582
4035583052
4035590498
4035595808
4035600813
4035604414
4035613081
4035616805
4035622847
4035629805
4035637434
4035641219
4035648604
4035656294
4035660200
4035664839
4035671126
4035679243
4035684920
4035690047
4035694441
4035700361
4035705183
4035709761
4035715498
4035720564
4035726729
4035732039
4035738325
4035743269
4035749800
4035755354
4035761946
4035767073
4035771528
4035775434
4035782392
4035787336
4035793928
4035798933
4035804731
4035809614
4035818037
4035823835
4035829634
4035835554
4035842329
4035851301
4035856367
4035864729
4035867780
4035880476
4035883589
4035895796
4035903791
4035911543
4035919172
4035927229
4035936445
4035943525
4035955915
4035960798
4035970746
4035974775
4035984479
4035992048
4035994428
4036006513
4036013776
4036021833
4036027692
4036035566
4036041364
4036047284
4036053327
4036059797
4036068769
4036073652
4036082685
4036090741
4036097638
4036104047
4036108991
4036117536
4036124738
4036129987
4036136395
4036143170
4036150983
4036155988
4036166242
4036173749
4036179242
4036186078
4036191266
4036201825
4036210309
4036218671
4036225690
4036233990
4036241986
4036248517
4036259564
4036267071
4036276532
4036281598
4036290326
4036296856
4036302106
4036310956
4036317547
4036326825
4036333539
4036339215
4036347332
4036352154
4036364666
4036372357
4036375225
4036387921
4036393109
4036399639
4036408428
4036414166
4036427166
4036434735
4036446209
4036450360
4036458172
4036465923
4036470501
4036477337
4036484234
4036491009
4036495403
4036504864
4036512249
4036521893
4036528973
4036537579
4036546856
4036552471
4036563702
4036569134
4036577495
4036587017
4036590740
4036603924
4036606304
4036618145
4036625530
4036631633
4036643108
4036646526
4036658184
4036665264
4036673198
4036681438
4036685344
4036696575
4036701519
4036709758
4036716716
4036725872
4036732341
4036739726
4036746562
4036756938
4036761821
4036772197
4036782451
4036785747
4036797405
4036804973
4036812846
4036819011
4036823528
4036833659
4036839519
4036847270
4036852153
4036862590
4036870402
4036880473
4036888225
4036896159
4036904094
4036913249
4036920695
4036927409
4036938029
4036943034
4036952800
4036960612
4036969462
4036976237
4036981547
4036991435
4036999613
4037007792
4037011943
4037021159
4037027079
4037029887
4037040568
4037045085
4037052348
4037059611
4037071940
4037077982
4037084086
4037091044
4037095988
4037104105
4037110087
4037118937
4037125285
4037134257
4037141093
4037144266
4037153483
4037157938
4037169230
4037176920
4037182780
4037190104
4037197489
4037209391
4037214884
4037222269
4037229349
4037236734
4037243448
4037250956
4037257242
4037264322
4037271830
4037280436
4037285929
4037294718
4037303263
4037312845
4037319376
4037324442
4037332620
4037339762
4037347452
4037353555
4037360391
4037367410
4037373453
4037381143
4037387613
4037393533
4037402261
4037408670
4037415384
4037422891
4037429300
4037434305
4037443704
4037450235
4037455728
4037462381
4037473245
4037480020
4037485025
4037493387
4037500162
4037506387
4037513162
4037519998
4037526651
4037533731
4037544778
4037552591
4037559915
4037566751
4037569863
4037580667
4037588906
4037594888
4037604592
4037613442
4037620706
4037626199
4037635232
4037642190
4037650369
4037656411
4037661355
4037669595
4037679482
4037692178
4037694619
4037704507
4037712075
4037719949
4037726235
4037729897
4037739480
4037745034
4037753152
4037759743
4037766701
4037772683
4037778542
4037786416
4037791054
4037799538
4037807351
4037813271
4037821633
4037828164
4037834389
4037839821
4037847634
4037853859
4037862282
4037868874
4037875649
4037882119
4037886879
4037896340
4037903664
4037908913
4037917214
4037923989
4037930397
4037938210
4037948464
4037955422
4037963112
4037969460
4037975746
4037982521
4037989723
4037996864
4038004250
4038012306
4038019203
4038024269
4038033424
4038038429
4038045692
4038052345
4038059059
4038065529
4038076271
4038083473
4038090553
4038097511
4038103615
4038109779
4038116615
4038125587
4038134315
4038141395
4038154945
4038161171
4038170326
4038177223
4038186683
4038194740
4038201698
4038210609
4038215797
4038225562
4038231971
4038241493
4038248939
4038252235
4038263282
4038271339
4038279945
4038287696
4038291541
4038302894
4038310950
4038319312
4038326087
4038331458
4038341346
4038346961
4038354835
4038362952
4038370948
4038378760
4038384681
4038392737
4038400306
4038409217
4038416541
4038423987
4038430762
4038438269
4038448279
4038455909
4038463111
4038470252
4038475501
4038484656
4038492530
4038501929
4038510352
4038513587
4038526526
4038532019
4038540015
4038547217
4038554114
4038563880
4038571631
4038577368
4038585425
4038594885
4038604529
4038611487
4038622595
4038630408
4038636999
4038642554
4038650305
4038658606
4038668799
4038675390
4038681982
4038689367
4038694678
4038703467
4038709875
4038716162
4038724524
4038732702
4038739111
4038745092
4038751989
4038758581
4038764685
4038770422
4038777502
4038783483
4038794470
4038800939
4038805090
4038814367
4038820715
4038827612
4038833654
4038838049
4038847082
4038854162
4038862402
4038866430
4038873510
4038881994
4038888158
4038894933
4038902868
4038910497
4038918188
4038922033
4038932836
4038940526
4038948156
4038954565
4038962560
4038969701
4038975377
4038982396
4038989293
4038999181
4039004064
4039011144
4039022008
4039029027
4039038854
4039046788
4039053258
4039062413
4039068761
4039077367
4039084081
4039090306
4039097509
4039104528
4039112096
4039122045
4039128942
4039137059
4039144322
4039151097
4039156651
4039162877
4039168858
4039173863
4039181187
4039186437
4039194127
4039198582
4039205357
4039210179
4039216038
4039221898
4039226598
4039232396
4039238805
4039244725
4039249425
4039254979
4039259923
4039265599
4039270299
4039276158
4039282445
4039286961
4039290562
4039298375
4039302098
4039309483
4039312718
4039319859
4039325413
4039330601
4039338414
4039344578
4039350438
4039356602
4039359410
4039369297
4039373875
4039379429
4039385655
4039390232
4039393528
4039401097
4039404331
4039411106
4039419834
4039425083
4039427769
4039436558
4039440159
4039446934
4039451512
4039457859
4039463047
4039468113
4039474888
4039479038
4039485203
4039489719
4039495396
4039499973
4039504307
4039512058
4039518040
4039523167
4039528843
4039533909
4039539463
4039544468
4039548862
4039555820
4039562229
4039565769
4039572117
4039577305
4039584751
4039590061
4039594639
4039599094
4039606662
4039611545
4039616367
4039622410
4039628574
4039632846
4039637607
4039644077
4039652195
4039657505
4039663791
4039669345
4039674839
4039680332
4039685337
4039690341
4039694248
4039702182
4039705478
4039711948
4039716648
4039722751
4039727390
4039733188
4039738254
4039744968
4039749667
4039755893
4039760104
4039766513
4039772067
4039777255
4039781650
4039788364
4039794650
4039800143
4039805453
4039811923
4039818820
4039822726
4039829074
4039835666
4039842990
4039849155
4039854648
4039859714
4039864352
4039869601
4039876254
4039882297
4039889193
4039892123
4039898898
4039903171
4039908847
4039915683
4039920932
4039925692
4039932040
4039938388
4039943148
4039949862
4039954867
4039959079
4039964877
4039969882
4039976657
4039981600
4039987704
4039993746
4039999484
4040003573
4040009493
4040015353
4040020846
4040026583
4040033053
4040037264
4040042697
4040048312
4040050265
4040058627
4040065218
4040069796
4040073031
4040080721
4040084261
4040090975
4040095553
4040100558
4040105074
4040112154
4040117037
4040122835
4040127291
4040132845
4040136996
4040142672
4040149019
4040155123
4040161654
4040167452
4040172518
4040179415
4040183870
4040189425
4040194918
4040200960
4040207491
4040212618
4040218721
4040225069
4040232576
4040237825
4040243258
4040247835
4040256075
4040260836
4040267183
4040271700
4040277681
4040282076
4040288484
4040293001
4040300081
4040304903
4040310396
4040315889
4040320650
4040326204
4040331575
4040335726
4040342195
4040348848
4040354463
4040358980
4040364351
4040369295
4040375215
4040380098
4040387178
4040390779
4040398714
4040403780
4040410005
4040415559
4040422822
4040428682
4040433565
4040439180
4040446504
4040451753
4040458345
4040464082
4040468477
4040476777
4040481111
4040488313
4040494111
4040498750
4040504548
4040510713
4040515229
4040519380
4040527681
4040533174
4040537385
4040543245
4040548310
4040552949
4040559053
4040565889
4040571809
4040576814
4040582185
4040587190
4040595063
4040598603
4040605256
4040610383
4040616426
4040621491
4040628877
4040632600
4040642304
4040646516
4040653657
4040659516
4040666596
4040671418
4040679108
4040681611
4040690461
4040694184
4040702485
4040709077
4040712800
4040718903
4040724946
4040730378
4040736054
4040742341
4040747040
4040752289
4040757905
4040762726
4040767060
4040772797
4040779145
4040783722
4040789338
4040797699
4040805512
4040810883
4040815033
4040820343
4040826020
4040830597
4040836457
4040843415
4040848053
4040852021
4040858246
4040863800
4040869477
4040873627
4040879731
4040887604
4040891938
4040895233
4040902619
4040905976
4040914093
4040919098
4040924347
4040930145
4040937592
4040942658
4040949371
4040956024
4040962860
4040969025
4040973663
4040977570
4040984955
4040991852
4040998566
4041004913
4041010345
4041018341
4041024811
4041033722
4041040069
4041046722
4041052643
4041058624
4041065277
4041071686
4041077118
4041084198
4041089996
4041096039
4041102630
4041107879
4041115265
4041118866
4041126373
4041132660
4041138458
4041141815
4041148101
4041154449
4041159454
4041164093
4041169769
4041174713
4041183258
4041188323
4041194793
4041200103
4041205841
4041211334
4041219085
4041223113
4041235015
4041240569
4041246429
4041251678
4041257537
4041262176
4041267669
4041274261
4041280608
4041285735
4041293243
4041298309
4041304534
4041310638
4041315948
4041320342
4041327972
4041333831
4041338836
4041344634
4041349456
4041356048
4041360808
4041368011
4041373076
4041378814
4041385222
4041387175
4041396331
4041400908
4041410369
4041414763
4041422210
4041430571
4041435088
4041439666
4041446074
4041451323
4041455657
4041460295
4041466704
4041472197
4041477324
4041482939
4041491179
4041497649
4041505889
4041510161
4041520110
4041527861
4041535491
4041542510
4041552519
4041560271
4041567534
4041575835
4041581023
4041591216
4041598601
4041605681
4041616179
4041624663
4041632414
4041640044
4041643400
4041655363
4041663481
4041670073
4041678129
4041687834
4041693937
4041699186
4041708525
4041716520
4041725431
4041732206
4041737577
4041746000
4041754728
4041764311
4041771635
4041780119
4041787321
4041792570
4041800566
4041807463
4041816496
4041824186
4041831327
4041840971
4041845121
4041854276
4041860197
4041866300
4041874784
4041879728
4041886930
4041894926
4041906339
4041913175
4041920194
4041927091
4041932523
4041941068
4041947355
4041955228
4041962003
4041972196
4041978971
4041984037
4041991483
4041998258
4042007230
4042014127
4042019498
4042028775
4042039640
4042046720
4042053006
4042060941
4042071073
4042074430
4042087125
4042093045
4042102201
4042110379
4042120328
4042127591
4042130643
4042142239
4042146634
4042155118
4042161954
4042167142
4042176480
4042186307
4042195157
4042202481
4042209927
4042217251
4042227872
4042235806
4042241665
4042253262
4042258328
4042269986
4042283719
4042291775
4042298611
4042306485
4042313382
4042318997
4042329251
4042337124
4042344571
4042351467
4042359219
4042366055
4042371853
4042380947
4042387966
4042395596
4042402432
4042408840
4042419460
4042427029
4042433987
4042440640
4042445522
4042455166
4042462673
4042470242
4042477871
4042487270
4042493923
4042496670
4042507107
4042514675
4042522610
4042529262
4042532314
4042543972
4042551235
4042558986
4042565273
4042572719
4042579555
4042587673
4042594204
4042601162
4042608242
4042616420
4042624111
4042630764
4042635463
4042643276
4042649929
4042658168
4042664577
4042671901
4042679592
4042690273
4042697597
4042704799
4042711513
4042717983
4042725734
4042733302
4042735256
4042745448
4042752834
4042760524
4042766933
4042774928
4042781825
4042784755
4042795497
4042802394
4042810634
4042814906
4042824306
4042831264
4042833766
4042845912
4042850734
4042859035
4042864955
4042872767
4042879054
4042885768
4042891749
4042898402
4042905726
4042911952
4042921595
4042927882
4042932887
4042940943
4042948634
4042955531
4042962855
4042970545
4042978236
4042983424
4042992457
4043000636
4043013758
4043023097
4043031153
4043037928
4043045130
4043050562
4043054957
4043062769
4043068507
4043071009
4043082545
4043089686
4043097437
4043102076
4043109583
4043117518
4043131190
4043139429
4043146448
4043156885
4043163233
4043169703
4043175623
4043181910
4043190149
4043193995
4043200769
4043208765
4043211634
4043223047
4043229151
4043235987
4043242090
4043247400
4043252893
4043259180
4043265955
4043272364
4043283899
4043288416
4043296778
4043303247
4043312036
4043320459
4043328760
4043335657
4043344263
4043351770
4043359155
4043365869
4043373438
4043380518
4043387781
4043394800
4043403223
4043409448
4043419519
4043424524
4043432092
4043441736
4043448511
4043455957
4043462854
4043471582
4043479150
4043485742
4043493737
4043501245
4043507104
4043514978
4043523462
4043530297
4043535241
4043544274
4043552087
4043558679
4043569848
4043575097
4043582177
4043588769
4043597070
4043604333
4043609643
4043619409
4043624963
4043636926
4043643945
4043651574
4043659875
4043665795
4043675500
4043681664
4043688744
4043696801
4043703454
4043710595
4043717553
4043724816
4043731225
4043738244
4043744774
4043752099
4043758996
4043766198
4043777123
4043784386
4043787072
4043798241
4043806847
4043812584
4043821068
4043826500
4043834252
4043840172
4043850426
4043854698
4043862816
4043869164
4043876610
4043883690
4043887902
4043896507
4043906639
4043913353
4043920799
4043929710
4043937096
4043942406
4043951866
4043956078
4043964928
4043971519
4043978844
4043991600
4043999657
4044006370
4044011803
4044021324
4044027855
4044034263
4044040672
4044048668
4044055076
4044057701
4044070030
4044075340
4044083336
4044089500
4044097252
4044104149
4044113060
4044121849
4044127952
4044135337
4044142845
4044150108
4044156639
4044159446
4044172142
4044180870
4044188438
4044195396
4044201438
4044207969
4044215659
4044224326
4044229759
4044236594
4044244163
4044253196
4044259666
4044266868
4044273277
4044281699
4044286887
4044293296
4044302634
4044309470
4044319297
4044325645
4044330222
4044339011
4044346763
4044353354
4044359214
4044366660
4044373740
4044379050
4044387778
4044394492
4044401633
4044408652
4044417136
4044423362
4044427878
4044437461
4044444724
4044452780
4044456870
4044465476
4044471030
4044476645
4044484458
4044488425
4044496848
4044504843
4044510825
4044514182
4044522055
4044525778
4044533774
4044539084
4044546225
4044553427
4044557822
4044563071
4044569235
4044574606
4044580466
4044586142
4044592673
4044598715
4044604391
4044608969
4044614584
4044619894
4044625571
4044630331
4044636618
4044644308
4044649069
4044655417
4044660299
4044666403
4044672018
4044673849
4044681784
4044688498
4044694906
4044700766
4044706015
4044712667
4044720419
4044725485
4044732443
4044738058
4044744894
4044750082
4044755453
4044759603
4044765646
4044770101
4044776449
4044780783
4044787313
4044792318
4044799459
4044804586
4044811422
4044816244
4044819967
4044826437
4044832662
4044839681
4044844686
4044850729
4044855856
4044862081
4044866903
4044873373
4044878561
4044886129
4044892599
4044898214
4044903219
4044909505
4044915792
4044921041
4044926595
4044934896
4044941366
4044946676
4044951253
4044954061
4044962789
4044967977
4044973226
4044979879
4044986776
4044992391
4044998311
4045004354
4045010884
4045015523
4045021810
4045029012
4045036031
4045042501
4045048543
4045052877
4045056050
4045063924
4045069966
4045075337
4045081746
4045089986
4045095601
4045099812
4045104146
4045110860
4045116231
4045122884
4045127767
4045135335
4045140157
4045146504
4045151814
4045158528
4045163045
4045168294
4045173482
4045178609
4045186970
4045192403
4045198018
4045202595
4045209248
4045213887
4045220601
4045225484
4045231587
4045238301
4045243489
4045249775
4045254536
4045260762
4045264485
4045270649
4045276875
4045284626
4045289631
4045295063
4045299885
4045306782
4045311543
4045318257
4045323140
4045331623
4045339680
4045345845
4045352192
4045357868
4045362080
4045365498
4045373127
4045380085
4045385334
4045390644
4045397358
4045401020
4045408405
4045411640
4045419514
4045426411
4045432636
4045438435
4045444416
4045449421
4045456867
4045463154
4045467548
4045473835
4045480122
4045485249
4045488789
4045498127
4045502338
4045509785
4045515644
4045521442
4045526752
4045533344
4045538593
4045545795
4045551044
4045556965
4045561420
4045567890
4045572712
4045579609
4045586322
4045588337
4045598224
4045603107
4045609089
4045612995
4045620929
4045626606
4045634479
4045639972
4045645832
4045651630
4045658588
4045664997
4045669757
4045675373
4045681293
4045687824
4045692401
4045698810
4045703510
4045710651
4045714923
4045721576
4045728595
4045733478
4045738788
4045743976
4045749103
4045755695
4045760883
4045766132
4045771320
4045778583
4045783588
4045789996
4045795184
4045802020
4045808368
4045812091
4045818561
4045824481
4045831439
4045836566
4045844073
4045847796
4045856524
4045860248
4045870562
4045875323
4045883624
4045890216
4045897357
4045903033
4045910113
4045916217
4045921099
4045931170
4045936908
4045947344
4045955340
4045960040
4045967791
4045975726
4045982928
4045991839
4046001605
4046009417
4046017046
4046026995
4046034258
4046041766
4046048052
4046050860
4046060809
4046068682
4046073626
4046081377
4046090105
4046097491
4046104632
4046111651
4046119158
4046125994
4046133013
4046140886
4046148943
4046155840
4046165362
4046172747
4046180437
4046187334
4046192644
4046201494
4046208208
4046216204
4046223589
4046229448
4046239519
4046247515
4046255205
4046262529
4046270159
4046278337
4046283098
4046292497
4046300249
4046310442
4046318132
4046323442
4046331682
4046338457
4046346819
4046356401
4046361650
4046369768
4046378252
4046385026
4046392168
4046400835
4046408586
4046414567
4046422929
4046429216
4046437700
4046445085
4046453264
4046460649
4046467729
4046474687
4046480729
4046487626
4046495683
4046498307
4046507524
4046515702
4046524675
4046533097
4046538652
4046545793
4046551164
4046561235
4046565507
4046573075
4046581986
4046589555
4046596513
4046599259
4046611222
4046616654
4046624955
4046631486
4046634354
4046644975
4046652055
4046662431
4046669755
4046676408
4046683121
4046690812
4046697404
4046702347
4046710099
4046717118
4046725297
4046732743
4046737748
4046747086
4046754899
4046762650
4046768998
4046776627
4046782975
4046789994
4046801163
4046806351
4046814957
4046821610
4046827896
4046834366
4046838883
4046848282
4046855423
4046863480
4046874283
4046884842
4046890701
4046898087
4046904068
4046912857
4046918839
4046924149
4046933365
4046940262
4046946732
4046952835
4046961380
4046968338
4046974075
4046981460
4046988724
4046998123
4047005142
4047012649
4047019119
4047023758
4047035232
4047041397
4047049881
4047056534
4047063308
4047072220
4047077346
4047086136
4047092727
4047097549
4047104934
4047113479
4047121353
4047130691
4047137588
4047144363
4047151565
4047158767
4047164321
4047173049
4047179397
4047187271
4047193618
4047205093
4047211929
4047216689
4047225112
4047231948
4047238784
4047245437
4047251968
4047258804
4047268935
4047278213
4047285598
4047292495
4047299636
4047307082
4047314773
4047322280
4047329055
4047335586
4047343703
4047349624
4047357619
4047362868
4047369399
4047374587
4047379958
4047386367
4047390273
4047398146
4047401992
4047409011
4047414382
4047421401
4047426833
4047434157
4047441176
4047447219
4047451064
4047459731
4047465590
4047471144
4047474745
4047481764
4047487563
4047495070
4047500441
4047506545
4047511916
4047516615
4047522902
4047524977
4047534010
4047541212
4047546034
4047552138
4047556898
4047562025
4047569350
4047572646
4047579603
4047584669
4047592360
4047597304
4047603468
4047610304
4047615431
4047622694
4047629103
4047634718
4047642470
4047649183
4047654799
4047661024
4047667128
4047672072
4047678419
4047684523
4047689833
4047695631
4047701735
4047707228
4047712599
4047717787
4047722425
4047729261
4047735914
4047742445
4047748304
4047753248
4047759291
4047763868
4047770033
4047773573
4047780042
4047785719
4047792310
4047797865
4047804945
4047810621
4047816541
4047821363
4047828077
4047832899
4047839307
4047848890
4047854810
4047859266
4047867261
4047872388
4047877332
4047884229
4047891065
4047894605
4047901136
4047906568
4047914380
4047919141
4047924390
4047929090
4047937208
4047941846
4047948682
4047952894
4047958448
4047964246
4047969312
4047973706
4047981397
4047987073
4047992383
4047998182
4048003797
4048008008
4048014234
4048020459
4048026013
4048032300
4048037549
4048043286
4048047437
4048053052
4048056287
4048063489
4048067822
4048075452
4048080640
4048086804
4048091931
4048097058
4048103650
4048108533
4048113232
4048119824
4048125928
4048131116
4048136060
4048142224
4048148450
4048152356
4048158765
4048165234
4048172620
4048179150
4048184277
4048191174
4048197217
4048201794
4048210522
4048215283
4048224133
4048236279
4048239270
4048247509
4048252453
4048258496
4048264721
4048271130
4048275891
4048280957
4048285656
4048292859
4048296154
4048303234
4048309887
4048316235
4048322766
4048327587
4048332775
4048339550
4048342785
4048349499
4048353405
4048363110
4048368908
4048374035
4048379894
4048385754
4048390331
4048396740
4048404492
4048409191
4048415600
4048420239
4048426098
4048432262
4048436779
4048442699
4048449047
4048457165
4048462414
4048468151
4048472912
4048479198
4048483776
4048490429
4048495190
4048502148
4048507702
4048513500
4048520153
4048525951
4048531627
4048536388
4048543468
4048548290
4048556225
