4199928396
4199933217
4199938588
4199943227
4199947194
4199952382
4199958791
4199963125
4199968557
4199973684
4199978200
4199983510
4199987783
4199992849
4199997121
4200002858
4200007558
4200012258
4200016469
4200021230
4200026052
4200031179
4200036672
4200042409
4200049062
4200054311
4200058583
4200065480
4200072682
4200078053
4200083058
4200089589
4200094350
4200103383
4200109486
4200115590
4200121632
4200126881
4200135243
4200142018
4200148122
4200154896
4200160146
4200168446
4200175893
4200183156
4200188710
4200194935
4200201710
4200207020
4200215260
4200222340
4200228261
4200236012
4200241322
4200248890
4200257130
4200263783
4200271168
4200278187
4200284291
4200290577
4200297169
4200304310
4200309193
4200317799
4200326100
4200333973
4200341725
4200346058
4200356800
4200364308
4200371632
4200379261
4200384876
4200393238
4200400623
4200407093
4200413929
4200421192
4200429249
4200434986
4200442921
4200451038
4200457752
4200465870
4200470997
4200480091
4200485767
4200493580
4200500233
4200508533
4200516102
4200523670
4200530323
4200536609
4200544727
4200551624
4200558948
4200565845
4200572254
4200580738
4200586536
4200594287
4200602161
4200608997
4200616077
4200623279
4200629810
4200635913
4200645252
4200651721
4200658374
4200664844
4200672168
4200678455
4200684863
4200691638
4200697070
4200704395
4200711047
4200718677
4200725452
4200731738
4200739185
4200744617
4200751636
4200760120
4200767200
4200774402
4200782092
4200789905
4200798083
4200804736
4200813281
4200820910
4200828967
4200833667
4200843310
4200851489
4200858813
4200865771
4200871569
4200880053
4200887194
4200893969
4200900744
4200907458
4200917102
4200922839
4200932788
4200940112
4200947436
4200956103
4200962817
4200972888
4200977221
4200988879
4200994982
4201002917
4201009753
4201013720
4201023302
4201030810
4201038439
4201045763
4201053027
4201061083
4201067370
4201075243
4201085192
4201090807
4201100146
4201107653
4201115038
4201121264
4201127306
4201135119
4201140734
4201150438
4201156115
4201162890
4201171740
4201179430
4201186876
4201193102
4201202440
4201209886
4201218859
4201227953
4201235704
4201242845
4201249071
4201258226
4201262682
4201272508
4201281297
4201289964
4201297105
4201304308
4201312608
4201318529
4201325731
4201333177
4201339586
4201347459
4201355272
4201362962
4201371202
4201376268
4201382921
4201390855
4201397996
4201403917
4201411058
4201417405
4201424180
4201431627
4201439500
4201448533
4201455125
4201462999
4201467881
4201475145
4201483262
4201490098
4201496324
4201504624
4201512437
4201519151
4201526109
4201531358
4201540879
4201546861
4201555894
4201563157
4201570359
4201577195
4201584275
4201591660
4201599412
4201606370
4201613145
4201621140
4201626939
4201635422
4201644883
4201652512
4201660996
4201668870
4201675339
4201681321
4201688828
4201694932
4201705857
4201712571
4201719407
4201725266
4201732285
4201740220
4201747849
4201754868
4201762741
4201770005
4201775925
4201784592
4201790818
4201799912
4201808396
4201815537
4201824570
4201832077
4201839829
4201845871
4201853867
4201859299
4201868942
4201877365
4201883774
4201891281
4201897385
4201904465
4201913559
4201920944
4201929550
4201936142
4201943466
4201948166
4201951828
4201957199
4201963974
4201970871
4201976669
4201982834
4201987961
4201993332
4201999008
4202004928
4202009689
4202013412
4202019027
4202022934
4202029159
4202032943
4202038376
4202042831
4202046066
4202050766
4202055404
4202059555
4202064254
4202071273
4202075668
4202082626
4202088790
4202093856
4202098434
4202103195
4202107589
4202111557
4202116134
4202119674
4202124984
4202128402
4202135543
4202140060
4202144393
4202149032
4202153304
4202158187
4202161910
4202168685
4202172653
4202176559
4202181442
4202185958
4202190841
4202195785
4202200729
4202205428
4202209762
4202213546
4202217574
4202221603
4202227462
4202232894
4202236800
4202240890
4202244125
4202249740
4202255233
4202260116
4202265609
4202269820
4202274154
4202278853
4202281966
4202288863
4202294417
4202297713
4202302535
4202304427
4202311019
4202315780
4202319381
4202324752
4202329024
4202333663
4202338485
4202343673
4202347884
4202352218
4202356307
4202361983
4202364119
4202371321
4202376204
4202381209
4202388533
4202394332
4202400252
4202406539
4202413497
4202418135
4202424605
4202431563
4202435469
4202440108
4202445296
4202450179
4202455184
4202459700
4202465498
4202468245
4202474471
4202480513
4202485762
4202493269
4202497542
4202503828
4202507002
4202513899
4202517134
4202522749
4202527083
4202533797
4202538496
4202544295
4202548506
4202553755
4202558028
4202562605
4202568281
4202572981
4202578657
4202583113
4202588728
4202593306
4202597334
4202602705
4202607954
4202614180
4202618208
4202624128
4202629744
4202635176
4202639509
4202645613
4202649885
4202654707
4202661299
4202665205
4202672834
4202676008
4202682966
4202687849
4202692732
4202696943
4202703962
4202710859
4202715925
4202720320
4202725996
4202732221
4202737043
4202742903
4202749189
4202753828
4202759870
4202765669
4202770124
4202775678
4202778974
4202785444
4202790205
4202798322
4202808637
4202816633
4202822919
4202829694
4202833479
4202839704
4202844282
4202850996
4202854169
4202860456
4202865400
4202871564
4202876508
4202883222
4202887800
4202894636
4202901349
4202907941
4202910077
4202919050
4202922712
4202930707
4202934430
4202942121
4202945905
4202953962
4202959638
4202964215
4202970197
4202976300
4202980695
4202985761
4202990766
4202995771
4203001935
4203006330
4203010724
4203016461
4203022382
4203028241
4203033551
4203037641
4203042645
4203047894
4203053632
4203057843
4203061139
4203069318
4203072980
4203079999
4203084515
4203090192
4203093427
4203100262
4203103680
4203112775
4203116559
4203124005
4203127789
4203134198
4203138898
4203144452
4203149090
4203156476
4203160016
4203166730
4203171673
4203177167
4203181805
4203187970
4203192792
4203199505
4203204266
4203210553
4203215252
4203221173
4203225934
4203230999
4203235211
4203241070
4203246869
4203253216
4203258831
4203263836
4203267926
4203273724
4203278057
4203281231
4203290814
4203295391
4203300823
4203303204
4203314007
4203320050
4203324200
4203327496
4203336712
4203341900
4203346295
4203352276
4203359051
4203365643
4203370831
4203377422
4203382549
4203389874
4203395428
4203401775
4203406658
4203412212
4203416973
4203423748
4203428936
4203436016
4203440838
4203445782
4203451702
4203458538
4203463543
4203470135
4203475078
4203481548
4203486797
4203492718
4203498089
4203504253
4203510723
4203515850
4203520488
4203527874
4203532329
4203537944
4203543193
4203546428
4203554546
4203557964
4203564556
4203570720
4203576030
4203580425
4203586223
4203592083
4203599468
4203605144
4203609294
4203614727
4203621074
4203626384
4203631877
4203639385
4203643596
4203650554
4203654521
4203661846
4203665691
4203671733
4203675823
4203683330
4203688762
4203692851
4203696147
4203702922
4203706096
4203712566
4203717082
4203725139
4203729839
4203734111
4203740459
4203744609
4203749919
4203755473
4203760661
4203765605
4203769572
4203776408
4203779338
4203786052
4203791911
4203797465
4203802714
4203807048
4203813273
4203818461
4203822307
4203828044
4203833659
4203839152
4203844889
4203850566
4203854594
4203859721
4203862773
4203872172
4203878276
4203882304
4203887675
4203891459
4203897563
4203902507
4203908793
4203914714
4203919718
4203925028
4203929728
4203935710
4203940287
4203947794
4203954386
4203961283
4203966227
4203973185
4203978495
4203982401
4203994975
4204003336
4204013041
4204017619
4204028178
4204033976
4204046244
4204052531
4204060770
4204067972
4204075724
4204083536
4204091166
4204097513
4204105936
4204113505
4204122416
4204128824
4204136576
4204142191
4204150064
4204155802
4204160440
4204169718
4204177225
4204185099
4204190653
4204198465
4204204080
4204212320
4204218729
4204225870
4204233011
4204238199
4204250223
4204258402
4204265482
4204272318
4204277689
4204286905
4204294778
4204302469
4204310403
4204313516
4204325723
4204331216
4204340127
4204345315
4204353494
4204359903
4204364847
4204375162
4204379251
4204387552
4204397134
4204404336
4204410684
4204415689
4204424722
4204431070
4204437845
4204444314
4204449380
4204462808
4204470987
4204476846
4204483743
4204491189
4204497354
4204504739
4204511575
4204518411
4204525918
4204532754
4204538247
4204548745
4204553689
4204561929
4204568215
4204575478
4204582192
4204587075
4204595193
4204601540
4204610451
4204616433
4204621072
4204630044
4204636758
4204644265
4204650918
4204658486
4204666909
4204672829
4204678689
4204683632
4204692483
4204699318
4204705666
4204712136
4204717263
4204728981
4204736672
4204744423
4204752175
4204758339
4204764687
4204769570
4204780190
4204788002
4204795815
4204802895
4204814247
4204821755
4204829689
4204836647
4204846291
4204855141
4204859291
4204876442
4204885292
4204893898
4204900856
4204912758
4204920998
4204927650
4204935097
4204940895
4204952064
4204957802
4204965309
4204971412
4204977821
4204985756
4204988319
4204998695
4205005043
4205014808
4205022621
4205029762
4205035804
4205042396
4205048195
4205052711
4205061744
4205066444
4205077247
4205083412
4205089820
4205097999
4205102455
4205109718
4205115699
4205121803
4205130531
4205133399
4205145973
4205151832
4205159705
4205166419
4205173866
4205180152
4205185218
4205195411
4205199989
4205209083
4205218238
4205225379
4205231788
4205237159
4205246497
4205253028
4205255897
4205266761
4205271949
4205279822
4205286475
4205294471
4205303199
4205311377
4205318519
4205325049
4205335791
4205341529
4205354346
4205362220
4205370581
4205377906
4205381507
4205393225
4205402014
4205409644
4205417822
4205427649
4205435889
4205441077
4205449805
4205457434
4205463660
4205470313
4205475440
4205484961
4205492102
4205499487
4205506384
4205513098
4205521094
4205528052
4205534277
4205538855
4205547278
4205553808
4205562231
4205568945
4205574560
4205583227
4205590429
4205596777
4205605566
4205608801
4205618811
4205623938
4205632605
4205639929
4205647619
4205654943
4205662268
4205668920
4205674169
4205684057
4205688269
4205697485
4205704565
4205715429
4205721105
4205728491
4205736425
4205742529
4205747656
4205751867
4205760107
4205763769
4205770361
4205776037
4205781103
4205785375
4205790746
4205795751
4205802221
4205807592
4205811620
4205817541
4205821569
4205827001
4205832128
4205835363
4205842870
4205848913
4205852941
4205857274
4205862951
4205867467
4205872655
4205876989
4205883947
4205888402
4205894079
4205898473
4205905919
4205909459
4205917028
4205922643
4205928746
4205935582
4205941076
4205946630
4205953771
4205959630
4205966527
4205972325
4205977574
4205984410
4205990636
4205995030
4206000096
4206006139
4206009679
4206016088
4206020726
4206028600
4206034398
4206038793
4206043920
4206049291
4206054051
4206060399
4206065099
4206070592
4206077611
4206082494
4206088658
4206093175
4206098851
4206103307
4206108983
4206114110
4206121861
4206125951
4206132237
4206137425
4206143101
4206147862
4206154149
4206158787
4206164403
4206169041
4206176243
4206179905
4206186986
4206191990
4206197239
4206201695
4206209996
4206216771
4206221592
4206227635
4206234105
4206239598
4206246617
4206252720
4206258946
4206266575
4206273838
4206281346
4206286289
4206291477
4206298741
4206305027
4206310642
4206318821
4206324497
4206331394
4206336155
4206341770
4206347691
4206353062
4206359043
4206363316
4206368748
4206374607
4206378819
4206385288
4206389317
4206394505
4206401463
4206407383
4206412937
4206417637
4206421909
4206427219
4206432529
4206436436
4206443394
4206448765
4206454075
4206458958
4206464207
4206468540
4206473850
4206476963
4206484714
4206490452
4206494541
4206500461
4206505588
4206508579
4206514988
4206519809
4206526340
4206530918
4206536411
4206540805
4206546299
4206550937
4206556797
4206561496
4206569370
4206577060
4206582248
4206587009
4206593845
4206598789
4206604099
4206608798
4206614597
4206621311
4206626132
4206632236
4206637119
4206641818
4206648349
4206654086
4206658420
4206664218
4206670383
4206674594
4206680209
4206686252
4206690891
4206696567
4206700168
4206709018
4206712680
4206719821
4206723605
4206730197
4206735202
4206739963
4206746066
4206751864
4206756991
4206763339
4206767856
4206772311
4206778171
4206783786
4206788180
4206794833
4206799411
4206808200
4206814914
4206822909
4206830050
4206835360
4206841586
4206847262
4206853488
4206857272
4206866671
4206872897
4206878451
4206885409
4206890597
4206895114
4206898715
4206904269
4206908358
4206913973
4206918978
4206924227
4206930514
4206935641
4206940035
4206945101
4206949069
4206954440
4206959933
4206964510
4206968722
4206974276
4206978548
4206984957
4206987948
4206995272
4207001070
4207006686
4207011141
4207016390
4207021395
4207025606
4207031283
4207034640
4207042147
4207048372
4207053133
4207058504
4207063570
4207069124
4207072237
4207079867
4207086947
4207090914
4207096407
4207101534
4207107882
4207112215
4207119417
4207124239
4207129732
4207134554
4207139681
4207145235
4207148836
4207155794
4207160311
4207166597
4207169893
4207176790
4207180635
4207186922
4207191866
4207197603
4207204073
4207208284
4207214144
4207219637
4207224458
4207230806
4207235323
4207242159
4207247347
4207252413
4207257600
4207263704
4207269685
4207275728
4207281221
4207285616
4207291841
4207294588
4207301607
4207308809
4207314119
4207320772
4207325838
4207332612
4207338533
4207342866
4207349519
4207355684
4207361238
4207368379
4207374666
4207378755
4207384614
4207390291
4207396028
4207400605
4207407808
4207412141
4207417390
4207423005
4207426301
4207433137
4207436738
4207445100
4207449006
4207455537
4207460298
4207465242
4207470063
4207476472
4207481294
4207486116
4207492158
4207498811
4207503205
4207508088
4207513825
4207518586
4207524262
4207527802
4207536164
4207541047
4207546906
4207550141
4207556306
4207561250
4207567536
4207572236
4207578217
4207584382
4207590180
4207594392
4207600800
4207605073
4207610932
4207615327
4207621979
4207628388
4207633271
4207637787
4207641144
4207648652
4207652009
4207658845
4207663544
4207672150
4207676117
4207683014
4207687836
4207694062
4207699616
4207707428
4207713654
4207719391
4207725251
4207731354
4207735627
4207742218
4207749726
4207755768
4207761017
4207767609
4207772736
4207779145
4207785309
4207792572
4207797943
4207804840
4207809845
4207815888
4207822235
4207825897
4207833344
4207837311
4207844330
4207849579
4207855194
4207860504
4207868195
4207874054
4207881500
4207888214
4207893463
4207903656
4207908600
4207917694
4207925079
4207931427
4207947296
4207952972
4207961761
4207970611
4207976837
4207986114
4207991485
4208002350
4208010162
4208018585
4208025299
4208032806
4208038360
4208042877
4208051727
4208055755
4208063385
4208068573
4208075408
4208081756
4208086761
4208091888
4208099456
4208104522
4208110992
4208116241
4208122283
4208127654
4208134246
4208139129
4208143951
4208148223
4208154815
4208159209
4208164581
4208171722
4208178680
4208183623
4208189910
4208194549
4208198333
4208206023
4208209624
4208217193
4208222625
4208230681
4208235076
4208243072
4208248992
4208253570
4208258025
4208264861
4208271819
4208276336
4208280791
4208286284
4208292144
4208297759
4208302215
4208308257
4208314544
4208319365
4208323638
4208328399
4208334136
4208338713
4208344451
4208350676
4208356169
4208363311
4208369109
4208373259
4208379058
4208383208
4208389067
4208393462
4208396758
4208405181
4208410918
4208416533
4208419951
4208427031
4208430266
4208437041
4208441985
4208446990
4208453398
4208458525
4208462798
4208468047
4208473784
4208478545
4208484160
4208491728
4208498625
4208504240
4208508574
4208511870
4208519255
4208524626
4208529387
4208534758
4208540312
4208547575
4208554777
4208560576
4208568144
4208575529
4208580290
4208584440
4208594755
4208598723
4208607084
4208610746
4208618376
4208624540
4208628263
4208634062
4208639067
4208645597
4208650785
4208655119
4208660856
4208664884
4208670378
4208674650
4208681669
4208687651
4208694486
4208700102
4208704679
4208710661
4208716032
4208721708
4208728544
4208733122
4208739896
4208743864
4208749601
4208755094
4208760709
4208766264
4208771146
4208777433
4208783414
4208787748
4208793546
4208799100
4208803678
4208809354
4208812589
4208819364
4208824552
4208831815
4208835477
4208842374
4208847318
4208853055
4208857938
4208862516
4208869108
4208874296
4208878751
4208885221
4208890836
4208895170
4208900968
4208905362
4208912748
4208918851
4208924344
4208927640
4208934781
4208938016
4208944608
4208949369
4208954679
4208960965
4208968473
4208971585
4208979398
4208986539
4208993863
4208998075
4209006192
4209011746
4209018765
4209025479
4209031033
4209036649
4209040799
4209047452
4209055142
4209059903
4209065396
4209068692
4209076260
4209079861
4209086880
4209091580
4209097134
4209102383
4209109647
4209114773
4209123257
4209130032
4209138455
4209142605
4209151883
4209155850
4209163662
4209167874
4209177334
4209183499
4209189175
4209194546
4209202725
4209207974
4209213528
4209218899
4209224209
4209227749
4209234036
4209237027
4209245144
4209248501
4209255947
4209259548
4209266568
4209269619
4209276150
4209280911
4209285671
4209292080
4209297756
4209302517
4209307522
4209311917
4209317532
4209323208
4209329067
4209336025
4209341457
4209347256
4209351894
4209356167
4209361782
4209367519
4209370754
4209378017
4209383144
4209389065
4209393764
4209401638
4209405483
4209413479
4209419521
4209427822
4209431850
4209438625
4209443325
4209449428
4209454677
4209461513
4209466579
4209471279
4209477810
4209485134
4209488674
4209494838
4209499904
4209506984
4209511257
4209517604
4209522792
4209530422
4209535122
4209541530
4209546840
4209551479
4209557094
4209563076
4209567714
4209574001
4209578762
4209583827
4209590175
4209596889
4209601650
4209605373
4209612697
4209616298
4209623744
4209627162
4209634242
4209639003
4209644008
4209650050
4209657008
4209661830
4209668361
4209671840
4209679469
4209682887
4209688686
4209693996
4209700954
4209706508
4209714931
4209718715
4209727748
4209733485
4209737758
4209744227
4209752833
4209761134
4209766749
4209771998
4209777675
4209784327
4209788905
4209795497
4209800013
4209806239
4209810572
4209817775
4209823878
4209829921
4209831996
4209840358
4209843898
4209850978
4209856715
4209861659
4209866419
4209872035
4209876368
4209882472
4209889186
4209893702
4209897364
4209905299
4209910609
4209914820
4209918116
4209928248
4209934351
4209938624
4209943324
4209949122
4209953822
4209959132
4209965174
4209970667
4209977503
4209982752
4209988795
4209993250
4209998804
4210003931
4210009547
4210015162
4210021143
4210026270
4210030543
4210036463
4210042139
4210045618
4210052698
4210056116
4210063318
4210068506
4210075770
4210080958
4210088221
4210094019
4210100184
4210105799
4210115198
4210119654
4210127832
4210133631
4210140039
4210145105
4210151392
4210160120
4210163355
4210174280
4210180200
4210187097
4210191675
4210198145
4210203333
4210209558
4210215418
4210221399
4210226282
4210231958
4210235193
4210241968
4210247949
4210252222
4210256860
4210265405
4210268274
4210277307
4210282007
4210291223
4210295618
4210304468
4210308191
4210318811
4210322839
4210330652
4210334924
4210342187
4210347497
4210354211
4210359521
4210366845
4210372278
4210377649
4210382104
4210388513
4210393213
4210400048
4210403650
4210410730
4210415185
4210422509
4210425744
4210432885
4210436242
4210444177
4210447717
4210455529
4210461755
4210466027
4210470544
4210475793
4210480126
4210486474
4210490930
4210495629
4210501611
4210507470
4210512292
4210517358
4210523461
4210528344
4210532678
4210540063
4210544518
4210551049
4210555260
4210560937
4210566552
4210572289
4210576623
4210583031
4210588769
4210594628
4210600487
4210603905
4210611169
4210614770
4210621239
4210626855
4210633324
4210638451
4210645775
4210650475
4210655663
4210660058
4210665673
4210669945
4210676232
4210682885
4210689171
4210693566
4210699852
4210704247
4210707665
4210715416
4210718712
4210727745
4210731469
4210737999
4210742821
4210748375
4210753136
4210759300
4210764244
4210769737
4210776085
4210781700
4210786339
4210791161
4210795433
4210801720
4210807335
4210812401
4210818504
4210823631
4210829308
4210834251
4210840050
4210843285
4210850426
4210854271
4210864281
4210871239
4210877342
4210881493
4210891869
4210897179
4210909202
4210917442
4210927391
4210933922
4210939598
4210945640
4210951683
4210956383
4210961082
4210967003
4210971824
4210977684
4210980858
4210987510
4210992637
4210997520
4211000267
4211007957
4211012352
4211017051
4211022178
4211025535
4211030845
4211034141
4211040489
4211044395
4211049461
4211053245
4211058677
4211062828
4211068138
4211072776
4211078086
4211081870
4211088340
4211093894
4211098533
4211102622
4211107566
4211112876
4211118003
4211122154
4211127342
4211131553
4211136070
4211140952
4211145713
4211151389
4211155479
4211161277
4211166770
4211171897
4211176170
4211181541
4211188010
4211193076
4211197959
4211202842
4211208030
4211212913
4211217124
4211222617
4211227744
4211233298
4211239646
4211244224
4211249534
4211254783
4211256736
4211267173
4211273215
4211277610
4211283347
4211289389
4211293052
4211299094
4211304831
4211310386
4211315024
4211321250
4211324668
4211331504
4211335044
4211342917
4211348288
4211353659
4211359275
4211366110
4211371604
4211376486
4211383139
4211386618
4211394431
4211399558
4211406210
4211411643
4211417502
4211424460
4211428732
4211434164
4211439475
4211444846
4211449973
4211454672
4211461813
4211466025
4211470847
4211474631
4211480856
4211486410
4211490744
4211496970
4211503256
4211509421
4211513266
4211519308
4211525839
4211531943
4211536947
4211543722
4211547629
4211556906
4211561972
4211567892
4211572226
4211576559
4211583578
4211588705
4211593588
4211603537
4211607748
4211613363
4211616415
4211623434
4211628683
4211632406
4211638571
4211644003
4211648825
4211653524
4211658529
4211664144
4211668966
4211674459
4211679586
4211684286
4211691244
4211696615
4211702902
4211708029
4211713400
4211721212
4211727377
4211730917
4211736654
4211742147
4211747030
4211750753
4211756612
4211759298
4211768270
4211774923
4211778707
4211784017
4211789510
4211793783
4211799947
4211804952
4211810628
4211816671
4211821248
4211826559
4211830709
4211836873
4211844442
4211850789
4211856222
4211862813
4211867818
4211875692
4211880025
4211888082
4211893819
4211900045
4211904744
4211912252
4211918416
4211922872
4211928243
4211933553
4211937764
4211942647
4211947408
4211953023
4211958394
4211963033
4211970540
4211975362
4211981282
4211985860
4211991780
4211996724
4212001790
4212008016
4212013020
4212019307
4212024800
4212029622
4212036275
4212041280
4212047139
4212051534
4212057088
4212065083
4212069905
4212075642
4212081013
4212085408
4212088704
4212096150
4212101887
4212109517
4212113118
4212119954
4212126973
4212133320
4212139119
4212144978
4212146992
4212156758
4212158833
4212168293
4212172139
4212179402
4212183247
4212191365
4212196858
4212204365
4212209858
4212216267
4212220784
4212226460
4212230915
4212236714
4212242268
4212244160
4212252766
4212258503
4212262898
4212268757
4212274372
4212277790
4212284138
4212288777
4212295551
4212300251
4212307514
4212312336
4212319721
4212324055
4212333637
4212338032
4212345173
4212350605
4212355976
4212363056
4212368854
4212373798
4212381550
4212386799
4212392841
4212399982
4212404804
4212410053
4212415851
4212421161
4212424763
4212433246
4212437153
4212445331
4212450519
4212456684
4212461017
4212468219
4212472553
4212481586
4212486225
4212495197
4212500568
4212507099
4212511798
4212517719
4212523029
4212527240
4212530658
4212539081
4212544696
4212550434
4212556171
4212560687
4212566852
4212571063
4212574359
4212582172
4212586017
4212593707
4212598529
4212603168
4212609271
4212614520
4212619037
4212625995
4212630756
4212637225
4212641437
4212647723
4212652179
4212657062
4212662799
4212666034
4212673663
4212677692
4212689593
4212694598
4212705768
4212710406
4212719928
4212724078
4212736285
4212743426
4212749957
4212757037
4212763385
4212769854
4212776141
4212782184
4212789569
4212794818
4212798907
4212803363
4212807574
4212811969
4212817645
4212823016
4212827777
4212831988
4212836627
4212840899
4212845233
4212849261
4212853411
4212859454
4212863726
4212867694
4212872027
4212876544
4212880999
4212886309
4212891009
4212894610
4212899188
4212902545
4212907671
4212912432
4212917559
4212923724
4212927874
4212933489
4212938006
4212942339
4212946124
4212953692
4212957232
4212966570
4212971880
4212977190
4212982806
4212987261
4212995318
4213001116
4213006914
4213012346
4213018450
4213022845
4213027788
4213033465
4213037249
4213041765
4213046587
4213051287
4213056841
4213060808
4213066485
4213070696
4213074846
4213079851
4213084551
4213089312
4213092852
4213097551
4213101213
4213107439
4213110369
4213116533
4213121111
4213126055
4213130571
4213136553
4213141008
4213147844
4213152300
4213157122
4213161516
4213167070
4213171160
4213177202
4213181169
4213188310
4213192766
4213197649
4213201494
4213207475
4213211748
4213216997
4213224504
4213230119
4213235918
4213241350
4213245500
4213248735
4213256364
4213261858
4213268999
4213272478
4213279741
4213283220
4213291032
4213294694
4213302507
4213306169
4213313920
4213317521
4213325151
4213330644
4213338029
4213343217
4213348955
4213353715
4213360734
4213365678
4213370988
4213376970
4213382158
4213386430
4213392534
4213396806
4213400224
4213408708
4213412980
4213420915
4213424516
4213431962
4213435563
4213442582
4213447953
4213453507
4213461991
4213468400
4213472917
4213478044
4213485124
4213496537
4213502274
4213509843
4213517167
4213522050
4213528153
4213532914
4213540360
4213546525
4213551896
4213557755
4213565018
4213571122
4213575639
4213580094
4213585831
4213590897
4213596757
4213602372
4213606583
4213612748
4213616776
4213622696
4213628312
4213633195
4213637162
4213643693
4213650467
4213656022
4213661026
4213667313
4213672196
4213677689
4213682206
4213688675
4213694046
4213700821
4213705277
4213711441
4213715836
4213722367
4213726639
4213729935
4213737870
4213743912
4213748307
4213753494
4213761551
4213765640
4213772293
4213775894
4213785294
4213788773
4213796707
4213802261
4213808365
4213812027
4213820145
4213827591
4213832901
4213838638
4213844620
4213850723
4213856644
4213861649
4213868545
4213874954
4213881241
4213885391
4213893448
4213896683
4213903030
4213907608
4213914078
4213918777
4213925369
4213930313
4213936661
4213941543
4213946731
4213950943
4213956619
4213962173
4213966751
4213973892
4213979995
4213984390
4213990188
4213994400
4213999099
4214005386
4214010086
4214018875
4214024124
4214031021
4214035720
4214042007
4214046707
4214052078
4214057144
4214063735
4214070205
4214078750
4214083755
4214089248
4214094070
4214100478
4214106399
4214111404
4214118362
4214125564
4214133620
4214139358
4214143020
4214150039
4214155593
4214159866
4214164077
4214170303
4214173782
4214181167
4214184585
4214191482
4214196364
4214205947
4214212539
4214217116
4214221877
4214228591
4214232497
4214239760
4214244765
4214250441
4214255080
4214261489
4214266250
4214272109
4214275405
4214282546
4214286513
4214294448
4214299880
4214306533
4214311476
4214319289
4214323256
4214331618
4214335341
4214343947
4214347670
4214354445
4214359755
4214366713
4214372328
4214378310
4214383437
4214390822
4214395827
4214402785
4214407607
4214411452
4214419875
4214423537
4214429701
4214434767
4214440871
4214448073
4214453017
4214459547
4214464125
4214470778
4214476515
4214483046
4214485060
4214493971
4214497938
4214505263
4214510267
4214516005
4214521132
4214529127
4214533644
4214542067
4214547316
4214553236
4214559340
4214563856
4214569410
4214573439
4214579359
4214585035
4214591566
4214596205
4214601942
4214605421
4214611525
4214616163
4214621962
4214626173
4214632765
4214640333
4214646253
4214651075
4214656202
4214660963
4214667982
4214672987
4214679945
4214687025
4214692945
4214698683
4214703565
4214709852
4214715528
4214721998
4214725782
4214733656
4214737440
4214745008
4214748060
4214755689
4214758985
4214765516
4214770277
4214775709
4214780408
4214787794
4214792554
4214797254
4214803358
4214807813
4214813917
4214820020
4214825086
4214831495
4214836316
4214841260
4214845655
4214851575
4214857129
4214862134
4214869153
4214874036
4214879834
4214883313
4214889173
4214893811
4214900708
4214905591
4214910291
4214917371
4214921949
4214926282
4214932324
4214936536
4214942456
4214948010
4214953259
4214961011
4214966077
4214971692
4214976697
4214982373
4214985730
4214991773
4214996655
4215002759
4215007642
4215013989
4215018689
4215023206
4215029309
4215034436
4215038647
4215044202
4215051099
4215057324
4215061536
4215066601
4215072217
4215075574
4215082471
4215085950
4215092297
4215096997
4215104931
4215110119
4215115735
4215120434
4215125805
4215131543
4215136548
4215143261
4215148999
4215155346
4215160778
4215165478
4215169262
4215177014
4215182141
4215187512
4215194592
4215199597
4215204174
4215211132
4215215832
4215219433
4215227612
4215231274
4215241650
4215246472
4215254894
4215261242
4215269116
4215272473
4215279980
4215283337
4215291943
4215298046
4215306103
4215309094
4215318066
4215321972
4215330090
4215333385
4215341625
4215345531
4215352550
4215358349
4215362621
4215367565
4215372936
4215377758
4215384289
4215389171
4215395824
4215401928
4215406627
4215411022
4215416637
4215422497
4215424267
4215432506
4215436229
4215442638
4215447521
4215453136
4215457897
4215464306
4215469188
4215474804
4215479869
4215485851
4215490184
4215496654
4215501110
4215507030
4215511425
4215516429
4215522594
4215528575
4215532970
4215539073
4215543468
4215548839
4215554759
4215558116
4215565441
4215570629
4215577037
4215583507
4215587657
4215594432
4215598888
4215604625
4215610240
4215618358
4215624095
4215628734
4215632457
4215639049
4215644237
4215650401
4215655711
4215661998
4215667369
4215674876
4215679454
4215686839
4215691661
4215695262
4215702098
4215706798
4215713817
4215719188
4215726573
4215732493
4215737437
4215743480
4215748240
4215753062
4215760936
4215765757
4215771922
4215778758
4215784312
4215789561
4215795604
4215801768
4215807688
4215813975
4215823680
4215831492
4215838328
4215843821
4215852793
4215861704
4215870493
4215877940
4215883433
4215892100
4215899668
4215911082
4215917979
4215922739
4215932383
4215940012
4215946238
4215953135
4215961191
4215972666
4215982065
4215987925
4215992625
4216001230
4216005930
4216013804
4216019785
4216028452
4216036081
4216043467
4216049570
4216054453
4216066538
4216071543
4216082346
4216088144
4216097055
4216104807
4216112558
4216118723
4216124033
4216133493
4216141245
4216148752
4216155954
4216164499
4216174997
4216181284
4216190683
4216195383
4216204965
4216211862
4216215402
4216225595
4216234140
4216242380
4216249887
4216253366
4216264657
4216272531
4216280954
4216288095
4216293954
4216300363
4216305551
4216314096
4216324472
4216330636
4216337289
4216345041
4216351388
4216356515
4216366098
4216370370
4216379403
4216386544
4216392099
4216400399
4216406991
4216414315
4216420724
4216429208
4216435983
4216440988
4216454476
4216461984
4216468575
4216474374
4216481515
4216487496
4216492135
4216500497
4216507211
4216514169
4216521676
4216531014
4216537057
4216544320
4216550362
4216557442
4216563729
4216572579
4216575509
4216586861
4216592415
4216601266
4216607979
4216613656
4216621712
4216624520
4216635018
4216640084
4216647042
4216655953
4216661263
4216667366
4216676033
4216682320
4216686898
4216694893
4216701546
4216708870
4216715340
4216728646
4216735543
4216743355
4216750008
4216759163
4216765755
4216770699
4216778938
4216789375
4216802376
4216808235
4216822578
4216831978
4216840157
4216849068
4216859688
4216867439
4216875740
4216886787
4216894172
4216902290
4216910225
4216914985
4216920051
4216924446
4216928718
4216933174
4216937935
4216942512
4216948066
4216952705
4216956306
4216961128
4216965767
4216970466
4216974983
4216981269
4216985603
4216990303
4216995002
4217000007
4217005012
4217009223
4217014045
4217019355
4217024726
4217028572
4217033515
4217037483
4217042304
4217046211
4217052802
4217056892
4217062385
4217065132
4217071174
4217075263
4217080451
4217084419
4217089973
4217094489
4217100959
4217103950
4217110481
4217115058
4217119941
4217125861
4217130744
4217136726
4217142280
4217146918
4217152351
4217156623
4217161811
4217166022
4217173347
4217177924
4217183906
4217190131
4217194221
4217199897
4217204413
4217210212
4217215156
4217221381
4217227607
4217233588
4217238959
4217244513
4217248908
4217254096
4217258735
4217265509
4217272406
4217277594
4217282416
4217289740
4217294928
4217299872
4217305976
4217313300
4217318793
4217325568
4217330512
4217334906
4217341864
4217348578
4217352240
4217360114
4217365363
4217373847
4217377203
4217383063
4217387579
4217393256
4217397528
4217402960
4217407355
4217413763
4217418280
4217424017
4217429083
4217434882
4217439581
4217444830
4217451239
4217456610
4217461127
4217465948
4217471747
4217473639
4217481756
4217485296
4217495794
4217497992
4217506476
4217510748
4217516607
4217522101
4217526556
4217531317
4217538275
4217543585
4217550665
4217555243
4217561041
4217565802
4217571112
4217575628
4217581488
4217587042
4217594122
4217598333
4217603460
4217609259
4217614996
4217619329
4217622625
4217631964
4217637152
4217641607
4217647283
4217653265
4217656805
4217664373
4217667791
4217675298
4217678716
4217685980
4217689398
4217697393
4217701055
4217707952
4217711187
4217718938
4217724615
4217730047
4217735967
4217742254
4217748785
4217754217
4217761846
4217767522
4217774236
4217779424
4217785161
4217804693
4217809514
4217814763
4217822149
4217826909
4217833318
4217838506
4217843511
4217849248
4217855169
4217860601
4217868169
4217872991
4217880193
4217885869
4217892400
4217898992
4217904607
4217910527
4217919072
4217923955
4217930852
4217936162
4217941899
4217946172
4217952092
4217958074
4217963323
4217967839
4217973882
4217978215
4217983220
4217987187
4217992497
4217998418
4218005071
4218009221
4218014958
4218019292
4218025151
4218030888
4218035771
4218041875
4218047856
4218052312
4218058659
4218062993
4218066350
4218073796
4218077092
4218085942
4218092106
4218097661
4218101567
4218109868
4218113957
4218122258
4218127751
4218134282
4218138066
4218145268
4218151066
4218155705
4218161015
4218168095
4218173588
4218179203
4218186711
4218191899
4218196537
4218203495
4218208439
4218214482
4218220890
4218224552
4218232609
4218235905
4218244755
4218249821
4218256474
4218262699
4218269169
4218274235
4218280277
4218286015
4218292118
4218298527
4218303104
4218309574
4218314579
4218320194
4218326603
4218333012
4218336491
4218343998
4218348576
4218354008
4218358951
4218364506
4218369633
4218377323
4218380863
4218387821
4218390995
4218397465
4218402286
4218409305
4218414737
4218422977
4218426883
4218433597
4218439823
4218446964
4218453617
4218460086
4218467472
4218475284
4218478580
4218485904
4218489383
4218498172
4218503421
4218508853
4218518192
4218526859
4218532718
4218536563
4218543582
4218548526
4218555179
4218559329
4218565433
4218569644
4218575321
4218581119
4218586246
4218592532
4218597903
4218602237
4218605533
4218612918
4218617618
4218623294
4218628116
4218634463
4218639346
4218646121
4218651126
4218656375
4218661258
4218666934
4218671145
4218677188
4218681827
4218687991
4218693728
4218698245
4218704043
4218708804
4218714602
4218717959
4218725284
4218729922
4218737674
4218741092
4218747683
4218751651
4218760562
4218764956
4218772097
4218778140
4218784243
4218787600
4218794680
4218800845
4218805484
4218809085
4218817874
4218823550
4218830447
4218835513
4218841677
4218846499
4218851931
4218858096
4218862978
4218869570
4218875735
4218881411
4218885622
4218891360
4218897036
4218901186
4218906130
4218912356
4218917727
4218924563
4218929690
4218935000
4218939577
4218946474
4218951296
4218956972
4218963686
4218970400
4218975039
4218978762
4218986818
4218990420
4218996767
4219001589
4219007692
4219014895
4219024599
4219028444
4219035830
4219041628
4219049562
4219054262
4219061159
4219066591
4219075563
4219079042
4219087282
4219093447
4219098024
4219103517
4219109255
4219114382
4219120485
4219125429
4219131166
4219135561
4219142031
4219146486
4219153261
4219159303
4219166139
4219170473
4219175600
4219181398
4219186647
4219190859
4219194215
4219202455
4219208498
4219213441
4219217958
4219224001
4219228761
4219234254
4219238649
4219246217
4219251771
4219258058
4219263368
4219268739
4219273622
4219280275
4219284974
4219289064
4219297181
4219303407
4219308351
4219313539
4219319825
4219325074
4219330812
4219335634
4219341493
4219348085
4219355104
4219360048
4219364869
4219371156
4219375062
4219382386
4219385987
4219393312
4219399049
4219406434
4219411683
4219416810
4219421632
4219427918
4219432557
4219438783
4219446595
4219451295
4219457398
4219461121
4219468568
4219473817
4219479798
4219484681
4219491090
4219497804
4219504151
4219510194
4219512391
4219520936
4219524537
4219531129
4219536256
4219542359
4219548890
4219556580
4219561646
4219568848
4219574158
4219578797
4219585572
4219591248
4219597535
4219605530
4219611146
4219615357
4219623719
4219630311
4219637940
4219645081
4219648682
4219664368
4219673767
4219680237
4219685913
4219695923
4219702210
4219712281
4219720703
4219727356
4219739685
4219747193
4219756470
4219761719
4219770142
4219776306
4219784058
4219790039
4219794861
4219803467
4219810730
4219817688
4219823852
4219829895
4219834961
4219841553
4219848022
4219853638
4219859619
4219865600
4219871704
4219876648
4219882324
4219885742
4219892822
4219896301
4219903686
4219909485
4219915527
4219920410
4219926574
4219930969
4219936645
4219940918
4219946350
4219952942
4219958740
4219964538
4219966430
4219976501
4219981933
4219986450
4219992187
4219998474
4220003540
4220009887
4220014587
4220020812
4220025512
4220031494
4220036132
4220043762
4220048095
4220056945
4220060302
4220067199
4220072204
4220077392
4220081664
4220087585
4220095153
4220100219
4220105102
4220111144
4220117431
4220121215
4220129027
4220132751
4220140502
4220146178
4220152892
4220158202
4220163512
4220168334
4220174743
4220179503
4220186522
4220194701
4220200133
4220204711
4220211181
4220216002
4220221312
4220227233
4220231994
4220238952
4220245177
4220251952
4220261290
4220267394
4220272826
4220277404
4220283507
4220286986
4220294860
4220301940
4220309630
4220316222
4220322264
4220329650
4220336119
4220344298
4220348815
4220355345
4220362181
4220367247
4220374388
4220381285
4220386961
4220392638
4220397337
4220402708
4220407408
4220412901
4220418211
4220422606
4220425963
4220434264
4220440733
4220446654
4220450011
4220458250
4220462462
4220470457
4220474486
4220483030
4220486998
4220494444
4220499937
4220504515
4220511656
4220517454
4220522337
4220529295
4220535093
4220539366
4220545652
4220551451
4220555662
4220561094
4220564573
4220572569
4220578245
4220582701
4220585997
4220593504
4220598509
4220604063
4220609312
4220615049
4220623533
4220628721
4220635313
4220640196
4220646482
4220648557
4220657041
4220660886
4220667661
4220672849
4220680723
4220684446
4220692075
4220697569
4220702940
4220709653
4220715025
4220719785
4220728086
4220732969
4220739805
4220744443
4220750791
4220757688
4220764158
4220768491
4220775144
4220779722
4220786313
4220791074
4220795041
4220804075
4220807737
4220814573
4220820188
4220827085
4220831601
4220838559
4220843381
4220849912
4220859067
4220866269
4220873105
4220878842
4220885434
4220893857
4220899350
4220906064
4220911618
4220915524
4220924558
4220931882
4220939389
4220945065
4220950131
4220958615
4220964291
4220970395
4220976437
4220985288
4220990659
4220994687
4221000302
4221004269
4221010251
4221016232
4221021909
4221025815
4221031125
4221035092
4221041012
4221047299
4221052609
4221058896
4221064145
4221069760
4221074399
4221079953
4221083432
4221090207
4221093503
4221101010
4221106137
4221111691
4221116635
4221122921
4221127865
4221133480
4221137936
4221143185
4221150143
4221156002
4221161190
4221165646
4221171261
4221176022
4221181942
4221186764
4221194027
4221199398
4221204952
4221208370
4221216854
4221224484
4221230099
4221234310
4221243099
4221247616
4221257198
4221262508
4221268856
4221277218
4221283443
4221290340
4221295284
4221301876
4221308468
4221313473
4221318111
4221325375
4221330196
4221333919
4221342831
4221347896
4221353939
4221360103
4221365169
4221373409
4221379452
4221383724
4221392513
4221399166
4221404537
4221412288
4221417110
4221422298
4221429561
4221434383
4221441280
4221447506
4221452022
4221458431
4221465755
4221472164
4221476924
4221484737
4221490962
4221497005
4221502620
4221511531
4221517757
4221524227
4221529598
4221533687
4221543941
4221550411
4221556575
4221563411
4221567989
4221575618
4221580318
4221588191
4221594295
4221601009
4221606013
4221612361
4221617244
4221622920
4221628047
4221635860
4221642573
4221649348
4221656123
4221665095
4221669307
4221677852
4221681575
4221690425
4221696345
4221701106
4221706477
4221712886
4221719294
4221723933
4221729365
4221736628
4221741755
4221747493
4221752864
4221758906
4221763606
4221770808
4221775630
4221781672
4221788020
4221790156
4221799311
4221804499
4221810237
4221813410
4221819819
4221823298
4221829768
4221835688
4221843012
4221847773
4221854243
4221859126
4221863703
4221869929
4221875056
4221880122
4221887324
4221892268
4221897395
4221902155
4221909174
4221913935
4221917536
4221925593
4221931452
4221939142
4221942438
4221949213
4221954096
4221958735
4221964960
4221969782
4221977472
4221981928
4221987604
4221991938
4221997736
4222002497
4222008356
4222011713
4222020014
4222025812
4222030146
4222036798
4222042597
4222048151
4222051996
4222057123
4222064020
4222071283
4222076898
4222084650
4222087641
4222094660
4222100824
4222108942
4222115412
4222124079
4222131098
4222137689
4222142999
4222149164
4222155389
4222161310
4222165033
4222175287
4222180353
4222184747
4222191278
4222195734
4222201288
4222205743
4222212274
4222216608
4222221735
4222225580
4222231683
4222235895
4222242059
4222248895
4222254816
4222259576
4222264459
4222269952
4222274713
4222280328
4222285211
4222293329
4222298394
4222304071
4222309869
4222316034
4222321893
4222328302
4222334771
4222339776
4222344476
4222349664
4222355462
4222360162
4222363397
4222370904
4222374200
4222383111
4222394158
4222402947
4222409966
4222414239
4222420098
4222426141
4222430413
4222436944
4222442986
4222448724
4222454705
4222460259
4222465752
4222469903
4222473138
4222481133
4222488580
4222493218
4222499078
4222503533
4222508355
4222514031
4222518426
4222524956
4222529717
4222536309
4222541192
4222548028
4222552910
4222558037
4222567986
4222575738
4222581963
4222588433
4222592766
4222599785
4222605095
4222612053
4222617485
4222623528
4222628350
4222635186
4222642083
4222648735
4222654900
4222660820
4222667717
4222673638
4222681450
4222686882
4222694695
4222700371
4222707756
4222715386
4222718865
4222725762
4222730889
4222737358
4222744133
4222748833
4222755364
4222760674
4222767510
4222773735
4222778862
4222783867
4222789360
4222793632
4222799370
4222802422
4222809380
4222814873
4222819267
4222824699
4222829704
4222834953
4222840507
4222845146
4222851127
4222856132
4222859184
4222866874
4222873527
4222877861
4222884269
4222890678
4222897453
4222901664
4222907036
4222912773
4222918510
4222922905
4222927299
4222933097
4222939689
4222944572
4222949455
4222955192
4222959526
4222965934
4222971550
4222977287
4222984550
4222989616
4222995170
4222999809
4223005424
4223009941
4223015128
4223021171
4223026237
4223031791
4223036918
4223042716
4223047355
4223053642
4223057487
4223064628
4223069938
4223076896
4223080192
4223086662
4223091422
4223097526
4223102225
4223108146
4223114738
4223120841
4223124930
4223131156
4223137015
4223141898
4223146476
4223152946
4223157889
4223165214
4223169730
4223174430
4223180655
4223185111
4223190482
4223197379
4223202567
4223210929
4223216361
4223221183
4223227958
4223232718
4223237662
4223244803
4223249198
4223259207
4223265738
4223272879
4223278983
4223284781
4223289237
4223295645
4223299796
4223308707
4223315360
4223321219
4223326041
4223332388
4223336783
4223342032
4223346549
4223352652
4223357413
4223363577
4223368155
4223374503
4223378043
4223384329
4223389212
4223395865
4223399710
4223407156
4223412039
4223417044
4223423086
4223427664
4223432242
4223439261
4223443777
4223450064
4223454458
4223460623
4223465079
4223471243
4223475699
4223481741
4223487234
4223494009
4223498587
4223503347
4223509695
4223514395
4223520498
4223525198
4223530752
4223538809
4223544668
4223549612
4223554434
4223560659
4223565664
4223569876
4223575613
4223582266
4223587515
4223593191
4223598379
4223604116
4223608999
4223615347
4223619070
4223627981
4223631765
4223639028
4223644216
4223650564
4223655447
4223661367
4223666128
4223672475
4223677724
4223684682
4223690298
4223695974
4223700185
4223706533
4223711355
4223717885
4223723196
4223728628
4223735769
4223741079
4223746511
4223751394
4223756948
4223765615
4223771352
4223775991
4223783071
4223786489
4223793264
4223798269
4223801931
4223807546
4223816152
4223822622
4223827443
4223837758
4223841787
4223850515
4223857167
4223863149
4223866750
4223875417
4223883046
4223888295
4223894826
4223901906
4223908071
4223913442
4223919606
4223925221
4223930348
4223935170
4223942616
4223946278
4223954884
4223958546
4223966054
4223970082
4223976125
4223981007
4223987233
4223992055
4223996632
4224002919
4224009389
4224014210
4224019520
4224024098
4224029469
4224034291
4224040516
4224045338
4224052418
4224055775
4224062001
4224067189
4224075490
4224082570
4224089222
4224093617
4224100087
4224105946
4224111622
4224116078
4224121388
4224125721
4224132985
4224139454
4224144215
4224149708
4224155567
4224161061
4224165211
4224171559
4224178395
4224181996
4224187916
4224193470
4224199940
4224204334
4224210987
4224217457
4224222035
4224228138
4224233082
4224240833
4224244373
4224252552
4224257557
4224263538
4224271168
4224277760
4224283863
4224289844
4224296802
4224303760
4224312977
4224317799
4224326649
4224331776
4224340137
4224346546
4224352344
4224359302
4224367847
4224374256
4224380481
4224386768
4224392627
4224400013
4224408008
4224417713
4224428150
4224436390
4224446826
4224453907
4224462268
4224468799
4224472278
4224485462
4224495593
4224509509
4224517627
4224520313
4224530750
4224536426
4224543811
4224550708
4224558154
4224564563
4224570789
4224577380
4224585986
4224592517
4224600513
4224607837
4224615954
4224621936
4224628894
4224634875
4224640307
4224650256
4224654895
4224664844
4224672534
4224678576
4224687549
4224694629
4224700854
4224710254
4224714587
4224722155
4224730273
4224740222
4224748156
4224753772
4224759875
4224766284
4224773059
4224780078
4224788256
4224796679
4224803271
4224812182
4224819811
4224826647
4224833849
4224839282
4224849352
4224857592
4224865099
4224872118
4224879809
4224886462
4224893847
4224901720
4224908312
4224915270
4224923693
4224928942
4224938708
4224946337
4224954516
4224960863
4224963732
4224973131
4224980333
4224987841
4224995226
4225004076
4225010485
4225015612
4225024584
4225031359
4225038927
4225045519
4225052782
4225061815
4225067369
4225078356
4225083422
4225090563
4225097460
4225104112
4225113085
4225118028
4225126451
4225133409
4225142687
4225149034
4225155260
4225161729
4225169237
4225177049
4225183702
4225186510
4225196886
4225204942
4225213853
4225221910
4225230577
4225238573
4225247056
4225254503
4225260118
4225269212
4225276841
4225286424
4225293016
4225296251
4225309190
4225315355
4225324388
4225330918
4225336717
4225345994
4225352891
4225357774
4225364915
4225369248
4225374803
4225380662
4225385057
4225392015
4225397508
4225403794
4225408738
4225414475
4225418931
4225424851
4225428269
4225434983
4225440110
4225446458
4225451279
4225457505
4225462266
4225467820
4225472092
4225477830
4225485154
4225491074
4225495530
4225501816
4225507493
4225512070
4225517930
4225522874
4225527512
4225532822
4225539963
4225546250
4225552292
4225558762
4225564866
4225568162
4225575425
4225582871
4225587815
4225591111
4225598313
4225604050
4225609970
4225613694
4225620957
4225626511
4225633652
4225637070
4225643967
4225648728
4225653855
4225658127
4225665085
4225669846
4225676499
4225680832
4225687119
4225691391
4225697006
4225702927
4225707443
4225714218
4225720078
4225724899
4225729904
4225735703
4225740768
4225746567
4225750961
4225758286
4225765182
4225771469
4225776352
4225782089
4225787216
4225793686
4225798141
4225803146
4225810776
4225818100
4225822433
4225827988
4225833725
4225839279
4225844772
4225853073
4225857956
4225864914
4225872787
4225877914
4225884628
4225889999
4225894333
4225898300
4225907150
4225914352
4225919845
4225928878
4225933090
4225939193
4225945053
4225950241
4225954391
4225960800
4225965194
4225971664
4225975936
4225982101
4225986312
4225992721
4226000045
4226005050
4226010665
4226016158
4226020553
4226024947
4226032638
4226036117
4226043014
4226047897
4226054366
4226059127
4226064193
4226070541
4226075484
4226079757
4226085677
4226093551
4226098128
4226102584
4226108810
4226114364
4226118880
4226125106
4226128646
4226138778
4226144210
4226150069
4226153609
4226160323
4226163558
4226170699
4226175582
4226181380
4226187301
4226194442
4226199202
4226204390
4226208846
4226215621
4226220320
4226225692
4226234420
4226239852
4226245345
4226251143
4226255660
4226259322
4226265486
4226270308
4226277999
4226282027
4226290328
4226295882
4226301863
4226303877
4226311995
4226315535
4226322737
4226329390
4226335432
4226340926
4226345320
4226352156
4226356306
4226361555
4226368208
4226373885
4226380049
4226385725
4226391768
4226396773
4226402754
4226408858
4226415205
4226420943
4226430281
4226436812
4226443953
4226452070
4226455305
4226468794
4226474714
4226481062
4226488203
4226493208
4226500288
4226505110
4226510664
4226516645
4226522993
4226529280
4226532698
4226539900
4226543135
4226550093
4226554914
4226559980
4226566938
4226572004
4226577375
4226582319
4226588484
4226592878
4226599348
4226604109
4226610761
4226615766
4226621565
4226626692
4226632917
4226637983
4226642500
4226648176
4226654585
4226656721
4226665083
4226669843
4226675397
4226678999
4226685712
4226689313
4226697370
4226701215
4226708539
4226713361
4226718671
4226723798
4226730390
4226735029
4226741315
4226747541
4226754621
4226760969
4226765851
4226770429
4226776593
4226783124
4226787030
4226796430
4226800092
4226808454
4226813825
4226818158
4226824933
4226830121
4226836103
4226839582
4226848065
4226855146
4226860272
4226864179
4226873822
4226878156
4226888471
4226891278
4226901593
4226905988
4226913861
4226920392
4226927228
4226931256
4226938519
4226944074
4226949811
4226957562
4226963605
4226968304
4226974469
4226979230
4226985944
4226991193
4226994855
4227003216
4227007001
4227014325
4227019513
4227024823
4227029461
4227035809
4227042218
4227044903
4227055707
4227062115
4227070294
4227076458
4227082501
4227089154
4227093853
4227097760
4227105877
4227114727
4227120343
4227126812
4227133831
4227138531
4227142254
4227145306
4227154156
4227160137
4227165508
4227170513
4227175152
4227181988
4227186810
4227191937
4227198895
4227204510
4227208904
4227215435
4227220684
4227226971
4227231854
4227237774
4227242535
4227248333
4227253094
4227259075
4227263348
4227269695
4227274151
4227279766
4227285992
4227292583
4227296917
4227303264
4227307415
4227314861
4227319439
4227326824
4227331524
4227336712
4227344463
4227349285
4227355510
4227361492
4227367473
4227373150
4227379863
4227386272
4227391155
4227394817
4227402568
4227408184
4227413921
4227420818
4227425823
4227432109
4227439800
4227444438
4227449382
4227455608
4227460430
4227466899
4227470745
4227476909
4227482829
4227490032
4227495097
4227501506
4227506145
4227512676
4227517619
4227522563
4227530437
4227537395
4227542583
4227546306
4227553142
4227557841
4227564677
4227569926
4227576213
4227581584
4227586833
4227591350
4227597087
4227603252
4227608623
4227613322
4227619243
4227624614
4227631877
4227636638
4227640422
4227651591
4227659526
4227668315
4227676188
4227683085
4227688395
4227696269
4227703044
4227710185
4227715861
4227721965
4227727763
4227733500
4227741435
4227745951
4227749369
4227756938
4227760295
4227767375
4227772257
4227777018
4227784403
4227789225
4227793986
4227801127
4227805644
4227812113
4227816447
4227822306
4227827433
4227834696
4227839457
4227843058
4227850748
4227854288
4227860392
4227865092
4227870402
4227876688
4227884135
4227889017
4227894388
4227899332
4227905253
4227911539
4227916239
4227922892
4227926615
4227934061
4227937906
4227945841
4227951273
4227956095
4227962931
4227967997
4227973856
4227979654
4227985697
4227991556
4227996317
4227999979
4228007975
4228013224
4228018839
4228024637
4228031961
4228037332
4228042887
4228047769
4228053568
4228059976
4228065286
4228070658
4228077066
4228084146
4228089456
4228095316
4228100137
4228106546
4228111551
4228122659
4228130350
4228135599
4228140421
4228146585
4228152933
4228157388
4228163736
4228167520
4228176126
4228180460
4228187356
4228192728
4228199380
4228204568
4228209512
4228215982
4228218057
4228229043
4228234598
4228241250
4228245096
4228252420
4228256143
4228263345
4228268655
4228276468
4228284707
4228294778
4228298013
4228305886
4228310342
4228317605
4228322366
4228328469
4228333840
4228340371
4228345925
4228353921
4228357156
4228363626
4228367227
4228373879
4228378762
4228386147
4228389626
4228395852
4228400430
4228406899
4228411843
4228417275
4228423074
4228428994
4228433328
4228439065
4228444802
4228449929
4228455727
4228460122
4228464822
4228470864
4228476845
4228482583
4228487221
4228492409
4228498330
4228503762
4228510171
4228518777
4228523354
4228528237
4228534157
4228540444
4228546547
4228551308
4228555214
4228562478
4228568825
4228576333
4228581704
4228586770
4228591469
4228598366
4228602944
4228606606
4228615761
4228620705
4228627175
4228630898
4228637856
4228643105
4228649636
4228655007
4228660012
4228665016
4228671364
4228677529
4228683022
4228687843
4228691445
4228698586
4228703957
4228711708
4228715553
4228723305
4228728676
4228733864
4228738625
4228745094
4228751442
4228756752
4228762794
4228766701
4228776161
4228781532
4228786171
4228791664
4228798317
4228803749
4228809791
4228815590
4228822304
4228826942
4228833351
4228838173
4228844948
4228849586
4228853492
4228860145
4228866920
4228874427
4228879860
4228885597
4228893226
4228898964
4228904213
4228910499
4228918556
4228924476
4228930274
4228935096
4228941200
4228946266
4228953224
4228956886
4228964149
4228969093
4228976234
4228981666
4228986915
4228991798
4228997840
4229002296
4229008460
4229015113
4229020423
4229025367
4229031043
4229035255
4229041419
4229045875
4229049293
4229057777
4229063209
4229067725
4229071021
4229078651
4229082374
4229089698
4229093055
4229099830
4229105506
4229112220
4229117042
4229121863
4229126563
4229133582
4229138160
4229141822
4229150794
4229156104
4229162696
4229168616
4229173499
4229179358
4229183997
4229189368
4229196326
4229203223
4229209693
4229214514
4229219886
4229226294
4229231116
4229237586
4229241553
4229247962
4229253699
4229260657
4229265723
4229271094
4229275366
4229282324
4229287146
4229292578
4229300086
4229306555
4229311865
4229318335
4229325598
4229328223
4229339514
4229342139
4229353735
4229358740
4229365942
4229372595
4229381506
4229389014
4229397925
4229405737
4229414953
4229426184
4229433447
4229436560
4229446631
4229452368
4229462133
4229469030
4229472326
4229484655
4229490210
4229497229
4229505041
4229513281
4229521704
4229524633
4229535375
4229540624
4229548193
4229554907
4229562597
4229571142
4229578954
4229591223
4229596044
4229607397
4229616308
4229624792
4229631139
4229639013
4229647619
4229656347
4229662694
4229667943
4229679967
4229687780
4229693944
4229700170
4229705968
