4358678905
4358684337
4358690562
4358697887
4358703929
4358710338
4358716746
4358722850
4358728160
4358734874
4358741099
4358747630
4358753612
4358758433
4358765208
4358771251
4358776744
4358784007
4358790355
4358796458
4358802379
4358809214
4358814952
4358820933
4358827464
4358833323
4358839732
4358847483
4358854014
4358861399
4358869578
4358875254
4358882945
4358889537
4358897654
4358906687
4358913767
4358921946
4358928660
4358935618
4358943003
4358951914
4358960459
4358968333
4358976023
4358983714
4358990916
4358998057
4359005564
4359013132
4359020151
4359029063
4359035105
4359043284
4359051157
4359057505
4359065134
4359073557
4359079905
4359087351
4359095774
4359103830
4359110544
4359120188
4359125254
4359133860
4359142282
4359148508
4359158762
4359165293
4359172983
4359180918
4359188120
4359196604
4359203623
4359211252
4359217600
4359224985
4359233286
4359240061
4359248422
4359261545
4359269662
4359278391
4359287668
4359294076
4359303781
4359312875
4359321359
4359328683
4359334604
4359344186
4359350046
4359358835
4359366952
4359375863
4359383493
4359390390
4359397775
4359406564
4359414682
4359423471
4359430062
4359437814
4359445810
4359453622
4359461862
4359468881
4359478646
4359484872
4359494149
4359499764
4359508065
4359516183
4359524545
4359533395
4359539987
4359547250
4359555245
4359564828
4359572579
4359580941
4359589730
4359596993
4359605355
4359612313
4359621285
4359629220
4359637887
4359646676
4359652047
4359660225
4359669625
4359675545
4359684151
4359694832
4359702034
4359708870
4359717415
4359724923
4359733834
4359740914
4359751229
4359757149
4359765145
4359772835
4359780525
4359789376
4359797188
4359805184
4359813362
4359820686
4359828987
4359836678
4359845039
4359854134
4359860848
4359869453
4359876534
4359885200
4359892403
4359899971
4359909431
4359916389
4359922188
4359933784
4359942756
4359952827
4359963997
4359971382
4359985115
4359994392
4360002266
4360010627
4360022041
4360030037
4360036811
4360045478
4360051704
4360060188
4360066169
4360076179
4360082160
4360090827
4360097663
4360106574
4360113899
4360121955
4360129707
4360134773
4360145026
4360151618
4360160346
4360168220
4360176276
4360184150
4360191413
4360199165
4360205634
4360212531
4360220893
4360229560
4360239326
4360246711
4360253486
4360261970
4360270148
4360277961
4360285163
4360292548
4360299201
4360307563
4360316230
4360325080
4360334601
4360340949
4360348761
4360360785
4360366645
4360376593
4360383185
4360391120
4360399726
4360404852
4360412238
4360420050
4360429022
4360438483
4360444464
4360454230
4360461493
4360468939
4360476752
4360485052
4360494635
4360502203
4360510565
4360517279
4360522223
4360532477
4360539374
4360546881
4360553778
4360561468
4360569098
4360578924
4360587042
4360598639
4360605719
4360611822
4360617559
4360622869
4360629644
4360634588
4360639166
4360644598
4360649298
4360654974
4360659490
4360663824
4360669012
4360674017
4360678961
4360683294
4360687872
4360690801
4360695867
4360701116
4360706304
4360711431
4360716192
4360720525
4360726812
4360730718
4360735662
4360740972
4360745428
4360750127
4360754888
4360758794
4360763616
4360768682
4360773016
4360777959
4360783208
4360786809
4360792547
4360797674
4360801153
4360805974
4360810369
4360815130
4360819036
4360823125
4360829229
4360833990
4360837774
4360842718
4360845586
4360852056
4360858404
4360863103
4360867986
4360872320
4360877141
4360882573
4360886602
4360891790
4360895330
4360900457
4360904607
4360910039
4360915227
4360920354
4360925664
4360930974
4360936101
4360940679
4360945256
4360950994
4360955266
4360960820
4360966313
4360971440
4360975469
4360981633
4360985723
4360994023
4360999700
4361003850
4361008428
4361014714
4361019536
4361026982
4361032658
4361038335
4361043950
4361052251
4361057683
4361062444
4361070073
4361076237
4361080937
4361086064
4361090214
4361094670
4361099248
4361105412
4361110661
4361114262
4361119694
4361123845
4361129643
4361134526
4361139348
4361144353
4361150395
4361154728
4361160771
4361165226
4361169560
4361174748
4361179692
4361186528
4361191227
4361196354
4361200993
4361205693
4361211857
4361215886
4361220890
4361225468
4361231999
4361237187
4361242314
4361247196
4361252568
4361258122
4361263676
4361269779
4361275517
4361280461
4361286686
4361290837
4361296696
4361302433
4361308598
4361313603
4361319523
4361326664
4361331059
4361338078
4361342594
4361348820
4361353642
4361358646
4361364872
4361370914
4361377079
4361381901
4361387089
4361392643
4361397526
4361403019
4361406193
4361414493
4361419376
4361424991
4361429203
4361435306
4361439579
4361444950
4361449833
4361455570
4361462223
4361466190
4361472477
4361478214
4361483219
4361488590
4361493473
4361499637
4361505436
4361511234
4361516971
4361522037
4361527408
4361530216
4361536930
4361544010
4361549686
4361555728
4361561893
4361567264
4361574039
4361578800
4361585452
4361590396
4361598941
4361605289
4361610233
4361615421
4361620975
4361626712
4361631961
4361635318
4361642459
4361647098
4361651981
4361657474
4361662173
4361667789
4361671451
4361678104
4361683414
4361687930
4361694339
4361698489
4361705264
4361711001
4361715884
4361721377
4361727481
4361732913
4361739261
4361745181
4361749454
4361754886
4361759890
4361764956
4361771182
4361775760
4361782168
4361787051
4361791751
4361797000
4361801577
4361807986
4361812930
4361818850
4361823733
4361828433
4361833804
4361836550
4361843631
4361848330
4361855166
4361861941
4361866519
4361876773
4361882205
4361888125
4361894473
4361901614
4361907290
4361910586
4361918093
4361922549
4361929568
4361936770
4361941592
4361946291
4361953555
4361958254
4361963931
4361968325
4361975649
4361980288
4361986147
4361991518
4361998965
4362003786
4362008852
4362015383
4362021548
4362026491
4362031008
4362035708
4362042788
4362047182
4362051394
4362057497
4362063234
4362067324
4362074343
4362079165
4362086245
4362092775
4362099306
4362104311
4362111879
4362117678
4362124575
4362131105
4362137697
4362144106
4362149965
4362153993
4362160097
4362163820
4362171816
4362176088
4362181337
4362185549
4362190614
4362194093
4362199404
4362206362
4362211427
4362215761
4362219240
4362224306
4362229677
4362234499
4362237367
4362244936
4362250429
4362255495
4362260622
4362265688
4362270876
4362275758
4362282411
4362287599
4362290285
4362298341
4362303590
4362309144
4362315370
4362320253
4362325685
4362331056
4362334962
4362341310
4362347230
4362351625
4362357667
4362362428
4362367921
4362373109
4362377992
4362382142
4362388002
4362392823
4362398927
4362403077
4362406617
4362414247
4362418397
4362423646
4362431581
4362436952
4362442018
4362447084
4362451844
4362458253
4362462525
4362468751
4362474122
4362479615
4362483705
4362490235
4362495118
4362500550
4362505311
4362510316
4362515321
4362520020
4362523499
4362529542
4362533509
4362540528
4362544923
4362549744
4362554688
4362558472
4362563355
4362567811
4362574891
4362581788
4362586060
4362592042
4362597108
4362601502
4362610657
4362616273
4362621094
4362626038
4362631959
4362637879
4362642151
4362648682
4362653199
4362658082
4362662415
4362667237
4362671692
4362676758
4362681153
4362688843
4362693970
4362699707
4362703553
4362709473
4362717652
4362727845
4362736084
4362747803
4362756836
4362764893
4362774109
4362778015
4362786194
4362790466
4362796692
4362800964
4362807190
4362812134
4362816589
4362821716
4362826843
4362831360
4362837647
4362842773
4362847961
4362852234
4362858398
4362863464
4362868408
4362871399
4362878967
4362883667
4362888672
4362893188
4362898254
4362902161
4362908203
4362913025
4362919678
4362926697
4362932190
4362937622
4362946777
4362956482
4362965820
4362974121
4362980896
4362989990
4363000305
4363007446
4363014587
4363024047
4363034118
4363041015
4363053161
4363062499
4363071105
4363080993
4363093139
4363103027
4363112487
4363120422
4363128417
4363138854
4363146972
4363156982
4363164001
4363173644
4363184020
4363192748
4363204467
4363218383
4363229247
4363244750
4363253295
4363267211
4363280089
4363285765
4363297972
4363304808
4363313903
4363322386
4363329344
4363339659
4363345702
4363353514
4363361693
4363371886
4363379576
4363387206
4363394225
4363402586
4363409850
4363417906
4363427245
4363434508
4363442931
4363449217
4363457640
4363463621
4363471983
4363480833
4363488402
4363495421
4363502745
4363510985
4363519163
4363526427
4363534422
4363545591
4363557310
4363567259
4363575193
4363587828
4363598997
4363608946
4363619261
4363628111
4363643553
4363656187
4363664427
4363674986
4363680723
4363685179
4363691099
4363695554
4363700315
4363704954
4363709226
4363713560
4363719663
4363724790
4363729368
4363734068
4363738523
4363742735
4363747678
4363752988
4363757932
4363762998
4363767026
4363771482
4363775388
4363781065
4363786497
4363791379
4363796689
4363801511
4363805967
4363810911
4363817258
4363824766
4363833677
4363842832
4363848508
4363858274
4363867429
4363875303
4363879514
4363891843
4363901059
4363909055
4363919919
4363927549
4363935849
4363941953
4363958005
4363964841
4363973325
4363980405
4363987363
4363996091
4364004270
4364010434
4364018735
4364026303
4364035703
4364042966
4364052792
4364059567
4364065488
4364075925
4364083554
4364091061
4364099301
4364106076
4364115903
4364123654
4364131711
4364139645
4364149716
4364157284
4364160397
4364166378
4364173031
4364176327
4364180722
4364184811
4364189755
4364194394
4364200802
4364207211
4364211666
4364216305
4364220517
4364223751
4364228695
4364233639
4364238888
4364242489
4364247189
4364252316
4364256405
4364260250
4364264950
4364269161
4364274471
4364279843
4364283016
4364287655
4364292355
4364297176
4364301083
4364307552
4364313778
4364318783
4364322140
4364327328
4364332333
4364335995
4364341000
4364345089
4364349667
4364354977
4364359127
4364363644
4364369198
4364372555
4364377621
4364381527
4364386776
4364392757
4364397396
4364403866
4364410213
4364414852
4364421261
4364425594
4364432674
4364439449
4364444515
4364450252
4364455501
4364460262
4364465755
4364469478
4364475155
4364480709
4364484981
4364489315
4364494808
4364500667
4364504390
4364509883
4364515682
4364521785
4364526241
4364532100
4364536678
4364541500
4364548397
4364553951
4364559505
4364565059
4364570064
4364574581
4364581050
4364585262
4364591121
4364596431
4364600948
4364607600
4364613460
4364618037
4364623470
4364628719
4364633052
4364639644
4364644710
4364648738
4364654781
4364659297
4364664058
4364669307
4364674922
4364679561
4364684505
4364690059
4364697078
4364702876
4364707271
4364716365
4364720881
4364725764
4364730708
4364737178
4364742122
4364748469
4364753718
4364759150
4364763789
4364771541
4364777034
4364782710
4364786799
4364792598
4364796016
4364802180
4364808833
4364813533
4364819392
4364824763
4364828791
4364834223
4364839289
4364844905
4364851496
4364855952
4364863703
4364868037
4364874751
4364880122
4364886530
4364892695
4364897761
4364904414
4364908869
4364914362
4364918330
4364923090
4364928156
4364933039
4364938471
4364942194
4364947932
4364955195
4364960017
4364965388
4364969294
4364974604
4364979975
4364985407
4364989924
4364996577
4365001337
4365006769
4365012018
4365017389
4365022822
4365028132
4365034479
4365039728
4365044001
4365049433
4365054316
4365059992
4365064386
4365069513
4365075800
4365080256
4365084589
4365089411
4365093500
4365099298
4365103815
4365107782
4365112970
4365120356
4365124689
4365128717
4365134272
4365140680
4365146356
4365151300
4365156793
4365160700
4365167658
4365171991
4365177484
4365181207
4365186151
4365191461
4365196283
4365200617
4365208368
4365213861
4365218378
4365221979
4365228143
4365232538
4365237848
4365243463
4365249567
4365254877
4365259149
4365264642
4365269281
4365273920
4365282098
4365287103
4365292108
4365297296
4365303399
4365308404
4365313592
4365319085
4365325738
4365331292
4365336175
4365343377
4365348626
4365353875
4365358880
4365365167
4365370965
4365377130
4365382196
4365384881
4365390802
4365395684
4365402642
4365411554
4365416741
4365420770
4365426507
4365430902
4365437188
4365443658
4365447320
4365454766
4365459527
4365464227
4365468865
4365473931
4365481133
4365486016
4365491082
4365497003
4365501763
4365506707
4365510735
4365516290
4365522454
4365527886
4365533135
4365537652
4365542718
4365547723
4365552239
4365559075
4365564690
4365570000
4365574700
4365579339
4365583550
4365590203
4365595330
4365601067
4365604668
4365609612
4365614312
4365619011
4365625054
4365630364
4365636101
4365638604
4365645257
4365649102
4365654351
4365666192
4365671685
4365676506
4365682305
4365687188
4365692437
4365697747
4365703911
4365710442
4365717339
4365722893
4365729973
4365734185
4365739678
4365746575
4365752739
4365756767
4365762871
4365768303
4365773674
4365779106
4365784477
4365789665
4365796867
4365802971
4365808586
4365815422
4365824089
4365830376
4365836662
4365842522
4365847221
4365853569
4365858208
4365864433
4365869987
4365873344
4365879204
4365883232
4365888115
4365891594
4365897331
4365901481
4365906853
4365913261
4365919060
4365924003
4365929374
4365934562
4365938469
4365943351
4365948662
4365954948
4365958793
4365964653
4365968437
4365973198
4365977714
4365982597
4365988517
4365993278
4365999137
4366004203
4366009391
4366013969
4366018180
4366025383
4366029289
4366035942
4366040458
4366045768
4366051628
4366055839
4366062309
4366066032
4366071342
4366076713
4366080253
4366087516
4366092155
4366097953
4366103935
4366107841
4366112479
4366116264
4366122611
4366128043
4366133964
4366140250
4366145255
4366150382
4366155753
4366159721
4366167045
4366172294
4366177116
4366182059
4366186759
4366190787
4366196464
4366202445
4366207389
4366213065
4366217154
4366222281
4366226737
4366232902
4366239676
4366243888
4366250846
4366254508
4366259757
4366264945
4366271903
4366277152
4366283988
4366290152
4366295707
4366300833
4366309256
4366313468
4366319815
4366324942
4366330741
4366335684
4366341788
4366347891
4366352042
4366357901
4366362052
4366368033
4366373099
4366377860
4366383170
4366388541
4366394583
4366400748
4366404654
4366410208
4366414542
4366420401
4366424673
4366429617
4366436697
4366441092
4366451346
4366456717
4366460562
4366466971
4366473563
4366478812
4366484122
4366490408
4366494681
4366500662
4366505240
4366510855
4366517935
4366523428
4366529165
4366532522
4366538199
4366543997
4366550467
4366555288
4366560720
4366564871
4366570913
4366575125
4366581839
4366588186
4366594534
4366600271
4366606008
4366611319
4366615286
4366622061
4366626760
4366631948
4366636404
4366642446
4366647634
4366654104
4366658438
4366664907
4366672964
4366677908
4366683706
4366689260
4366693655
4366699209
4366703115
4366710989
4366717580
4366722219
4366727285
4366732839
4366738454
4366743398
4366750783
4366759389
4366765249
4366772207
4366777822
4366783620
4366789113
4366796804
4366803090
4366810720
4366814687
4366821340
4366826284
4366833120
4366839650
4366844899
4366849538
4366854909
4366860219
4366864919
4366870046
4366877065
4366882375
4366887319
4366892446
4366896230
4366902028
4366907582
4366912892
4366917836
4366924062
4366927175
4366934133
4366940419
4366946218
4366951833
4366957204
4366963857
4366968801
4366974233
4366979848
4366984181
4366989980
4366994252
4367000111
4367005727
4367011769
4367017506
4367022878
4367027455
4367033803
4367037648
4367043141
4367048390
4367055592
4367060536
4367066090
4367072011
4367076100
4367080556
4367087514
4367092091
4367098256
4367103322
4367109974
4367114247
4367118886
4367125111
4367130055
4367136647
4367141346
4367147877
4367152699
4367157643
4367162159
4367167591
4367173024
4367178395
4367184498
4367191395
4367197377
4367202931
4367207569
4367214588
4367218800
4367224476
4367230397
4367236500
4367242115
4367247914
4367253773
4367259327
4367264820
4367269947
4367275562
4367281239
4367286793
4367292103
4367297535
4367302967
4367308460
4367314686
4367321095
4367328236
4367335438
4367342335
4367346485
4367354053
4367359486
4367364735
4367371509
4367377064
4367382923
4367388904
4367394581
4367399952
4367404835
4367409473
4367416919
4367422535
4367428150
4367433582
4367439136
4367441944
4367448963
4367453296
4367459766
4367464222
4367471058
4367475452
4367481739
4367486194
4367492054
4367497242
4367503589
4367509449
4367514820
4367518360
4367523670
4367528491
4367535266
4367539539
4367546497
4367552112
4367556995
4367561694
4367568347
4367572131
4367576648
4367579273
4367588672
4367594348
4367598926
4367603687
4367609241
4367612903
4367618579
4367623340
4367629199
4367634875
4367639819
4367644092
4367650378
4367656848
4367661975
4367668811
4367673022
4367680224
4367684375
4367690539
4367695605
4367700549
4367703235
4367710742
4367715564
4367722400
4367727343
4367732592
4367736438
4367742480
4367746692
4367754992
4367761340
4367765429
4367769519
4367775561
4367780627
4367784594
4367790454
4367795214
4367801501
4367805041
4367811022
4367816516
4367821032
4367825122
4367831225
4367837268
4367842761
4367847888
4367854724
4367862841
4367867602
4367875659
4367881823
4367890795
4367894946
4367902026
4367908678
4367913561
4367920092
4367924975
4367928149
4367941271
4367949938
4367956652
4367965502
4367972216
4367977038
4367982897
4367988512
4367994494
4368000963
4368005297
4368011461
4368015368
4368020983
4368025866
4368031054
4368036852
4368041674
4368047838
4368053026
4368057482
4368064135
4368069506
4368075426
4368081346
4368086046
4368088854
4368097155
4368103319
4368108690
4368113817
4368119127
4368124620
4368130113
4368133837
4368141039
4368146532
4368152818
4368157762
4368162523
4368170519
4368173448
4368180772
4368186144
4368191148
4368196397
4368200426
4368206285
4368210680
4368217699
4368223558
4368231248
4368235521
4368242052
4368246324
4368251512
4368257982
4368263963
4368270067
4368274644
4368280443
4368286546
4368291002
4368295946
4368302598
4368308519
4368312913
4368319688
4368323533
4368330125
4368334886
4368341661
4368346605
4368352342
4368358506
4368362840
4368372544
4368381578
4368389024
4368394029
4368402024
4368409410
4368414598
4368421922
4368432420
4368438279
4368444871
4368451158
4368458299
4368464036
4368469285
4368473802
4368481309
4368489915
4368494309
4368498887
4368506516
4368511460
4368517319
4368522568
4368527390
4368532273
4368538438
4368543320
4368547715
4368553025
4368559861
4368565720
4368570481
4368574692
4368582444
4368587388
4368591355
4368597581
4368603989
4368608994
4368612351
4368617783
4368623459
4368627549
4368633347
4368637619
4368645127
4368649582
4368655625
4368659592
4368665146
4368670456
4368674668
4368680832
4368687241
4368691391
4368696884
4368702133
4368705673
4368711472
4368716416
4368721115
4368727158
4368733322
4368737656
4368744065
4368749558
4368753647
4368759323
4368763840
4368768723
4368775559
4368779526
4368785324
4368790329
4368794907
4368799423
4368805710
4368812180
4368816818
4368822311
4368827316
4368833786
4368838730
4368845016
4368848862
4368855698
4368860763
4368865463
4368871139
4368876510
4368880905
4368888229
4368891098
4368898727
4368905990
4368911606
4368918014
4368923263
4368927597
4368935287
4368939987
4368948593
4368955063
4368962387
4368967208
4368972885
4368977279
4368983017
4368987960
4368993515
4368998153
4369001998
4369009628
4369014205
4369018966
4369023239
4369029403
4369033798
4369038558
4369043868
4369048812
4369054550
4369059493
4369064926
4369070419
4369075424
4369080612
4369086105
4369091842
4369096297
4369101363
4369108016
4369113509
4369118087
4369123214
4369128219
4369135116
4369138473
4369144698
4369150741
4369161971
4369168258
4369177108
4369179915
4369186141
4369191939
4369196944
4369199569
4369207686
4369213851
4369218917
4369223800
4369228682
4369233321
4369238265
4369244246
4369249312
4369254683
4369260299
4369265487
4369271895
4369275557
4369281783
4369286238
4369292769
4369297225
4369302169
4369306929
4369311873
4369316634
4369322005
4369327986
4369333724
4369339339
4369345076
4369348189
4369355757
4369361800
4369365767
4369371871
4369376387
4369384139
4369388350
4369392989
4369399397
4369404097
4369410323
4369415144
4369423872
4369431685
4369436446
4369441206
4369447066
4369451582
4369458601
4369463972
4369471663
4369477522
4369484846
4369489973
4369497114
4369503889
4369509321
4369514509
4369520552
4369526533
4369532393
4369538252
4369542036
4369548506
4369553206
4369559065
4369563520
4369568586
4369573347
4369578291
4369585127
4369590010
4369595503
4369599714
4369604719
4369608808
4369614546
4369619184
4369623945
4369628523
4369632368
4369638532
4369643049
4369648847
4369653608
4369659467
4369663801
4369670820
4369676252
4369682417
4369689191
4369694929
4369700666
4369705122
4369710554
4369715986
4369719526
4369726606
4369731184
4369736311
4369741132
4369746076
4369751874
4369757246
4369762006
4369767011
4369772626
4369777509
4369784528
4369788740
4369794050
4369799543
4369804792
4369809369
4369814618
4369819745
4369825361
4369829267
4369836896
4369843366
4369847699
4369853070
4369856733
4369863385
4369867841
4369873090
4369877912
4369883283
4369887921
4369892926
4369898603
4369905805
4369910749
4369915204
4369919721
4369926984
4369932904
4369939984
4369946149
4369952985
4369958478
4369964581
4369969830
4369976117
4369982282
4369989117
4369995526
4370000470
4370006390
4370012189
4370017377
4370021649
4370028851
4370033612
4370039349
4370043256
4370049176
4370053998
4370059308
4370065289
4370071271
4370075421
4370080548
4370086896
4370091595
4370096417
4370102154
4370107281
4370112713
4370119000
4370123456
4370128888
4370134991
4370137738
4370145306
4370150250
4370155072
4370160992
4370166180
4370171795
4370181012
4370188702
4370194073
4370199505
4370204998
4370208782
4370213970
4370220989
4370226971
4370231487
4370236126
4370241924
4370247479
4370253765
4370260052
4370265911
4370272442
4370276531
4370283062
4370285687
4370292522
4370297283
4370303326
4370308941
4370314556
4370321331
4370324993
4370330913
4370333904
4370341106
4370350140
4370356487
4370361919
4370366802
4370369671
4370377605
4370382488
4370389019
4370394390
4370400554
4370405376
4370410442
4370416301
4370422039
4370425029
4370436260
4370443645
4370448833
4370454448
4370460125
4370464519
4370470806
4370477397
4370483623
4370489543
4370495037
4370499553
4370503459
4370509136
4370513286
4370519390
4370524211
4370528667
4370534892
4370539409
4370544048
4370548686
4370554485
4370560283
4370564922
4370569438
4370574443
4370578899
4370584148
4370588542
4370594951
4370599895
4370605266
4370610027
4370616069
4370623027
4370629314
4370633952
4370640971
4370644694
4370651591
4370656779
4370662089
4370667277
4370672832
4370677043
4370684916
4370690959
4370696086
4370700602
4370706157
4370709941
4370715922
4370719767
4370725993
4370730388
4370736369
4370742595
4370748027
4370752299
4370756388
4370762919
4370769877
4370776652
4370781291
4370786357
4370792277
4370797221
4370802714
4370808146
4370814738
4370819926
4370824931
4370830851
4370837626
4370842082
4370846964
4370853312
4370857646
4370866618
4370870036
4370876505
4370881266
4370888285
4370893839
4370898539
4370903666
4370910624
4370918986
4370923319
4370929728
4370935404
4370940409
4370944559
4370951639
4370958414
4370963785
4370969889
4370975260
4370979105
4370987894
4370993021
4370999735
4371007609
4371013529
4371018900
4371025248
4371030008
4371036783
4371041422
4371046549
4371051126
4371058817
4371064432
4371069071
4371073282
4371079264
4371084146
4371089090
4371094156
4371101053
4371104532
4371110880
4371115640
4371120706
4371127176
4371135660
4371144876
4371152872
4371160379
4371168741
4371175760
4371182108
4371186563
4371191629
4371198160
4371203226
4371211465
4371216714
4371224222
4371228006
4371233438
4371236978
4371243082
4371247476
4371252786
4371256753
4371260721
4371266153
4371270364
4371272867
4371282083
4371286661
4371292703
4371296365
4371302041
4371305337
4371311136
4371313760
4371320962
4371326700
4371331643
4371335977
4371341714
4371344094
4371349954
4371355691
4371362405
4371367715
4371372659
4371377053
4371382852
4371385964
4371392068
4371394937
4371401712
4371406716
4371411477
4371416543
4371421182
4371425332
4371429910
4371435891
4371442178
4371446877
4371451699
4371456582
4371461038
4371465493
4371470498
4371474465
4371481301
4371486733
4371493935
4371497598
4371503762
4371506203
4371512246
4371516091
4371526162
4371530556
4371536538
4371543435
4371548073
4371553445
4371559853
4371567849
4371571694
4371576821
4371581704
4371587319
4371592812
4371596535
4371602456
4371607033
4371611611
4371617348
4371621621
4371625222
4371630837
4371635292
4371642189
4371649941
4371656960
4371662270
4371669899
4371676735
4371683937
4371691139
4371698097
4371704384
4371712013
4371718788
4371724831
4371729286
4371734596
4371739540
4371744118
4371748695
4371754067
4371758583
4371763710
4371768410
4371773415
4371777870
4371781837
4371786293
4371790932
4371795326
4371799110
4371804237
4371808327
4371813148
4371818886
4371824562
4371829079
4371834022
4371838539
4371843300
4371848427
4371853615
4371858864
4371863930
4371867714
4371873146
4371877723
4371884010
4371888893
4371893593
4371897682
4371903236
4371908058
4371913307
4371918129
4371923683
4371929237
4371934242
4371939796
4371943214
4371948463
4371954200
4371960548
4371965614
4371971107
4371977149
4371982032
4371988563
4371994728
4371999671
4372004615
4372011451
4372015113
4372021095
4372026344
4372032630
4372038734
4372043189
4372048255
4372052100
4372057594
4372062293
4372067054
4372072730
4372078895
4372083717
4372089027
4372093055
4372097388
4372101783
4372107032
4372112159
4372117835
4372121253
4372126685
4372132911
4372137366
4372144019
4372149756
4372154334
4372158668
4372164710
4372168799
4372175086
4372179114
4372185523
4372190467
4372196998
4372200843
4372206336
4372212623
4372217566
4372222022
4372226905
4372230994
4372239234
4372244422
4372249427
4372254615
4372259986
4372263831
4372270911
4372276587
4372282691
4372288428
4372293982
4372298377
4372304053
4372308264
4372314490
4372318884
4372325232
4372330359
4372335852
4372340796
4372346411
4372351416
4372356909
4372362402
4372368262
4372374060
4372377295
4372389990
4372395911
4372401526
4372406103
4372411780
4372416357
4372423926
4372427344
4372434363
4372438635
4372445288
4372449621
4372456457
4372461096
4372468359
4372473303
4372479712
4372486120
4372490820
4372497168
4372501501
4372507971
4372513891
4372520605
4372528723
4372534643
4372540869
4372547033
4372553137
4372560705
4372567541
4372572790
4372578039
4372583166
4372588537
4372592993
4372597631
4372599951
4372607641
4372613134
4372617834
4372622289
4372628332
4372633093
4372637182
4372641577
4372647863
4372653295
4372657934
4372661901
4372668249
4372671850
4372678686
4372681615
4372690771
4372694799
4372700353
4372706213
4372711523
4372717077
4372721105
4372726903
4372733312
4372737524
4372742284
4372747961
4372753881
4372758153
4372762487
4372768957
4372775243
4372780370
4372786657
4372791723
4372797033
4372803991
4372809606
4372817296
4372825780
4372831029
4372834874
4372841771
4372849462
4372854283
4372859899
4372865941
4372874791
4372879674
4372885289
4372890172
4372894383
4372901280
4372905492
4372910863
4372916722
4372922460
4372927464
4372932958
4372938451
4372944249
4372948583
4372955907
4372963170
4372968907
4372974339
4372980016
4372985387
4372992101
4372996678
4373002660
4373007603
4373013524
4373020421
4373025243
4373031285
4373035069
4373040990
4373045201
4373053013
4373059422
4373065037
4373068089
4373077977
4373081334
4373089146
4373094761
4373101841
4373106968
4373114048
4373120945
4373127293
4373131565
4373137059
4373146336
4373152195
4373157994
4373163060
4373169407
4373174290
4373178379
4373185337
4373193028
4373200047
4373205113
4373209812
4373214756
4373220493
4373225620
4373230320
4373235508
4373241673
4373246189
4373252476
4373257420
4373263950
4373268833
4373273411
4373280857
4373287876
4373292271
4373298435
4373302708
4373311130
4373316135
4373321934
4373327915
4373332065
4373336582
4373342441
4373347324
4373352878
4373358311
4373364109
4373370640
4373376743
4373381992
4373385044
4373391636
4373395603
4373402012
4373405918
4373412449
4373418369
4373422519
4373430393
4373436435
4373440219
4373447055
4373451328
4373459446
4373465000
4373470188
4373475315
4373480197
4373485446
4373490573
4373496555
4373501804
4373507419
4373512546
4373521579
4373529270
4373534763
4373539829
4373544040
4373550815
4373556796
4373563083
4373568820
4373574191
4373578769
4373586093
4373589511
4373596164
4373601047
4373609409
4373615207
4373620761
4373626865
4373630893
4373636996
4373643100
4373650973
4373659213
4373665988
4373672214
4373678988
4373685336
4373691012
4373696628
4373701205
4373706271
4373710482
4373714816
4373719577
4373725192
4373729403
4373735385
4373740634
4373744845
4373750827
4373756686
4373762118
4373767306
4373772006
4373777682
4373784213
4373789584
4373795931
4373801180
4373806063
4373811190
4373816989
4373821566
4373827426
4373831576
4373836459
4373841769
4373848605
4373853671
4373858798
4373863741
4373870028
4373877779
4373882662
4373890414
4373894503
4373900118
4373906344
4373912508
4373918001
4373922762
4373928683
4373933932
4373940706
4373948275
4373952913
4373958956
4373963412
4373968172
4373973543
4373978975
4373984835
4373990633
4373996431
4374002169
4374006929
4374011629
4374017183
4374023714
4374028109
4374034883
4374040071
4374045015
4374050753
4374055147
4374060213
4374066072
4374071688
4374076692
4374081636
4374087068
4374091646
4374097689
4374103182
4374109468
4374115450
4374122041
4374127352
4374133333
4374140230
4374145723
4374153108
4374159761
4374164705
4374169710
4374176729
4374182100
4374189973
4374194612
4374200166
4374205293
4374211030
4374215364
4374222871
4374228181
4374234285
4374239656
4374244600
4374251008
4374254671
4374260530
4374265169
4374270845
4374274812
4374280610
4374286226
4374291780
4374296968
4374301057
4374309297
4374313264
4374319062
4374322908
4374329805
4374335420
4374339143
4374346711
4374351533
4374356233
4374363069
4374366853
4374373628
4374376924
4374385713
4374391938
4374396638
4374401032
4374406648
4374411775
4374415864
4374422456
4374428559
4374434297
4374440705
4374444978
4374449433
4374455781
4374461640
4374466096
4374472810
4374478181
4374483857
4374486970
4374492768
4374499604
4374503693
4374509125
4374513520
4374520295
4374526704
4374530427
4374538849
4374543915
4374549714
4374554719
4374560761
4374564545
4374570710
4374577118
4374581757
4374587800
4374594086
4374600373
4374605072
4374611359
4374617279
4374626252
4374631623
4374639252
4374643952
4374649201
4374655121
4374662873
4374669098
4374675324
4374680634
4374686005
4374692169
4374698090
4374704560
4374709015
4374714813
4374720368
4374725861
4374731659
4374737030
4374741669
4374747223
4374751617
4374761627
4374766632
4374771820
4374777557
4374782989
4374787445
4374792938
4374798248
4374803680
4374808014
4374813751
4374818817
4374825287
4374831268
4374836334
4374841339
4374845672
4374851715
4374855255
4374861114
4374866363
4374871002
4374876678
4374881195
4374886322
4374892181
4374897796
4374902557
4374908294
4374913482
4374917816
4374924835
4374928741
4374935699
4374939788
4374945282
4374949432
4374956024
4374960723
4374966339
4374972198
4374979278
4374983795
4374989349
4374995574
4375001678
4375006011
4375011077
4375017730
4375022552
4375029632
4375034149
4375040679
4375046966
4375053008
4375058318
4375066253
4375073394
4375080779
4375085967
4375092132
4375096282
4375102935
4375108245
4375114837
4375118987
4375125091
4375131682
4375136138
4375141814
4375148589
4375152678
4375159514
4375165252
4375171721
4375177031
4375182036
4375190154
4375196502
4375203399
4375213225
4375220305
4375226531
4375232451
4375238372
4375245147
4375250396
4375254790
4375262053
4375268340
4375273162
4375278411
4375283293
4375288298
4375292937
4375297698
4375304595
4375308684
4375313384
4375317656
4375323027
4375326872
4375333098
4375337553
4375344939
4375348784
4375354277
4375359160
4375364653
4375369109
4375375700
4375379912
4375388884
4375393950
4375397978
4375403776
4375409331
4375415068
4375419157
4375425566
4375431303
4375436491
4375442656
4375447600
4375451994
4375458891
4375463347
4375468840
4375475126
4375480864
4375486540
4375490812
4375495634
4375502592
4375506498
4375512785
4375517302
4375524260
4375528898
4375535124
4375540983
4375545072
4375551603
4375557463
4375562773
4375570524
4375575590
4375580961
4375585783
4375592069
4375597013
4375601774
4375608122
4375614408
4375620939
4375628263
4375637602
4375641935
4375647978
4375652433
4375657682
4375664152
4375668974
4375673612
4375679960
4375685453
4375690397
4375694791
4375701627
4375706144
4375711576
4375717496
4375722013
4375728116
4375733732
4375738004
4375743741
4375749479
4375753507
4375760221
4375765165
4375772489
4375777494
4375782560
4375790250
4375795438
4375800138
4375808988
4375815458
4375820401
4375823209
4375832608
4375837552
4375842618
4375847135
4375853665
4375858548
4375863797
4375868070
4375874723
4375878995
4375884244
4375888700
4375896634
4375901578
4375906888
4375912137
4375917630
4375922086
4375927457
4375931912
4375940701
4375943997
4375949979
4375956082
4375961514
4375966153
4375971829
4375977628
4375983548
4375989407
4375992764
4375999356
4376004666
4376009610
4376014249
4376019742
4376026639
4376032010
4376038113
4376043545
4376049405
4376055447
4376058316
4376065152
4376069363
4376076504
4376081387
4376087979
4376096890
4376103726
4376108059
4376112637
4376119046
4376124478
4376131008
4376135830
4376142666
4376147793
4376152737
4376157620
4376164456
4376168301
4376175564
4376181423
4376186733
4376189846
4376197293
4376201748
4376208157
4376212429
4376220303
4376226528
4376230801
4376237454
4376242947
4376249538
4376253567
4376259975
4376265652
4376270840
4376276577
4376283352
4376289944
4376295803
4376301968
4376309231
4376315578
4376321621
4376327968
4376334011
4376341091
4376346950
4376357692
4376364956
4376371669
4376378750
4376385097
4376394436
4376401271
4376406704
4376412990
4376419521
4376424343
4376431179
4376436916
4376441127
4376446865
4376450649
4376457057
4376461147
4376468532
4376473964
4376477992
4376483486
4376488796
4376494777
4376500331
4376505214
4376510829
4376515651
4376520473
4376526759
4376531886
4376536403
4376542873
4376547023
4376554774
4376559718
4376564967
4376570827
4376575587
4376581264
4376586391
4376592616
4376599452
4376606837
4376612025
4376618983
4376624965
4376630092
4376635280
4376642116
4376645656
4376651820
4376656886
4376662501
4376666835
4376673304
4376678248
4376684962
4376690760
4376696193
4376703029
4376708033
4376712367
4376717982
4376722926
4376731166
4376737025
4376742213
4376745631
4376753138
4376758753
4376764125
4376768885
4376777186
4376781581
4376788416
4376791712
4376798976
4376804896
4376811793
4376813319
4376823206
4376828089
4376834803
4376839564
4376844569
4376847437
4376856104
4376858973
4376868250
4376871607
4376880640
4376886439
4376892176
4376896570
4376902552
4376908411
4376914149
4376919947
4376925928
4376933375
4376940882
4376946375
4376952234
4376956751
4376964441
4376972315
4376977503
4376983423
4376990748
4376995142
4377002039
4377004663
4377011744
4377017725
4377022364
4377027491
4377032190
4377036890
4377044092
4377046900
4377056299
4377062097
4377067713
4377070764
4377077600
4377081934
4377088465
4377092920
4377100183
4377104395
4377110376
4377116174
4377121546
4377126001
4377130762
4377137354
4377143152
4377149072
4377154993
4377160852
4377167566
4377172693
4377180749
4377184351
4377191980
4377198205
4377204004
4377208520
4377215906
4377222375
4377228723
4377234094
4377241113
4377246606
4377253381
4377257776
4377264306
4377268823
4377274621
4377280114
4377284082
4377291650
4377297204
4377302880
4377308557
4377314538
4377320214
4377325891
4377328759
4377337243
4377342187
4377347924
4377352685
4377357568
4377364038
4377368798
4377375268
4377381555
4377386621
4377392724
4377397607
4377402978
4377407922
4377412682
4377419579
4377422631
4377431359
4377436974
4377442712
4377448388
4377454125
4377459985
4377465600
4377468407
4377477929
4377482506
4377488305
4377492882
4377499840
4377503808
4377510888
4377516198
4377524438
4377530114
4377539025
4377544579
4377552270
4377559411
4377565941
4377569664
4377577355
4377582421
4377587426
4377593224
4377596764
4377600975
4377606285
4377612633
4377616295
4377622094
4377626061
4377631859
4377637169
4377641991
4377647606
4377652001
4377659142
4377664696
4377671227
4377676293
4377683434
4377689659
4377694542
4377704613
4377713890
4377719383
4377724083
4377730675
4377736534
4377741905
4377747093
4377754051
4377757469
4377764000
4377768639
4377774254
4377779625
4377785179
4377791038
4377797447
4377803245
4377807701
4377811912
4377817161
4377821678
4377828270
4377832115
4377839317
4377844383
4377849571
4377854637
4377859764
4377866356
4377871483
4377878929
4377884483
4377889366
4377895408
4377899742
4377904564
4377910423
4377915611
4377921470
4377926902
4377932701
4377938011
4377943748
4377949607
4377954551
4377959983
4377966697
4377973716
4377978599
4377984214
4377989280
4377995200
4378000633
4378003990
4378010459
4378016013
4378022544
4378028098
4378035728
4378041953
4378048911
4378056419
4378061546
4378069114
4378075034
4378083579
4378091331
4378098777
4378102500
4378113364
4378118613
4378126487
4378130881
4378137900
4378143210
4378149131
4378154868
4378159751
4378165610
4378171958
4378176291
4378182151
4378186301
4378191184
4378194053
4378202781
4378206626
4378214621
4378220725
4378225669
4378230857
4378236472
4378241416
4378247214
4378251792
4378257712
4378264426
4378267905
4378274314
4378278586
4378285300
4378291403
4378297751
4378303732
4378311484
4378317465
4378322653
4378328696
4378333884
4378337729
4378344870
4378349265
4378354758
4378359763
4378365317
4378369711
4378376181
4378380453
4378386862
4378391196
4378397848
4378404196
4378407980
4378414328
4378419028
4378425558
4378430807
4378435995
4378441183
4378448019
4378453879
4378459066
4378463156
4378468649
4378474569
4378479940
4378484335
4378490500
4378496969
4378502645
4378507956
4378514059
4378518209
4378524313
4378528646
4378536520
4378542807
4378547018
4378553549
4378559835
4378565267
4378573873
4378579244
4378585958
4378592611
4378598959
4378603842
4378611166
4378616354
4378624349
4378629415
4378635763
4378642294
4378649557
4378654562
4378658956
4378665914
4378671651
4378677206
4378682088
4378690023
4378696981
4378702474
4378708394
4378714742
4378721029
4378725789
4378732931
4378738912
4378746114
4378751180
4378756978
4378761556
4378766988
4378771566
4378776021
4378781636
4378787496
4378793111
4378799154
4378804586
4378810567
4378816060
4378818990
4378828878
4378833394
4378839009
4378845235
4378850728
4378855611
4378860982
4378865254
4378872518
4378878560
4378884175
4378888631
4378893392
4378900044
4378903768
4378910237
4378916158
4378923238
4378927510
4378933919
4378937825
4378944844
4378948445
4378955403
4378958943
4378967732
4378972615
4378978352
4378984273
4378990132
4378994343
4379000752
4379005025
4379011311
4379018147
4379024556
4379028889
4379033833
4379040181
4379044209
4379050618
4379056172
4379063984
4379070149
4379076985
4379081379
4379086567
4379091755
4379097248
4379102192
4379109333
4379114155
4379119892
4379123188
4379131001
4379133808
4379141133
4379145405
4379154133
4379158955
4379164448
4379168598
4379174641
4379180683
4379184284
4379190693
4379195881
4379202290
4379207722
4379215717
4379219257
4379225788
4379231586
4379236897
4379243855
4379249043
4379255329
4379261860
4379267353
4379275532
4379279621
4379285847
4379293110
4379299091
4379307026
4379311909
4379318012
4379323383
4379328571
4379333210
4379338581
4379344745
4379349811
4379355671
4379359882
4379364765
4379370746
4379375141
4379379963
4379387348
4379392658
4379397541
4379403095
4379408222
4379413288
4379418903
4379423236
4379430744
4379435626
4379441242
4379445697
4379451801
4379456134
4379462726
4379467243
4379474811
4379481037
4379485065
4379491718
4379497699
4379503864
4379509479
4379516315
4379521869
4379528278
4379534686
4379539447
4379546832
4379553729
4379559772
4379564960
4379571429
4379578815
4379583942
4379589313
4379596026
4379601642
4379607318
4379613421
4379616717
4379625567
4379632037
4379637713
4379641009
4379649188
4379653949
4379659198
4379665606
4379671710
4379678851
4379683490
4379690387
4379695514
4379700946
4379706988
4379711932
4379718585
4379724261
4379727801
4379735247
4379740801
4379746661
4379751483
4379758319
4379764666
4379769122
4379776080
4379782610
4379787188
4379791827
4379798296
4379802630
4379809100
4379815264
4379820574
4379827166
4379832293
4379836687
4379842730
4379848956
4379853716
4379860003
4379867022
4379874590
4379880022
4379885821
4379891985
4379895403
4379902117
4379907183
4379912981
4379917742
4379925188
4379927813
4379935503
4379940325
4379945269
4379949724
4379955278
4379961504
4379966814
4379972490
4379978228
4379981279
4379988115
4379992388
4380000811
4380005877
4380011248
4380015825
4380022417
4380026689
4380032549
4380037615
4380044634
4380050127
4380055376
4380060198
4380067217
4380071123
4380077287
4380081499
4380089006
4380093401
4380099992
4380104570
4380111101
4380115556
4380120683
4380126665
4380132890
4380138017
4380143449
4380147600
4380153154
4380159502
4380164445
4380169633
4380174699
4380181474
4380186784
4380193254
4380205034
4380209733
4380216142
4380222673
4380228898
4380233232
4380241044
4380246049
4380251359
4380256974
4380262468
4380268449
4380273576
4380278703
4380283952
4380289811
4380295182
4380298173
4380305131
4380310624
4380317155
4380323991
4380328141
4380332841
4380340043
4380344194
4380350724
4380355607
4380363481
4380368730
4380373490
4380379960
4380385209
4380390519
4380394425
4380399796
4380406266
4380412309
4380418595
4380425797
4380431962
4380437089
4380441117
4380445939
4380452775
4380457597
4380464555
4380469254
4380473771
4380478226
4380484574
4380487870
4380494218
4380498795
4380505204
4380509171
4380513993
4380518448
4380524186
4380529679
4380535416
4380540238
4380545975
4380550309
4380555008
4380560685
4380565140
4380569169
4380575638
4380580887
4380587235
4380592118
4380596512
4380601639
4380606156
4380612809
4380619950
4380625504
4380630448
4380635941
4380640763
4380645279
4380653519
4380659439
4380664627
4380670426
4380676346
4380682449
4380686722
4380692825
4380696854
4380705032
4380710587
4380715897
4380719925
4380726273
4380730911
4380737686
4380742142
4380749222
4380755569
4380760940
4380765945
4380772232
4380777969
4380783340
4380787796
4380795181
4380800430
4380805618
4380811111
4380815262
4380821609
4380827774
4380832535
4380838516
4380846084
4380851577
4380857071
4380861953
4380868057
4380874038
4380879898
4380884048
4380890762
4380896926
4380903091
4380908462
4380914199
4380919570
4380925003
4380927749
4380937637
4380944229
4380949600
4380952712
4380960891
4380964492
4380970596
4380976821
4380985427
4380991470
4380998061
4381002761
4381010696
4381015395
4381021865
4381026260
4381035171
4381042312
4381048843
4381053115
4381059341
4381064651
4381069228
4381074172
4381080154
4381085097
4381091079
4381095107
4381101333
4381105605
4381110976
4381115310
4381123671
4381129409
4381134902
4381140578
4381144790
4381149245
4381155776
4381160109
4381167128
4381173659
4381177138
4381183547
4381189528
4381193801
4381198745
4381205153
4381211379
4381216933
4381223159
4381228041
4381232985
4381238417
4381243300
4381248854
4381253066
4381261489
4381267104
4381272231
4381277846
4381283156
4381288100
4381293532
4381297987
4381305068
4381309828
4381315260
4381321730
4381326735
4381334547
4381340834
4381347487
4381354079
4381358900
4381365492
4381372938
4381377394
4381382033
4381389662
4381394362
4381399916
4381407057
4381414015
4381418715
4381426771
4381432203
4381437697
4381445082
4381452223
4381459303
4381465467
4381471876
4381476332
4381483778
4381488050
4381495680
4381497389
4381508558
4381512892
4381519117
4381525343
4381531263
4381536329
4381542982
4381547743
4381555860
4381560682
4381571913
4381577894
4381583509
4381588758
4381594801
4381600416
4381610426
4381615064
4381621717
4381627454
4381633741
4381638502
4381643995
4381648756
4381655530
4381660596
4381665052
4381669630
4381676038
4381681104
4381685499
4381688306
4381697095
4381702772
4381707532
4381713270
4381718458
4381721265
4381729444
4381734327
4381740186
4381743177
4381751294
4381754407
4381761243
4381767041
4381772413
4381776929
4381784803
4381790906
4381795179
4381800977
4381806043
4381811841
4381816053
4381822583
4381827466
4381834363
4381839307
4381846204
4381850049
4381856824
4381860425
4381867322
4381872388
4381878369
4381883435
4381889050
4381895337
4381901196
4381905591
4381910901
4381916638
4381922742
4381927197
4381933179
4381939404
4381945691
4381950879
4381958630
4381963696
4381971204
4381975293
4381981579
4381988537
4381995495
4382001538
4382008435
4382013379
4382019665
4382026989
4382032422
4382039135
4382043896
4382049572
4382056042
4382061657
4382066845
4382072766
4382077954
4382085034
4382089672
4382094921
4382099987
4382105358
4382109692
4382118115
4382123242
4382129284
4382134045
4382141369
4382145642
4382150402
4382159252
4382166027
4382174877
4382180798
4382186230
4382194836
4382198742
4382206371
4382211132
4382218273
4382223583
4382230541
4382236645
4382241772
4382245983
4382252148
4382258129
4382263378
4382267834
4382273815
4382277721
4382283947
4382289013
4382295177
4382300915
4382307506
4382312511
4382317638
4382321605
4382328502
4382333629
4382338573
4382343578
4382349926
4382355236
4382360729
4382365062
4382372326
4382376476
4382383739
4382387889
4382394725
4382399303
4382405590
4382411327
4382417003
4382422801
4382426158
4382432506
4382439342
4382444530
4382450389
4382455882
4382462779
4382467662
4382472789
4382479137
4382482921
4382490367
4382496410
4382502086
4382507884
4382513255
4382518565
4382524730
4382527843
4382537669
4382542613
4382548473
4382553844
4382559947
4382564281
4382570567
4382575389
4382580394
4382586925
4382593699
4382598216
4382603038
4382609691
4382613353
4382620067
4382623912
4382632396
4382637095
4382642650
4382648143
4382653636
4382659495
4382665049
4382670726
4382677012
4382680186
4382687388
4382692759
4382699473
4382703624
4382709788
4382715464
4382719859
4382727488
4382733287
4382741160
4382746592
4382752329
4382758860
4382764353
4382771983
4382779551
4382785044
4382790171
4382796092
4382802256
4382808970
4382814219
4382819895
4382826060
4382830210
4382836741
4382843211
4382849558
4382853953
4382858347
4382866404
4382872141
4382878672
4382884165
4382890330
4382895151
4382901011
4382904551
4382913279
4382921457
4382926706
4382932810
4382938120
4382943552
4382948557
4382953623
4382960032
4382965036
4382971140
4382976084
4382982553
4382986826
4382996958
4383001718
4383006784
4383013254
4383019785
4383025034
4383029856
4383034799
4383039438
4383047373
4383052194
4383058847
4383063730
4383069834
4383075021
4383081125
4383090158
4383093332
4383100168
4383104807
4383111459
4383116525
4383122629
4383126901
4383136850
4383141367
4383146738
4383152170
4383158334
4383164560
4383169992
4383175485
4383182870
4383186654
4383193979
4383199655
4383204782
4383209421
4383215036
4383221139
4383227060
4383232675
4383238534
4383244699
4383249887
4383254464
4383259896
4383264230
4383271798
4383276193
4383282846
4383288705
4383293832
4383298288
4383304147
4383309640
4383317575
4383326303
4383331674
4383340524
4383346505
4383354257
4383360238
4383365243
4383371285
4383376901
4383383737
4383389596
4383393136
4383398507
4383404122
4383409493
4383415414
4383420419
4383424325
4383430245
4383434151
4383440438
4383444466
4383450326
4383456002
4383462105
4383466439
4383471932
4383477669
4383482003
4383488228
4383492501
4383498604
4383503182
4383509591
4383514473
4383520821
4383526436
4383531258
4383535836
4383544259
4383550057
4383555062
4383559945
4383566170
4383571480
4383577034
4383582283
4383589974
4383595894
4383601326
4383605782
4383611702
4383615914
4383622017
4383627877
4383631478
4383640450
4383645577
4383650398
4383656380
4383675301
4383682076
4383688057
4383694466
4383702889
4383708687
4383715523
4383719185
4383725777
4383731636
4383738167
4383742805
4383749031
4383753853
4383758919
4383763435
4383770149
4383773750
4383781990
4383786201
4383793159
4383798103
4383803718
4383808540
4383813850
4383818306
4383825081
4383831550
4383837349
4383844917
4383851082
4383854133
4383862861
4383868415
4383874824
4383879524
4383886848
4383891731
4383897590
4383901313
4383910774
4383913825
4383924873
4383931037
4383936469
4383941596
4383947883
4383951423
4383958625
4383964118
4383970161
4383975349
4383980293
4383986518
4383991218
4383996345
4384000983
4384006660
4384012641
4384017829
4384022346
4384027534
4384032294
4384036567
4384043159
4384047309
4384054877
4384059211
4384064582
4384070380
4384076789
4384080756
4384087165
4384091376
4384100043
4384103156
4384110114
4384116095
4384120307
4384126044
4384131720
4384137519
4384143134
4384147712
4384153327
4384159858
4384164985
4384171515
4384176215
4384182624
4384187812
4384195014
4384200141
4384205023
4384209601
4384216498
4384219977
4384226874
4384232245
4384238288
4384241706
4384248847
4384253729
4384259894
4384266303
4384269843
4384276312
4384283270
4384288031
4384294745
4384299262
4384305548
4384309821
4384315558
4384320441
4384325140
4384332281
4384338812
4384344061
4384348273
4384355109
4384360235
4384365301
4384368353
4384377447
4384383185
4384387518
4384392279
4384399603
4384405523
4384409735
4384415472
4384420721
4384427130
4384433477
4384437689
4384442938
4384449530
4384454596
4384459539
4384469183
4384476080
4384480291
4384487493
4384494512
4384499212
4384504766
4384512274
4384520208
4384525457
4384531927
4384536749
4384543035
4384547186
4384553106
4384557379
4384563909
4384568304
4384574041
4384579595
4384584844
4384589422
4384595220
4384601141
4384605047
4384611639
4384616888
4384623235
4384628789
4384634527
4384640386
4384645269
4384651189
4384656316
4384661382
4384666936
4384672674
4384678289
4384683721
4384689275
4384694219
4384701909
4384707280
4384712713
4384717107
4384723333
4384727849
4384734014
4384739812
4384744451
4384751653
4384757634
4384764104
4384768743
4384773626
4384779607
4384784673
4384789922
4384795781
4384801274
4384806706
4384813359
4384818975
4384825261
4384830693
4384836064
4384843511
4384848393
4384853948
4384858342
4384864629
4384870366
4384874455
4384880864
4384886113
4384892644
4384898442
4384902898
4384907841
4384914372
4384917851
4384924992
4384928899
4384936833
4384942204
4384947270
4384950383
4384957463
4384963566
4384967595
4384973637
4384979924
4384984501
4384990544
4384995366
4385002324
4385008183
4385011601
4385018132
4385025151
4385030888
4385036320
4385041813
4385047856
4385054387
4385059208
4385066716
4385072697
4385080326
4385087406
4385093449
4385098759
4385106266
4385110844
4385117008
4385123722
4385128849
4385132878
4385138981
4385144779
4385149967
4385155155
4385160771
4385165836
4385174015
4385179020
4385184574
4385189640
4385195194
4385199894
4385205265
4385211124
4385217289
4385221867
4385227421
4385233585
4385239750
4385244694
4385251774
4385258793
4385265323
4385269779
4385275089
4385280826
4385287052
4385292423
4385297733
4385302189
4385309269
4385315922
4385322513
4385327213
4385332035
4385339237
4385343143
4385349002
4385354374
4385363651
4385368656
4385374637
4385380497
4385385074
4385389774
4385397403
4385402286
4385407779
4385415409
4385420597
4385427432
4385433048
4385438602
4385443790
4385449771
4385453128
4385461185
4385466556
4385473453
4385478214
4385485599
4385490237
4385496219
4385501712
4385505984
4385514041
4385519168
4385524478
4385530582
4385536319
4385541812
4385546512
4385552737
4385558902
4385564700
4385570804
4385575809
4385582339
4385586917
4385591922
4385597354
4385604739
4385609744
4385615359
4385620547
4385626773
4385632327
4385637149
4385643252
4385648745
4385659182
4385665469
4385670108
4385676760
4385682986
4385688052
4385694277
4385699526
4385706179
4385713198
4385718814
4385725405
4385730410
4385736636
4385742434
4385747378
4385753176
4385758852
4385764102
4385770754
4385776247
4385781313
4385786684
4385792239
4385798708
4385802004
4385808962
4385815249
4385819277
4385825503
4385830996
4385835390
4385841128
4385847231
4385853884
4385858279
4385863100
4385869570
4385874148
4385880556
4385885012
4385891787
4385896486
4385903139
4385908632
4385914065
4385918764
4385926027
4385929873
4385938051
4385942995
4385948610
4385954775
4385960939
4385965700
4385972658
4385976931
4385981996
4385989015
4385995912
4386000795
4386005983
4386012514
4386017763
4386022890
4386026735
4386035524
4386041017
4386046205
4386052065
4386057924
4386062502
4386068117
4386072450
4386079836
4386085573
4386091249
4386098573
4386104311
4386108583
4386114442
4386118654
4386123354
4386130128
4386135683
4386142457
4386147401
4386152040
4386156862
4386162355
4386167909
4386173890
4386179689
4386185487
4386191530
4386198121
4386203004
4386208803
4386213624
4386222841
4386227601
4386234498
4386239320
4386247987
4386254029
4386264161
4386268983
4386278260
4386282899
4386291505
4386299134
4386306214
4386312440
4386319520
4386324403
4386331239
4386336183
4386341310
4386346803
4386353394
4386357362
4386361817
4386369874
4386374635
4386382264
4386388367
4386392762
4386399110
4386403199
4386409852
4386416749
4386421509
4386427918
4386432435
4386439027
4386443360
4386449769
4386454041
4386459595
4386466370
4386471436
4386477479
4386481751
4386486451
4386491395
4386498353
4386504334
4386510010
4386515748
4386520997
4386526673
4386531800
4386534729
4386541199
4386545472
4386554322
4386560730
4386566529
4386569825
4386577149
4386581543
4386588318
4386592774
4386599915
4386605957
4386609864
4386616211
4386620484
4386626892
4386632019
4386637024
4386641785
4386649780
4386655090
4386660462
4386665527
4386672974
4386677551
4386683106
4386688904
4386694702
4386701172
4386706360
4386711731
4386715698
4386721497
4386727173
4386731567
4386736755
4386743347
4386749878
4386756164
4386761902
4386766174
4386771911
4386776977
4386783630
4386788757
4386794250
4386800903
4386806396
4386811584
4386817260
4386822143
4386827087
4386834900
4386841003
4386849304
4386854370
4386860534
4386866394
4386871276
4386877807
4386887084
4386891479
4386900268
4386905944
4386911132
4386917602
4386924011
4386929565
4386934997
4386940856
4386945495
4386951293
4386956298
4386962158
4386967162
4386971435
4386979308
4386984802
4386989806
4386995910
4387000915
4387003905
4387011230
4387015441
4387023254
4387026366
4387033019
4387037353
4387043700
4387047973
4387053161
4387060119
4387065246
4387072570
4387077025
4387084166
4387089477
4387095092
4387100707
4387106810
4387109923
4387118529
4387125548
4387130248
4387136473
4387140685
4387147948
4387152892
4387159423
4387163878
4387171386
4387177245
4387182433
4387188719
4387194335
4387200377
4387206236
4387211302
4387218688
4387225218
4387229369
4387234374
4387241820
4387246581
4387251891
4387258605
4387264342
4387270384
4387275755
4387280028
4387285033
4387291685
4387295287
4387302367
4387305846
4387314268
4387318358
4387325377
4387330015
4387335631
4387340391
4387346129
4387350401
4387357969
4387364256
4387369993
4387373106
4387382689
4387389097
4387393614
4387398619
4387408079
4387412413
4387418699
4387423704
4387432066
4387437376
4387446226
4387452085
4387458189
4387465940
4387473082
4387479429
4387484495
4387489622
4387495725
4387501402
4387508482
4387515318
4387520933
4387525938
4387532102
4387536985
4387539854
4387546934
4387553220
4387560423
4387565550
4387570921
4387576292
4387581785
