4427540728
4427547381
4427553240
4427560259
4427564959
4427570879
4427576006
4427582171
4427589922
4427595720
4427600786
4427606707
4427612078
4427617937
4427625261
4427630816
4427638994
4427644671
4427652483
4427660173
4427666277
4427672197
4427679583
4427686907
4427695208
4427702410
4427708635
4427716997
4427724443
4427731340
4427739763
4427746904
4427754717
4427762956
4427770708
4427777239
4427786516
4427794573
4427802019
4427808489
4427815630
4427822588
4427832353
4427840776
4427847185
4427853166
4427861406
4427867692
4427876176
4427882158
4427891130
4427897539
4427904069
4427911149
4427917741
4427925493
4427932023
4427940019
4427945939
4427952409
4427961930
4427968766
4427975541
4427986406
4427993058
4427999894
4428008073
4428014665
4428023637
4428033830
4428044511
4428051713
4428058976
4428066117
4428073258
4428079972
4428087479
4428096513
4428103959
4428110795
4428119340
4428126420
4428133195
4428141129
4428149308
4428160050
4428166520
4428177140
4428185135
4428193802
4428202714
4428208817
4428217911
4428225235
4428234208
4428241288
4428249100
4428254349
4428264054
4428273758
4428279984
4428287674
4428296707
4428303482
4428311112
4428320267
4428327530
4428336075
4428341568
4428350418
4428359329
4428365860
4428375443
4428383377
4428389969
4428399063
4428406570
4428414566
4428422317
4428428726
4428438980
4428446609
4428453689
4428464249
4428475906
4428482254
4428490677
4428499832
4428509292
4428515396
4428523941
4428532242
4428539627
4428545974
4428555130
4428562942
4428572891
4428580703
4428589126
4428596450
4428602981
4428610183
4428618484
4428628555
4428639114
4428650955
4428659133
4428675430
4428686477
4428698013
4428708877
4428718276
4428725539
4428734756
4428742690
4428750381
4428759597
4428766799
4428774734
4428783217
4428791579
4428799270
4428807265
4428816604
4428827102
4428838576
4428849318
4428859755
4428870253
4428881606
4428892287
4428904677
4428915175
4428926100
4428937087
4428946913
4428958388
4428976943
4428989638
4429003004
4429013808
4429024367
4429034987
4429046339
4429057387
4429067030
4429077589
4429088270
4429098097
4429107680
4429118055
4429128065
4429138441
4429148207
4429159315
4429169874
4429183851
4429197767
4429209913
4429222242
4429234205
4429245436
4429255445
4429266432
4429278150
4429288282
4429301710
4429315687
4429330152
4429343153
4429357313
4429372205
4429388196
4429402540
4429419080
4429433790
4429448072
4429461072
4429481641
4429502576
4429523267
4429541028
4429555127
4429571179
4429587598
4429601270
4429615979
4429631909
4429647351
4429660046
4429674451
4429686658
4429703137
4429713513
4429724133
4429734997
4429744458
4429756115
4429766735
4429778332
4429788464
4429798596
4429808728
4429818981
4429833508
4429846874
4429860302
4429873547
4429887096
4429901257
4429914013
4429931530
4429942272
4429953136
4429964123
4429973827
4429985424
4429993480
4430001842
4430010265
4430018688
4430026073
4430034862
4430043346
4430052074
4430060497
4430068798
4430077220
4430083934
4430088756
4430092723
4430098033
4430103038
4430107799
4430113536
4430118053
4430122569
4430127574
4430132335
4430137523
4430143993
4430148570
4430152965
4430157176
4430161693
4430166820
4430172374
4430177135
4430182506
4430186595
4430191234
4430196300
4430201427
4430206737
4430212535
4430217479
4430221751
4430227245
4430231334
4430235973
4430240855
4430245921
4430251475
4430255870
4430260692
4430264842
4430270396
4430274791
4430280284
4430283702
4430290172
4430295421
4430299205
4430303966
4430310130
4430314464
4430319896
4430324901
4430329661
4430334361
4430338328
4430342967
4430347239
4430354747
4430360606
4430366038
4430369822
4430377208
4430380931
4430387889
4430392955
4430398814
4430402049
4430408396
4430414317
4430419688
4430424571
4430428721
4430434886
4430439646
4430443797
4430447581
4430452891
4430458384
4430463389
4430469126
4430474741
4430479502
4430484812
4430489451
4430493845
4430499094
4430505808
4430511607
4430517954
4430523692
4430528330
4430531504
4430536936
4430542612
4430549387
4430554148
4430558481
4430563181
4430567515
4430573801
4430578379
4430583262
4430587717
4430593271
4430598704
4430604136
4430607737
4430614084
4430619455
4430626352
4430632334
4430636911
4430641916
4430647287
4430652475
4430657602
4430661264
4430668283
4430674021
4430679819
4430683664
4430689279
4430693613
4430697946
4430701425
4430706430
4430712351
4430717783
4430722971
4430726633
4430731577
4430737070
4430742746
4430749338
4430754648
4430758432
4430764841
4430768869
4430773813
4430779977
4430784372
4430790109
4430795663
4430801645
4430806833
4430811533
4430816537
4430822397
4430828073
4430833444
4430838937
4430844553
4430849496
4430853891
4430858285
4430864633
4430869333
4430875741
4430881174
4430888559
4430893808
4430900461
4430906137
4430911325
4430916024
4430924325
4430931710
4430937082
4430942575
4430948190
4430954599
4430960336
4430966134
4430971872
4430977914
4430983468
4430988656
4430994088
4430999765
4431005563
4431011117
4431017953
4431025399
4431031747
4431037972
4431045968
4431051339
4431058419
4431064095
4431070199
4431076302
4431079903
4431086129
4431089547
4431096444
4431100777
4431106942
4431112923
4431117867
4431123421
4431129342
4431134042
4431138802
4431145516
4431151681
4431157113
4431162362
4431167000
4431171700
4431177987
4431182870
4431188057
4431195504
4431200692
4431205575
4431210091
4431216378
4431221993
4431228035
4431234993
4431241158
4431246834
4431252938
4431258736
4431264412
4431269478
4431274605
4431280526
4431286019
4431292488
4431296822
4431303475
4431307625
4431314644
4431319100
4431324715
4431330879
4431337532
4431343086
4431349007
4431353523
4431359139
4431364388
4431370674
4431377266
4431383736
4431387642
4431393318
4431399117
4431405464
4431409615
4431418709
4431425423
4431429939
4431436104
4431441658
4431449653
4431455269
4431460396
4431468269
4431473274
4431478828
4431484993
4431491340
4431496956
4431503059
4431509102
4431515571
4431521919
4431527412
4431533027
4431539131
4431544685
4431550239
4431556465
4431563240
4431570869
4431575447
4431581672
4431587654
4431592720
4431600837
4431609199
4431621040
4431629829
4431638679
4431649726
4431658393
4431666206
4431674445
4431682624
4431690925
4431699714
4431708381
4431717658
4431725715
4431733283
4431741584
4431750800
4431758979
4431768256
4431773566
4431785285
4431793220
4431801032
4431808600
4431818427
4431827277
4431833625
4431844123
4431850898
4431858832
4431865302
4431874152
4431882086
4431894477
4431905524
4431918036
4431930487
4431943183
4431955084
4431966132
4431974493
4431983466
4431993170
4432009283
4432018866
4432023321
4432031195
4432035651
4432040655
4432046149
4432050482
4432057745
4432062506
4432071295
4432079718
4432084540
4432089300
4432096563
4432101874
4432111761
4432117682
4432124029
4432131292
4432135260
4432140814
4432145208
4432150396
4432157476
4432161688
4432165838
4432170660
4432173468
4432179388
4432184820
4432194097
4432199346
4432204595
4432210516
4432215521
4432220709
4432224127
4432229376
4432235052
4432240301
4432244085
4432248846
4432253240
4432256963
4432262212
4432266546
4432272527
4432278143
4432283758
4432288213
4432293340
4432297552
4432301946
4432309148
4432314397
4432320257
4432324102
4432329961
4432333440
4432338445
4432344243
4432349187
4432352971
4432358953
4432363286
4432367193
4432371465
4432376165
4432382512
4432387151
4432391363
4432395818
4432399968
4432404241
4432408330
4432413457
4432419744
4432424382
4432432012
4432436101
4432440374
4432445378
4432449956
4432457402
4432461797
4432466436
4432471685
4432476323
4432480596
4432485295
4432490544
4432495854
4432502568
4432507634
4432512578
4432517705
4432523198
4432528874
4432534062
4432539800
4432546513
4432551701
4432555791
4432560918
4432566106
4432571538
4432577153
4432582585
4432589299
4432594975
4432599309
4432603703
4432609807
4432614323
4432620549
4432629338
4432634709
4432639775
4432646245
4432649968
4432657536
4432662785
4432667424
4432673405
4432679448
4432687626
4432692631
4432698063
4432707219
4432713078
4432718022
4432723759
4432729008
4432734196
4432739018
4432747868
4432753361
4432758854
4432766301
4432772038
4432777653
4432783390
4432792485
4432802128
4432809574
4432820255
4432833073
4432843510
4432856754
4432870670
4432882328
4432892948
4432903995
4432911381
4432920048
4432927799
4432935856
4432944767
4432950626
4432960209
4432967594
4432976749
4432985782
4432994999
4433005558
4433018802
4433030887
4433040653
4433048282
4433059879
4433070316
4433082401
4433091251
4433104007
4433115177
4433126102
4433137027
4433145084
4433157474
4433169925
4433180972
4433192691
4433203494
4433214969
4433227054
4433235843
4433243167
4433252383
4433259830
4433265872
4433275516
4433284305
4433290713
4433298892
4433308169
4433315493
4433325015
4433333072
4433341922
4433350100
4433357119
4433366091
4433375491
4433383670
4433390261
4433393923
4433400454
4433408816
4433417361
4433425173
4433435488
4433445193
4433454897
4433463870
4433470156
4433480410
4433489138
4433495547
4433505190
4433512759
4433518374
4433525271
4433534670
4433539675
4433548098
4433555361
4433561464
4433568422
4433572512
4433578127
4433582644
4433588137
4433597048
4433602175
4433608461
4433613894
4433619265
4433624697
4433629519
4433634829
4433640017
4433644777
4433649111
4433654787
4433660524
4433665102
4433670717
4433675600
4433681337
4433686403
4433692385
4433698732
4433704042
4433708010
4433712648
4433718263
4433723818
4433729738
4433733644
4433740480
4433746095
4433751344
4433755129
4433762514
4433766298
4433773805
4433778993
4433784242
4433789430
4433796205
4433801149
4433805971
4433814943
4433820924
4433829042
4433838930
4433847108
4433856203
4433860902
4433864564
4433870485
4433875306
4433880128
4433885072
4433891115
4433895265
4433900514
4433906373
4433911073
4433916505
4433920472
4433924684
4433929811
4433934266
4433939820
4433944276
4433950990
4433955506
4433961122
4433966554
4433972230
4433976319
4433981813
4433986939
4433992188
4433997315
4434003602
4434009095
4434015016
4434020081
4434025025
4434029481
4434036195
4434040345
4434045350
4434050782
4434056702
4434061219
4434066590
4434073121
4434078797
4434083436
4434088441
4434095399
4434100648
4434105347
4434111939
4434115967
4434121400
4434125733
4434132325
4434138428
4434145203
4434151002
4434156006
4434160950
4434166016
4434173096
4434179444
4434185425
4434190308
4434195496
4434200196
4434204346
4434208619
4434212952
4434217469
4434222535
4434227173
4434230957
4434236267
4434240113
4434246399
4434250916
4434256836
4434264466
4434269593
4434274658
4434280274
4434284302
4434290833
4434295471
4434300537
4434306153
4434311585
4434317688
4434321655
4434327698
4434333252
4434339172
4434345337
4434352173
4434356567
4434362976
4434368042
4434373291
4434378296
4434382690
4434387512
4434393188
4434400146
4434405701
4434411316
4434417053
4434421142
4434427368
4434432312
4434437927
4434445129
4434449951
4434454468
4434461487
4434468933
4434473022
4434480041
4434484924
4434495422
4434501892
4434506530
4434512146
4434517639
4434523803
4434529235
4434534912
4434541870
4434546814
4434553894
4434560241
4434564880
4434569885
4434576660
4434580749
4434589050
4434598205
4434603210
4434608764
4434614745
4434620422
4434624877
4434630126
4434635864
4434641723
4434649108
4434653503
4434660278
4434665710
4434670470
4434675658
4434680480
4434686340
4434692565
4434698424
4434704589
4434711608
4434716613
4434722472
4434729003
4434734374
4434742858
4434747802
4434753478
4434757689
4434761535
4434765868
4434772765
4434777526
4434781920
4434788146
4434792785
4434799926
4434804870
4434809020
4434816405
4434821532
4434827269
4434832091
4434836180
4434842345
4434848815
4434853270
4434860533
4434865782
4434870177
4434876097
4434880248
4434886046
4434891966
4434897582
4434902892
4434909728
4434915648
4434922850
4434927855
4434934569
4434938963
4434944579
4434950621
4434955931
4434961974
4434967223
4434971251
4434976683
4434980894
4434988646
4434995604
4435000853
4435004942
4435010435
4435015868
4435019652
4435026427
4435033140
4435038267
4435044371
4435050535
4435054747
4435060667
4435066893
4435072386
4435078062
4435082335
4435091673
4435096495
4435101988
4435109861
4435113524
4435120604
4435125792
4435132261
4435138487
4435145140
4435150999
4435157835
4435163755
4435170225
4435176634
4435185057
4435196104
4435201170
4435208860
4435215940
4435222654
4435227049
4435232420
4435238035
4435243467
4435249265
4435254331
4435260374
4435264524
4435271116
4435278013
4435282896
4435290342
4435296567
4435304685
4435314085
4435321714
4435330869
4435336912
4435343076
4435347165
4435353452
4435356870
4435361997
4435367185
4435372251
4435376951
4435382139
4435386594
4435392881
4435397886
4435404294
4435408262
4435415525
4435420713
4435427488
4435432309
4435437864
4435442929
4435449521
4435455136
4435460385
4435465879
4435472104
4435478269
4435482480
4435488889
4435494138
4435498837
4435504758
4435510373
4435516843
4435521848
4435527280
4435532529
4435538388
4435543942
4435547604
4435554379
4435560422
4435564938
4435570187
4435576352
4435581845
4435588437
4435594418
4435601193
4435606259
4435610837
4435617612
4435622128
4435629697
4435634640
4435641781
4435646725
4435652402
4435659176
4435664303
4435669552
4435675778
4435681454
4435687191
4435691891
4435698910
4435703976
4435711178
4435717465
4435725338
4435730709
4435736386
4435741635
4435746273
4435755978
4435763363
4435768917
4435775631
4435779171
4435785275
4435792416
4435797360
4435804379
4435811215
4435817318
4435821652
4435829098
4435833187
4435840023
4435845028
4435852108
4435857296
4435863033
4435869564
4435875301
4435881832
4435888912
4435894039
4435900204
4435905514
4435910824
4435917354
4435926815
4435932491
4435937984
4435942928
4435946834
4435954464
4435958370
4435964229
4435968319
4435974483
4435980526
4435987362
4435991512
4435997371
4436002926
4436008480
4436014400
4436019771
4436025875
4436030513
4436035945
4436041805
4436047969
4436052669
4436058528
4436062862
4436067501
4436073360
4436080623
4436088558
4436094600
4436100276
4436105708
4436110957
4436114864
4436121394
4436125362
4436133418
4436137508
4436143550
4436148738
4436154903
4436162227
4436167354
4436171992
4436178279
4436184871
4436191402
4436197078
4436202571
4436207576
4436214351
4436219661
4436225337
4436230159
4436236140
4436242732
4436248713
4436255305
4436259395
4436265986
4436272273
4436277888
4436285151
4436291621
4436298274
4436303157
4436310359
4436317805
4436324580
4436330012
4436336482
4436343196
4436349421
4436354487
4436361384
4436368220
4436374751
4436381465
4436387507
4436392451
4436398554
4436405818
4436410700
4436416743
4436422968
4436429377
4436436884
4436443354
4436447443
4436454646
4436461176
4436467158
4436474360
4436481867
4436488337
4436493769
4436500605
4436507014
4436511530
4436519526
4436526118
4436534052
4436539362
4436544733
4436551386
4436556696
4436563166
4436568537
4436574701
4436579828
4436586420
4436591364
4436597529
4436602900
4436606684
4436614313
4436618525
4436626520
4436630793
4436637201
4436641718
4436648981
4436654596
4436659845
4436665583
4436672724
4436678461
4436683466
4436689081
4436695368
4436699396
4436707269
4436713129
4436718134
4436723688
4436729120
4436734247
4436741144
4436746698
4436753839
4436758905
4436765131
4436770197
4436777704
4436782709
4436788629
4436793024
4436799676
4436804193
4436810480
4436816217
4436822687
4436829095
4436837030
4436843927
4436848382
4436854181
4436861017
4436868707
4436873712
4436881952
4436886834
4436893304
4436899469
4436905938
4436912713
4436918756
4436924798
4436931085
4436936395
4436943170
4436948175
4436954278
4436958978
4436965936
4436971429
4436978814
4436985406
4436989617
4436996453
4437000909
4437008660
4437014214
4437019524
4437025384
4437031670
4437035821
4437041497
4437047173
4437053460
4437060357
4437066094
4437072442
4437077752
4437083184
4437090325
4437098138
4437103997
4437109063
4437115410
4437121941
4437126458
4437134087
4437138909
4437146844
4437151055
4437157647
4437163445
4437168999
4437174859
4437180291
4437186699
4437193230
4437197869
4437204644
4437208916
4437215508
4437219841
4437226067
4437232537
4437238579
4437246392
4437253166
4437260124
4437265312
4437271904
4437276848
4437282524
4437287224
4437291802
4437298577
4437304436
4437310173
4437317803
4437323479
4437329155
4437334648
4437339531
4437344414
4437349236
4437356255
4437361992
4437367668
4437373527
4437379570
4437384087
4437389885
4437394035
4437400627
4437407280
4437413566
4437419121
4437425224
4437429985
4437434257
4437442436
4437447868
4437454338
4437460258
4437464897
4437471367
4437477165
4437483513
4437488456
4437493889
4437499199
4437506279
4437513420
4437519218
4437525688
4437531120
4437538688
4437546379
4437551567
4437557182
4437565544
4437571037
4437577690
4437582694
4437587699
4437597099
4437602104
4437608024
4437614066
4437620170
4437625602
4437631034
4437636771
4437641776
4437647636
4437654288
4437660392
4437665885
4437671745
4437677543
4437681815
4437688773
4437693046
4437701102
4437710746
4437714774
4437720939
4437725638
4437731559
4437737845
4437744864
4437751334
4437756705
4437761527
4437766959
4437771354
4437777030
4437782767
4437788871
4437794059
4437800040
4437804496
4437809256
4437815543
4437821402
4437826895
4437832144
4437837943
4437843680
4437849600
4437854361
4437857779
4437863944
4437870841
4437874869
4437881522
4437886893
4437892996
4437897940
4437902213
4437910269
4437914237
4437920157
4437926810
4437932242
4437938895
4437945059
4437949759
4437956229
4437962759
4437967825
4437973196
4437979239
4437985220
4437992056
4437997793
4438003409
4438008291
4438014944
4438020132
4438025015
4438033072
4438037649
4438042959
4438049307
4438054861
4438061148
4438067190
4438070974
4438077139
4438085135
4438089956
4438095572
4438102224
4438107412
4438111197
4438119558
4438124380
4438129629
4438136953
4438142446
4438147390
4438156484
4438161062
4438167715
4438172781
4438178701
4438186697
4438192190
4438199453
4438204580
4438210378
4438215749
4438222280
4438227529
4438233816
4438241018
4438247610
4438253774
4438257742
4438264089
4438269765
4438273977
4438283681
4438292043
4438297109
4438305227
4438310781
4438317983
4438323537
4438330007
4438335988
4438342031
4438346547
4438351735
4438359365
4438363698
4438369924
4438374013
4438379995
4438386403
4438392019
4438398000
4438403432
4438409230
4438414663
4438418142
4438424794
4438430715
4438435536
4438440847
4438447927
4438451528
4438458486
4438463185
4438468678
4438475331
4438481252
4438486196
4438492848
4438497975
4438504323
4438510426
4438515431
4438523610
4438528920
4438535329
4438541005
4438546010
4438552052
4438558766
4438564381
4438570119
4438576283
4438581532
4438586659
4438593190
4438599721
4438603932
4438610097
4438614979
4438623768
4438628834
4438635609
4438641713
4438648915
4438653554
4438660512
4438667164
4438671986
4438677601
4438685231
4438689686
4438697133
4438703236
4438710072
4438715870
4438719838
4438729542
4438733692
4438740711
4438747914
4438752918
4438759449
4438766041
4438772572
4438778980
4438785206
4438791737
4438795887
4438803150
4438808704
4438815296
4438821583
4438828297
4438834522
4438842213
4438847218
4438851795
4438860035
4438866199
4438872120
4438878162
4438884693
4438889271
4438896717
4438902210
4438909534
4438914966
4438921497
4438927418
4438934131
4438941150
4438945667
4438954822
4438961414
4438965992
4438973621
4438978199
4438984851
4438992176
4438996387
4439002796
4439008350
4439013843
4439019702
4439025928
4439031971
4439037708
4439041248
4439047779
4439052661
4439059680
4439063648
4439071643
4439076526
4439082507
4439088306
4439093921
4439098865
4439106006
4439110950
4439116626
4439123523
4439129443
4439135303
4439142078
4439147083
4439152759
4439160327
4439166858
4439171558
4439176135
4439184375
4439189685
4439198047
4439202563
4439209094
4439215137
4439220935
4439228198
4439233996
4439240954
4439246875
4439252307
4439259692
4439265612
4439272021
4439276904
4439282031
4439290149
4439295214
4439302356
4439308520
4439315234
4439320300
4439326770
4439332873
4439339099
4439343371
4439351245
4439356677
4439362597
4439367602
4439372241
4439380786
4439385668
4439393054
4439397753
4439406054
4439412402
4439418444
4439424670
4439431078
4439437182
4439443713
4439449633
4439456225
4439464403
4439470812
4439476244
4439480395
4439486254
4439491930
4439499132
4439504381
4439510973
4439517138
4439523607
4439530321
4439536913
4439543078
4439548388
4439555040
4439561876
4439568834
4439574755
4439580980
4439587450
4439593737
4439601915
4439607347
4439613451
4439618212
4439622972
4439632860
4439637010
4439647264
4439654039
4439658922
4439665758
4439669969
4439676195
4439680589
4439687364
4439694322
4439698168
4439704515
4439711168
4439715685
4439721239
4439727281
4439733812
4439738451
4439743883
4439749742
4439755846
4439761583
4439767076
4439772630
4439778306
4439784410
4439790697
4439797105
4439801195
4439807542
4439812608
4439818773
4439825303
4439830980
4439836961
4439840867
4439850938
4439857469
4439862840
4439866746
4439874437
4439880662
4439885789
4439892442
4439899949
4439905015
4439911424
4439917955
4439923753
4439929795
4439935227
4439940660
4439947862
4439953965
4439961167
4439966416
4439972825
4439979844
4439985032
4439989854
4439997910
4440003526
4440008653
4440017442
4440021897
4440028489
4440034531
4440041123
4440047776
4440054612
4440061204
4440065964
4440071763
4440079453
4440084946
4440090501
4440097703
4440105149
4440111924
4440115769
4440122849
4440128953
4440136765
4440141282
4440149277
4440154343
4440162095
4440166855
4440172898
4440179184
4440185654
4440191086
4440198288
4440202256
4440210862
4440217820
4440223557
4440228867
4440236985
4440241684
4440249619
4440254196
4440260544
4440266464
4440272995
4440279953
4440287277
4440292343
4440298264
4440303757
4440309433
4440315842
4440320175
4440327011
4440331467
4440338242
4440344467
4440350327
4440355820
4440362595
4440368149
4440374252
4440379074
4440384811
4440390304
4440396103
4440401718
4440407821
4440413315
4440418136
4440423569
4440430404
4440435348
4440442856
4440448532
4440453781
4440462204
4440468124
4440472885
4440479355
4440484542
4440490463
4440496505
4440503280
4440509262
4440516220
4440521957
4440528183
4440533981
4440539840
4440545883
4440551437
4440557968
4440564437
4440572311
4440577560
4440584213
4440589706
4440595992
4440601547
4440606002
4440615463
4440619491
4440627425
4440632552
4440640182
4440644759
4440651839
4440658797
4440665206
4440672286
4440678817
4440685409
4440690475
4440696151
4440704085
4440710677
4440716659
4440722030
4440730025
4440736251
4440743514
4440748092
4440754866
4440759383
4440764815
4440770552
4440776107
4440781966
4440788253
4440795150
4440799849
4440806319
4440812422
4440818587
4440826338
4440831649
4440837203
4440844344
4440851119
4440857039
4440864302
4440869673
4440874922
4440881209
4440886031
4440893660
4440901045
4440906600
4440910994
4440915389
4440923384
4440929976
4440934554
4440940169
4440946699
4440950911
4440957075
4440963301
4440970137
4440975203
4440982039
4440986311
4440992537
4440997725
4441004439
4441008345
4441015120
4441020735
4441025801
4441030806
4441037153
4441042524
4441050215
4441056257
4441061812
4441069868
4441074751
4441080305
4441090376
4441095747
4441102034
4441108259
4441114057
4441119734
4441125349
4441130354
4441137007
4441142500
4441149885
4441153486
4441159712
4441165022
4441171797
4441177473
4441184492
4441189314
4441194624
4441199079
4441205854
4441211225
4441220075
4441225629
4441230512
4441238142
4441244245
4441249616
4441255903
4441261640
4441268354
4441275312
4441279706
4441287397
4441293378
4441299970
4441305768
4441311567
4441317243
4441324689
4441329267
4441335309
4441340375
4441346540
4441353498
4441360578
4441366193
4441371442
4441376813
4441382917
4441388593
4441394818
4441401227
4441406842
4441412458
4441418256
4441424298
4441430341
4441436383
4441442731
4441448895
4441454206
4441461225
4441469464
4441479108
4441484174
4441490582
4441495160
4441502484
4441508710
4441516522
4441523724
4441528729
4441535321
4441542523
4441548444
4441553448
4441559125
4441565106
4441570843
4441575177
4441580548
4441586896
4441591962
4441598981
4441604046
4441609295
4441615826
4441621075
4441625531
4441631390
4441638226
4441644146
4441648785
4441655133
4441659710
4441665265
4441671002
4441676495
4441683270
4441688092
4441695721
4441701947
4441707989
4441714642
4441720623
4441727215
4441733197
4441739361
4441744427
4441750286
4441757122
4441762676
4441769695
4441775799
4441782391
4441787151
4441794903
4441799908
4441804913
4441812847
4441820599
4441828228
4441832745
4441839642
4441846294
4441852520
4441858562
4441863201
4441869182
4441876263
4441881695
4441888103
4441895367
4441900616
4441905620
4441912334
4441920818
4441925030
4441933269
4441939556
4441945049
4441951763
4441957988
4441964092
4441969524
4441975628
4441981914
4441987590
4441995647
4442001506
4442007427
4442012859
4442019207
4442024944
4442032085
4442036785
4442044475
4442049358
4442056255
4442061260
4442067485
4442074321
4442078960
4442087627
4442091411
4442098857
4442104839
4442112163
4442118144
4442125591
4442130901
4442136882
4442143718
4442151042
4442157329
4442163798
4442169170
4442174663
4442181315
4442187358
4442192302
4442198222
4442204570
4442209453
4442214091
4442222087
4442227275
4442234416
4442239726
4442245341
4442251811
4442255778
4442263896
4442267985
4442274150
4442279704
4442285441
4442291178
4442296855
4442303691
4442309855
4442316386
4442323771
4442328471
4442335612
4442342265
4442348246
4442352213
4442359843
4442365824
4442373576
4442379252
4442386698
4442393351
4442400980
4442405985
4442412272
4442419230
4442424418
4442431498
4442438700
4442444376
4442450419
4442455729
4442462565
4442468180
4442474406
4442480875
4442487589
4442493448
4442498820
4442504862
4442509684
4442516337
4442521158
4442529642
4442535257
4442543192
4442550638
4442555094
4442562723
4442567423
4442574076
4442581278
4442588724
4442594767
4442599832
4442605570
4442612955
4442619852
4442624979
4442630838
4442638468
4442646463
4442652506
4442658060
4442664591
4442669595
4442674356
4442680582
4442686990
4442692545
4442699442
4442704813
4442710916
4442715311
4442721353
4442725931
4442731546
4442737894
4442745523
4442752786
4442757486
4442764322
4442769937
4442775979
4442781778
4442788553
4442795999
4442801248
4442807290
4442813821
4442819253
4442824197
4442829812
4442834939
4442840188
4442846414
4442849893
4442856912
4442862222
4442869363
4442874307
4442879190
4442885171
4442890969
4442897317
4442902383
4442907083
4442912088
4442917092
4442923867
4442928872
4442934854
4442939248
4442945413
4442949746
4442955300
4442961465
4442967019
4442974282
4442979897
4442986306
4442992043
4442997292
4443003274
4443009072
4443014932
4443021157
4443025979
4443032876
4443038369
4443046120
4443051553
4443057656
4443065346
4443070534
4443076089
4443084084
4443089638
4443096474
4443101723
4443106545
4443114052
4443118935
4443124917
4443132180
4443138283
4443142556
4443149758
4443153603
4443160500
4443166481
4443172524
4443181252
4443187111
4443194680
4443202004
4443208473
4443214211
4443220314
4443226723
4443232949
4443239723
4443243691
4443251320
4443257424
4443264809
4443270546
4443276589
4443281838
4443288551
4443293495
4443301369
4443306801
4443312477
4443317360
4443324257
4443331093
4443337746
4443343605
4443349831
4443355568
4443362892
4443369545
4443375648
4443382728
4443388283
4443393287
4443398292
4443405494
4443411964
4443418312
4443424659
4443429908
4443436805
4443441383
4443447731
4443453285
4443458351
4443464820
4443469154
4443476661
4443481239
4443485328
4443491127
4443498268
4443503028
4443508583
4443514503
4443520118
4443525978
4443531593
4443537879
4443544532
4443550147
4443556373
4443563087
4443569618
4443575172
4443581886
4443588966
4443595008
4443599708
4443605079
4443612525
4443617347
4443624488
4443629554
4443634132
4443642127
4443647315
4443655250
4443659827
4443666419
4443673072
4443680091
4443684913
4443691504
4443696998
4443704932
4443710914
4443716468
4443721351
4443727881
4443735572
4443739661
4443747229
4443752295
4443759375
4443765601
4443770972
4443777625
4443782691
4443789344
4443797339
4443803199
4443807593
4443813574
4443820044
4443826636
4443832495
4443840003
4443846045
4443851599
4443857764
4443864783
4443870398
4443876135
4443884070
4443892310
4443897803
4443903296
4443907568
4443916663
4443922400
4443927893
4443934485
4443939429
4443946326
4443952795
4443957373
4443964270
4443970434
4443976965
4443983740
4443989660
4443997107
4444005285
4444011450
4444017798
4444023291
4444030188
4444035742
4444043249
4444051489
4444056616
4444061987
4444068457
4444075048
4444079809
4444086035
4444090551
4444096533
4444103308
4444107580
4444114660
4444121069
4444125830
4444132604
4444139623
4444145483
4444152624
4444158788
4444164709
4444170202
4444175207
4444181005
4444185949
4444192541
4444198827
4444204015
4444208471
4444213598
4444219274
4444225072
4444230444
4444236608
4444242528
4444247533
4444253881
4444257848
4444263463
4444268651
4444273839
4444279699
4444287084
4444291723
4444298620
4444304723
4444309301
4444315709
4444321081
4444328954
4444334020
4444340490
4444345433
4444352269
4444355382
4444362157
4444369054
4444375280
4444381261
4444386815
4444393773
4444400487
4444406407
4444411779
4444421361
4444428868
4444436193
4444442784
4444448522
4444455113
4444462560
4444467259
4444475987
4444481358
4444490270
4444495213
4444501744
4444507787
4444514195
4444520482
4444525792
4444531346
4444537266
4444542271
4444548253
4444554967
4444562230
4444568028
4444574681
4444580296
4444586156
4444591160
4444597325
4444603245
4444611424
4444615819
4444622349
4444626805
4444633091
4444638524
4444646031
4444652134
4444656285
4444662693
4444670323
4444676731
4444680271
4444687168
4444690953
4444698460
4444702427
4444708897
4444712925
4444720066
4444725620
4444729771
4444734776
4444740940
4444744847
4444751316
4444758213
4444764012
4444767918
4444774693
4444780552
4444785801
4444791599
4444796970
4444803013
4444808872
4444814426
4444819797
4444825962
4444831821
4444837376
4444842075
4444847690
4444854282
4444859226
4444865635
4444871189
4444874851
4444882969
4444887729
4444892734
4444900242
4444907017
4444912998
4444918064
4444924656
4444929172
4444934787
4444939975
4444947300
4444954563
4444959140
4444964878
4444971164
4444978000
4444981540
4444987766
4444996677
4445002109
4445008518
4445014743
4445019504
4445026279
4445031467
4445039279
4445046176
4445053073
4445056918
4445062900
4445068942
4445075534
4445080600
4445086276
4445093356
4445100253
4445105685
4445110507
4445116000
4445122165
4445128268
4445133273
4445138766
4445146152
4445151767
4445156894
4445162448
4445168368
4445172702
4445179660
4445186069
4445194308
4445202975
4445207431
4445212985
4445218478
4445223605
4445228610
4445238620
4445244784
4445248568
4445255160
4445261020
4445266269
4445271579
4445276767
4445283053
4445288607
4445293673
4445299716
4445304965
4445309786
4445315035
4445320956
4445328036
4445333163
4445338961
4445345248
4445350497
4445355258
4445360446
4445366305
4445372042
4445378146
4445383639
4445388155
4445394259
4445400546
4445406161
4445410738
4445418856
4445423922
4445428927
4445434359
4445439242
4445446139
4445451754
4445455416
4445462130
4445469027
4445473849
4445480318
4445484713
4445490755
4445497957
4445503695
4445508822
4445515841
4445521822
4445527498
4445534517
4445539034
4445545198
4445551241
4445558016
4445564363
4445569551
4445575289
4445581942
4445588228
4445594759
4445602877
4445610628
4445621736
4445632356
4445639620
4445648103
4445656893
4445664522
4445676729
4445687105
4445699190
4445706087
4445714021
4445722200
4445730440
4445739412
4445747346
4445755647
4445765352
4445771943
4445780366
4445788118
4445795747
4445803743
4445812105
4445818391
4445825898
4445833528
4445840669
4445849214
4445857637
4445865693
4445872102
4445881257
4445889253
4445898774
4445904878
4445913423
4445922517
4445928620
4445937348
4445944123
4445953156
4445959992
4445970857
4445978669
4445985627
4445992951
4446001374
4446009309
4446017670
4446026765
4446036286
4446044953
4446052827
4446061127
4446069184
4446076142
4446088227
4446098115
4446106354
4446112519
4446121552
4446130280
4446141632
4446150971
4446158905
4446166474
4446173859
4446181488
4446189423
4446199005
4446207123
4446214997
4446222931
4446238007
4446247833
4446256744
4446264496
4446273407
4446282013
4446289398
4446297943
4446306305
4446314545
4446322723
4446332611
4446341766
4446349823
4446357635
4446365021
4446372223
4446379181
4446388397
4446396087
4446404876
4446414703
4446422149
4446430877
4446438751
4446444915
4446455658
4446464263
4446472198
4446478729
4446487762
4446494842
4446504730
4446514434
4446527435
4446535430
4446553802
4446568389
4446582488
4446593475
4446600860
4446613799
4446625762
4446637481
4446651824
4446659392
4446671599
4446685576
4446713897
4446726531
4446745757
4446760649
4446773955
4446785613
4446797576
4446812285
4446829924
4446845488
4446855071
4446860442
4446917509
4446930876
4446941374
4446952116
4446963774
4446975310
4446987761
4446997709
4447009611
4447018583
4447026701
4447036711
4447044035
4447053007
4447062406
4447070341
4447079008
4447086515
4447095976
4447106779
4447114164
4447121000
4447129179
4447138456
4447145780
4447154752
4447164823
4447172697
4447180692
4447188749
4447198637
4447208402
4447216764
4447225858
4447232328
4447240629
4447250638
4447258939
4447264921
4447273649
4447282316
4447292814
4447302762
4447310392
4447319059
4447324918
4447332975
4447341275
4447349820
4447356778
4447364041
4447370450
4447378507
4447388455
4447398343
4447407010
4447416348
4447424893
4447430509
4447437772
4447442410
4447448758
4447452969
4447457547
4447464322
4447469876
4447475858
4447480069
4447485867
4447491238
4447496121
4447502103
4447506619
4447512784
4447519009
4447523770
4447528348
4447532742
4447537747
4447542264
4447547208
4447552029
4447557583
4447561062
4447565823
4447569668
4447576809
4447581387
4447586575
4447592862
4447597561
4447602505
4447607266
4447611660
4447618679
4447622769
4447628140
4447633511
4447639492
4447645474
4447650113
4447656094
4447664151
4447668728
4447674588
4447679531
4447684109
4447688504
4447693936
4447698574
4447702481
4447707424
4447712734
4447717861
4447722134
4447728237
4447733364
4447737942
4447745815
4447751492
4447756924
4447762966
4447768826
4447774990
4447780483
4447785732
4447791653
4447797085
4447802761
4447807949
4447814602
4447819729
4447825039
4447831081
4447835049
4447840359
4447846401
4447850979
4447857021
4447862514
4447867641
4447872707
4447878261
4447882534
4447888759
4447894802
4447899990
4447904689
4447909877
4447915493
4447922817
4447928310
4447935207
4447941494
4447948757
4447952297
4447958339
4447964992
4447968593
4447973415
4447977199
4447983242
4447989406
4447994106
4447998195
4448002895
4448006984
4448011684
4448016200
4448022792
4448027919
4448032558
4448037074
4448043727
4448048610
4448053188
4448058559
4448063442
4448068813
4448073451
4448079128
4448085048
4448090602
4448095912
4448102382
4448107021
4448112270
4448118434
4448122768
4448128322
4448133632
4448139552
4448144435
4448149867
4448156032
4448162501
4448166774
4448172023
4448177272
4448182216
4448188746
4448194728
4448200892
4448206019
4448211451
4448216029
4448222255
4448228724
4448236415
4448243434
4448249049
4448253810
4448258631
4448264064
4448269129
4448275233
4448280421
4448287562
4448293605
4448300318
4448306544
4448313807
4448320338
4448326014
4448332606
4448337733
4448341456
4448348353
4448353663
4448359400
4448365809
4448371302
4448375086
4448381495
4448387049
4448394556
4448401453
4448407374
4448413233
4448419825
4448424952
4448431299
4448438013
4448443629
4448448084
4448454004
4448459742
4448465479
4448472681
4448478602
4448482264
4448489832
4448495203
4448498926
4448504297
4448509852
4448515284
4448522059
4448525721
4448531519
4448536646
4448544153
4448549097
4448554407
4448559961
4448565699
4448571375
4448576563
4448581995
4448586878
4448592371
4448597620
4448602197
4448608301
4448613550
4448617883
4448621729
4448628443
4448633814
4448640039
4448644495
4448651697
4448657129
4448661340
4448667444
4448671777
4448676904
4448683679
4448690027
4448694788
4448701074
4448705041
4448709253
4448716211
4448722375
4448727075
4448734338
4448739038
4448744043
4448748071
4448753747
4448759241
4448764245
4448769494
4448774865
4448780725
4448785058
4448791894
4448796106
4448802453
4448806665
4448812890
4448820886
4448826745
4448832299
4448837854
4448843530
4448848718
4448854760
4448860559
4448866845
4448872827
4448877526
4448883630
4448888574
4448893823
4448898889
4448904687
4448912683
4448919335
4448923608
4448929589
4448933312
4448938378
4448943505
4448949181
4448957299
4448964562
4448970361
4448975121
4448980248
4448984765
4448990380
4448995568
4449001183
4449007653
4449013512
4449018822
4449023827
4449028466
4449033471
4449039086
4449042809
4449050377
4449056603
4449063256
4449068871
4449073571
4449077660
4449083031
4449088280
4449095543
4449102135
4449106957
4449111535
4449116539
4449121239
4449126610
4449133568
4449139122
4449144066
4449148949
4449153649
4449158287
4449163170
4449168419
4449174462
4449180870
4449184838
4449190087
4449195641
4449201683
4449205467
4449210716
4449217613
4449224754
4449230003
4449234886
4449239647
4449244164
4449249168
4449254479
4449260765
4449266563
4449271996
4449277306
4449282310
4449287621
4449292015
4449298973
4449304893
4449310509
4449316490
4449321129
4449326256
4449331688
4449336693
4449341575
4449350120
4449356224
4449360313
4449365989
4449370994
4449375511
4449380516
4449384849
4449390342
4449397056
4449402366
4449408836
4449414024
4449420616
4449425254
4449430259
4449436302
4449443382
4449448936
4449455284
4449461021
4449468406
4449472373
4449478904
4449484153
4449490196
4449496299
4449504173
4449510154
4449514854
4449520164
4449526023
4449532432
4449537010
4449542930
4449547630
4449553306
4449557822
4449563560
4449568809
4449577781
4449583274
4449589500
4449594627
4449601035
4449605857
4449612815
4449619346
4449625571
4449631797
4449636985
4449641807
4449648826
4449654746
4449661338
4449667563
4449673850
4449679526
4449685141
4449690940
4449697837
4449701987
4449708518
4449715598
4449720969
4449727378
4449732138
4449737143
4449741721
4449746787
4449754721
4449760337
4449765464
4449770713
4449776023
4449781272
4449785117
4449793418
4449799765
4449804282
4449809226
4449814597
4449819663
4449824912
4449829978
4449835471
4449840353
4449847678
4449851889
4449859152
4449863303
4449870627
4449875510
4449882712
4449889609
4449895102
4449901022
4449905356
4449912253
4449918417
4449922323
4449928000
4449937216
4449942465
4449948019
4449953879
4449958090
4449965048
4449971213
4449976584
4449984457
4449990561
4449996664
4450003378
4450008810
4450014303
4450019857
4450025229
4450032309
4450041037
4450047934
4450054403
4450060385
4450066000
4450072164
4450077047
4450084432
4450093405
4450099447
4450104879
4450111044
4450117269
4450122213
4450127462
4450132894
4450138387
4450143881
4450148946
4450153524
4450159628
4450165121
4450170187
4450175619
4450182088
4450188070
4450195516
4450201376
4450207235
4450214376
4450218709
4450225973
4450234090
4450239095
4450243795
4450248372
4450253011
4450257711
4450266195
4450271077
4450276143
4450281576
4450286763
4450291524
4450296590
4450302022
4450310994
4450315877
4450321492
4450327169
4450332723
4450338399
4450343587
4450348714
4450355489
4450360555
4450365621
4450370503
4450375630
4450381612
4450387349
4450392964
4450398580
4450404439
4450409566
4450414937
4450420369
4450426473
4450432210
4450436971
4450444905
4450450459
4450456075
4450461873
4450467671
4450472920
4450479085
4450484761
4450491292
4450497151
4450502400
4450508687
4450513631
4450519551
4450524556
4450530537
4450536152
4450542744
4450547810
4450553914
4450558858
4450564168
4450569111
4450575947
4450582417
4450590352
4450595540
4450601277
4450606831
4450612812
4450619526
4450625874
4450633442
4450639973
4450644734
4450652058
4450657795
4450662678
4450668476
4450674275
4450680928
4450686787
4450692951
4450699055
4450704548
4450710468
4450716328
4450722431
4450728718
4450734333
4450739826
4450745747
4450751789
4450757160
4450764057
4450769550
4450776081
4450782978
4450789631
4450796101
4450801838
4450807819
4450814167
4450819599
4450825703
4450831013
4450836201
4450841144
4450846332
4450851459
4450856830
4450862751
4450869465
4450875507
4450880573
4450884784
4450889362
4450896381
4450902118
4450907123
4450913593
4450920551
4450926471
4450931598
4450936786
4450942157
4450947711
4450952411
4450957721
4450964252
4450971576
4450980121
4450986530
4450992938
4451000018
4451007221
4451013812
4451018878
4451023517
4451028888
4451034076
4451038226
4451042621
4451047626
4451052814
4451057819
4451062579
4451067889
4451072772
4451077960
4451082599
4451089618
4451095172
4451100177
4451105792
4451110736
4451116290
4451121539
4451127643
4451134601
4451138507
4451144183
4451148028
4451154315
4451158160
4451163226
4451169452
4451175616
4451180133
4451186847
4451192889
4451197467
4451201861
4451208148
4451214495
4451220660
4451225970
4451230487
4451236407
4451240496
4451244647
4451250262
4451255328
4451260455
4451265948
4451271197
4451277484
4451282855
4451288348
4451293109
4451298968
4451304888
4451310809
4451317156
4451322588
4451326922
4451331805
4451337786
4451341998
4451349444
4451355608
4451359759
4451364703
4451370501
4451375506
4451379595
4451388262
4451392657
4451396563
4451403765
4451407305
4451412981
4451417742
4451422442
4451430071
4451434588
4451439654
4451445574
4451453448
4451457781
4451463518
4451470842
4451477251
4451482195
4451487749
4451491839
4451497881
4451501909
4451509233
4451514238
4451520708
4451525591
4451530474
4451534624
4451541277
4451545488
4451551470
4451556047
4451564287
4451569231
4451572893
4451580828
4451586138
4451590166
4451595415
4451602251
4451608965
4451614275
4451617510
4451625444
4451630449
4451635088
4451640398
4451647356
4451652300
4451659013
4451664079
4451668535
4451674577
4451680437
4451684648
4451691911
4451700700
4451705888
4451712358
4451717607
4451724260
4451729753
4451736711
4451742570
4451749345
4451756181
4451760637
4451767412
4451773637
4451780900
4451786699
4451792924
4451800737
4451805436
4451811967
4451816545
4451822343
4451828569
4451834245
4451838273
4451844010
4451849565
4451854814
4451860124
4451865556
4451871049
4451877519
4451882768
4451889237
4451895951
4451901200
4451906999
4451910783
4451924882
4451931413
4451938615
4451942277
4451948380
4451953202
4451959977
4451964494
4451970780
4451976029
4451983598
4451987565
4451994218
4451999222
4452005509
4452010819
4452015397
4452021805
4452028824
4452034379
4452041459
4452047013
4452052262
4452056717
4452063309
4452070511
4452077836
4452084061
4452091446
4452096146
4452101639
4452106095
4452112320
4452118729
4452127457
4452132462
4452139908
4452145157
4452151017
4452156998
4452161148
4452168411
4452175308
4452180252
4452186173
4452192215
4452195694
4452203079
4452206803
4452214371
4452221390
4452226761
4452232742
4452237991
4452243424
4452249832
4452254654
4452261795
4452268021
4452273392
4452279861
4452285294
4452290115
4452297073
4452302444
4452308548
4452314712
4452323685
4452330887
4452336685
4452342300
4452347549
4452355423
4452363601
4452373306
4452382583
4452389114
4452397720
4452402969
4452409256
4452415786
4452422622
4452428482
4452434341
4452439468
4452444900
4452451187
4452456802
4452461990
4452468276
4452474807
4452481277
4452487136
4452493179
4452500137
4452505630
4452510207
4452515518
4452522842
4452528945
4452534011
4452538772
4452542434
4452547805
4452551650
4452559035
4452564468
4452569595
4452574538
4452578689
4452583694
4452588149
4452593215
4452599868
4452605117
4452610549
4452615737
4452620009
4452625808
4452629653
4452635024
4452642165
4452647353
4452651687
4452655776
4452661818
4452669143
4452673537
4452680861
4452687026
4452690810
4452696120
4452700820
4452705031
4452709914
4452715956
4452722365
4452728102
4452732131
4452737563
4452742690
4452748671
4452753737
4452758803
4452762953
4452770217
4452774550
4452781691
4452785781
4452792128
4452797743
4452801833
4452807265
4452814101
4452818251
4452823317
4452828383
4452833571
4452839308
4452844435
4452850661
4452856581
4452862990
4452867628
4452872267
4452879225
4452884474
4452891493
4452896620
4452904310
4452909254
4452917250
4452924513
4452931105
4452936415
4452942518
4452948256
4452955275
4452960463
4452964735
4452970228
4452975966
4452981520
4452986586
4452992140
4452997084
4453002516
4453010572
4453014967
4453021315
4453026991
4453032545
4453040113
4453045362
4453050611
4453055799
4453061537
4453068067
4453073744
4453080702
4453086012
4453095655
4453100660
4453106214
4453111768
4453117323
4453125013
4453130689
4453136243
4453142591
4453147901
4453152479
4453157667
4453162550
4453169508
4453175306
4453180433
4453185438
4453190626
4453196058
4453201978
4453208936
4453214796
4453220472
4453224317
4453230848
4453236585
4453243360
4453248487
4453254957
4453264112
4453268628
4453273999
4453279310
4453285169
4453289380
4453294507
4453299939
4453305921
4453312390
4453318006
4453322705
4453328504
4453334973
4453338697
4453344922
4453352307
4453359693
4453363538
4453371106
4453376599
4453385938
4453391187
4453396802
4453404675
4453409741
4453415234
4453419812
4453424817
4453430615
4453436719
4453443372
4453449902
4453457776
4453462415
4453468213
4453473767
4453478894
4453484814
4453492749
4453498303
4453503308
4453509534
4453515332
4453520886
4453526257
4453531750
4453539563
4453544018
4453549756
4453553845
4453559094
4453564526
4453569592
4453575146
4453581799
4453586438
4453594006
4453599621
4453605175
4453611706
4453617504
4453621594
4453627331
4453639233
4453643627
4453648022
4453652233
4453658459
4453664013
4453670239
4453674938
4453680920
4453685620
4453689892
4453695934
4453700817
4453706066
4453712353
4453717846
4453722424
4453727062
4453733288
4453737743
4453743908
4453749706
4453755566
4453760998
4453767101
4453771984
4453778698
4453783153
4453787731
4453793896
4453799511
4453806164
4453810680
4453815197
4453821483
4453826793
4453831981
4453839245
4453846264
4453850353
4453856273
4453861828
4453867687
4453871105
4453877941
4453883678
4453889171
4453895336
4453900646
4453905651
4453910778
4453916942
4453922740
4453929698
4453935741
4453941783
4453947643
4453953929
4453961315
4453966075
4453973216
4453979015
4453986278
4453989757
4453997753
4454001781
4454010143
4454029186
4454035655
4454042125
4454049998
4454054820
4454059520
4454066966
4454073741
4454079600
4454084605
4454088573
4454096934
4454101817
4454105845
4454112498
4454116832
4454122142
4454128001
4454135203
4454140452
4454146922
4454152293
4454159190
4454166636
4454170604
4454177440
4454182689
4454186839
4454195140
4454200267
4454207408
4454212657
4454219554
4454224803
4454230784
4454235484
4454240428
4454246714
4454254100
4454259226
4454265147
4454269847
4454275645
4454279734
4454285655
4454292185
4454298533
4454305186
4454309763
4454315623
4454320322
4454324900
4454331309
4454335459
4454342600
4454348826
4454353220
4454359019
4454364024
4454368662
4454375071
4454380137
4454389048
4454394358
4454398447
4454405894
4454410044
4454417307
4454422068
4454429087
4454436045
4454442698
4454448740
4454453257
4454458933
4454464792
4454470896
4454475840
4454485300
4454490854
4454496531
4454500742
4454506418
4454513193
4454518198
4454523569
4454529123
4454537058
4454542795
4454547678
4454554026
4454557871
4454563486
4454570078
4454577341
4454582834
4454590402
4454599436
4454604868
4454608835
4454615793
4454621957
4454627939
4454637399
4454644601
4454648874
4454654245
4454663889
4454672067
4454678415
4454684946
4454690622
4454696298
4454700937
4454705697
4454711496
4454716134
4454721445
4454726999
4454734506
4454740793
4454747018
4454755014
4454761361
4454767282
4454771920
4454782968
4454788766
4454795480
4454800180
4454806649
4454813180
4454819650
4454823617
4454829599
4454834054
4454841867
4454847787
4454853707
4454860482
4454866158
4454872018
4454877511
4454883431
4454889230
4454895822
4454901193
4454907235
4454911996
4454917001
4454921334
4454928170
4454933846
4454937936
4454944161
4454950448
4454955697
4454961251
4454967660
4454972542
4454978646
4454985238
4454992318
4454998849
4455005440
4455012459
4455018929
4455024727
4455029549
4455035164
4455040963
4455047493
4455053353
4455059823
4455064949
4455069771
4455075203
4455080147
4455086373
4455092171
4455098519
4455103829
4455110421
4455115486
4455121651
4455127327
4455131172
4455137520
4455146553
4455151375
4455157418
4455162056
4455168587
4455175789
4455179939
4455188118
4455195198
4455200386
4455206490
4455211983
4455217842
4455223763
4455230110
4455235054
4455242378
4455248543
4455254158
4455259895
4455266121
4455272346
4455276009
4455282173
4455287849
4455296089
4455300117
4455306953
4455312202
4455319771
4455323494
4455330086
4455336250
4455343818
4455349800
4455355781
4455360908
4455366401
4455374092
4455380623
4455386360
4455392830
4455398750
4455404243
4455410041
4455415840
4455420967
4455425788
4455432136
4455438056
4455444099
4455450202
4455453559
4455463264
4455469673
4455474250
4455481758
4455488349
4455494270
4455500984
4455506782
4455513252
4455518989
4455524482
4455531257
4455536567
4455541816
4455546210
4455551398
4455557136
4455562263
4455568000
4455575141
4455581184
4455586555
4455591071
4455596381
4455604011
4455609138
4455614264
4455618415
4455625739
4455631293
4455637336
4455643073
4455648627
4455654364
4455659675
4455665107
4455672309
4455677741
4455682257
4455687140
4455694770
4455699775
4455705573
4455710456
4455718268
4455723029
4455729376
4455735053
4455740180
4455745307
4455750739
4455758307
4455764594
4455770697
4455776984
4455781989
4455787787
4455793524
4455798773
4455806281
4455812811
4455820502
4455826483
4455831732
4455837103
4455842169
4455847235
4455852911
4455859259
4455864630
4455870123
4455875189
4455879339
4455884650
4455891791
4455896979
4455904364
4455909857
4455915533
4455921210
4455928290
4455933600
4455938482
4455943487
4455948797
4455954168
4455959234
4455966070
4455975409
4455979010
4455984320
4455990179
4455996954
4456000921
4456006659
4456011846
4456017767
4456022833
4456029913
4456036322
4456040655
4456045111
4456050482
4456056036
4456060613
4456066229
4456070867
4456078069
4456083074
4456090215
4456095037
4456100836
4456105779
4456112005
4456116094
4456122198
4456128423
4456133062
4456138677
4456144109
4456149847
4456154790
4456158636
4456167608
4456172613
4456178838
4456182867
4456187749
4456193487
4456198553
4456202337
4456209112
4456214178
4456219610
4456223821
4456229680
4456234197
4456239446
4456244573
4456251592
4456257146
4456262639
4456268926
4456273870
4456279607
4456284002
4456288091
4456295476
4456302007
4456307683
4456312383
4456317510
4456321965
4456327642
4456334416
4456343633
4456348516
4456354375
4456358403
4456364324
4456370488
4456375737
4456380559
4456389714
4456395329
4456399175
4456406316
4456411626
4456415776
4456420781
4456426335
4456432561
4456439641
4456444035
4456449651
4456455266
4456460637
4456466496
4456472905
4456480351
4456485600
4456492192
4456497563
4456502629
4456508061
4456513615
4456519169
4456526677
4456532170
4456538334
4456542729
4456547551
4456552067
4456556767
4456561772
4456568974
4456574467
4456580388
4456584172
4456589543
4456594914
4456600590
4456604985
4456611698
4456617680
4456622074
4456628727
4456632633
4456638066
4456643070
4456649662
4456654789
4456661991
4456666325
4456673039
4456678654
4456683109
4456688847
4456694279
4456702396
4456708988
4456714603
4456719975
4456725651
4456730167
4456735355
4456740055
4456746036
4456751163
4456756290
4456762455
4456766971
4456772465
4456776859
4456782535
4456786564
4456794254
4456799442
4456805790
4456810184
4456815433
4456821598
4456826603
4456830631
4456836551
4456843082
4456848636
4456852726
4456858646
4456863346
4456868839
4456874271
4456881656
4456886600
4456893741
4456899906
4456904666
4456909305
4456913761
4456921756
4456926517
4456933963
4456938846
4456946536
4456950321
4456956729
4456961856
4456966556
4456973819
4456979984
4456986331
4456990848
4456996585
4457002322
4457008304
4457012576
4457020877
4457025516
4457029666
4457037357
4457041690
4457048282
4457054324
4457060245
4457066531
4457072818
4457079410
4457085208
4457091556
4457095889
4457101504
4457107181
4457113894
4457118655
4457124392
4457129031
4457134829
4457139407
4457145205
4457150210
4457156436
4457161990
4457167727
4457172976
4457177432
4457182559
4457188113
4457195559
4457202212
4457206362
4457212527
4457216677
4457223208
4457228274
4457233218
4457238711
4457244143
4457250186
4457255923
4457261599
4457267520
4457270876
4457276431
4457284853
4457289736
4457295474
4457300539
4457305605
4457311221
4457316897
4457321841
4457327822
4457334353
4457338198
4457345217
4457351076
4457355105
4457360171
4457367312
4457373476
4457380190
4457384829
4457390322
4457395937
4457401735
4457407778
4457412966
4457419863
4457425600
4457431521
4457437990
4457443483
4457449892
4457455080
4457461184
4457469606
4457475161
4457479494
4457486940
4457492189
4457497255
4457503786
4457508852
4457517824
4457524416
4457528932
4457535585
4457540895
4457547548
4457552370
4457559267
4457564333
4457571230
4457576967
4457582521
4457589113
4457594240
4457599672
4457605409
4457617250
4457625368
4457631288
4457636781
4457641237
4457648500
4457653871
4457661745
4457666566
4457669984
4457675722
4457681154
4457687196
4457692872
4457699098
4457707155
4457711671
4457717714
4457721864
4457725953
4457733400
4457737855
4457745118
4457750612
4457758058
4457761415
4457768312
4457773805
4457778382
4457783876
4457790223
4457798890
4457804200
4457807618
4457813783
4457819947
4457826600
4457831239
4457837403
4457845460
4457850221
4457855775
4457861573
4457868165
4457875062
4457880494
4457885255
4457891053
4457897279
4457904176
4457909669
4457915894
4457921204
4457927491
4457933228
4457940064
4457946229
4457952759
4457958741
4457964295
4457969849
4457974732
4457980714
4457986634
4457992310
4457999512
4458004700
4458009217
4458015809
4458020569
4458024842
4458032715
4458041199
4458047974
4458055054
4458061280
4458066529
4458072815
4458080323
4458086914
4458094361
4458100220
4458107300
4458112915
4458118531
4458125305
4458130799
4458136536
4458145264
4458151489
4458157471
4458161011
4458167847
4458172424
4458178528
4458183716
4458189697
4458195252
4458201050
4458206299
4458212952
4458218079
4458226318
4458230835
4458237732
4458244018
4458252624
4458257446
4458264465
4458268982
4458274963
4458280151
4458287109
4458293152
4458298401
4458303955
4458309814
4458314453
4458320129
4458325439
4458332763
4458338196
4458345276
4458350586
4458356262
4458360778
4458367370
4458373169
4458381591
4458388610
4458392517
4458399902
4458406433
4458410949
4458416931
4458423339
4458428039
4458434143
4458439819
4458445861
4458450866
4458458251
4458462097
4458468322
4458474731
4458480529
4458506591
4458509338
4458511718
4458513976
4458516235
4458519225
4458521423
4458524535
4458526550
4458529174
4458531249
4458533630
4458535949
4458538451
4458540832
4458543883
4458546264
4458548156
4458550475
4458552856
4458554931
4458557128
4458559753
4458561828
4458564147
4458566894
4458569579
4458572204
4458574462
4458576781
4458578795
4458581298
4458584044
4458586669
4458589232
4458591735
4458593932
4458596129
4458598205
4458600463
