4110855137
4110861119
4110867039
4110871006
4110877171
4110884129
4110890782
4110896519
4110902439
4110906468
4110914707
4110922398
4110929417
4110934422
4110943211
4110951206
4110957859
4110964695
4110970432
4110976841
4110982517
4110990635
4110996311
4111003819
4111010105
4111017063
4111024143
4111031712
4111038425
4111045322
4111053989
4111061253
4111068088
4111075718
4111082126
4111089634
4111094761
4111102451
4111110508
4111116794
4111122593
4111131199
4111136692
4111146274
4111152317
4111160373
4111166233
4111175693
4111182163
4111189243
4111197788
4111201572
4111211948
4111219577
4111225742
4111234043
4111242282
4111249118
4111256565
4111264194
4111271335
4111279636
4111289035
4111295627
4111302585
4111310519
4111317294
4111322849
4111332980
4111340854
4111346652
4111355563
4111363986
4111370822
4111379794
4111386508
4111395907
4111402438
4111410739
4111416903
4111425326
4111430270
4111440097
4111448825
4111456149
4111463168
4111471469
4111481784
4111491183
4111498751
4111504977
4111512789
4111520297
4111527682
4111537142
4111546847
4111555575
4111566073
4111575717
4111584200
4111590243
4111599093
4111607027
4111614779
4111623385
4111630831
4111638766
4111646029
4111653231
4111660555
4111667025
4111674654
4111681795
4111689242
4111696383
4111703646
4111711641
4111718844
4111726290
4111734041
4111741366
4111749178
4111756014
4111761507
4111769808
4111777925
4111784639
4111793062
4111800875
4111806612
4111814608
4111820833
4111830049
4111834444
4111843782
4111852937
4111860079
4111866731
4111874178
4111882051
4111887727
4111895784
4111903169
4111910493
4111917818
4111925264
4111932710
4111939363
4111946443
4111953950
4111961397
4111969331
4111977205
4111984529
4111990449
4111998506
4112004426
4112012300
4112020967
4112028596
4112035005
4112042390
4112049348
4112056855
4112063264
4112071199
4112079377
4112083955
4112094941
4112102937
4112111421
4112119905
4112127900
4112135346
4112142976
4112150910
4112157075
4112164948
4112171235
4112180756
4112185273
4112194978
4112203767
4112209199
4112217439
4112224641
4112232087
4112239899
4112250275
4112258881
4112266633
4112274933
4112282929
4112289521
4112297638
4112307038
4112312897
4112321198
4112327179
4112334687
4112340485
4112350129
4112357880
4112365082
4112369049
4112377716
4112381623
4112390412
4112397919
4112404877
4112413178
4112418366
4112425446
4112432099
4112438690
4112443634
4112452179
4112460602
4112466644
4112474274
4112483490
4112488007
4112497528
4112504974
4112513153
4112519806
4112526520
4112535736
4112544220
4112551056
4112559296
4112566315
4112575653
4112583404
4112589508
4112599090
4112603851
4112614349
4112618866
4112629181
4112636505
4112644317
4112651519
4112659149
4112667205
4112675323
4112680816
4112689239
4112697967
4112704742
4112713775
4112718231
4112728546
4112733245
4112744659
4112752776
4112760345
4112766998
4112774566
4112781280
4112789703
4112799834
4112811431
4112819366
4112826751
4112834258
4112841460
4112848357
4112856536
4112866118
4112872832
4112877166
4112880645
4112885833
4112889312
4112893889
4112898833
4112903045
4112908233
4112912444
4112917083
4112922698
4112927642
4112933928
4112939422
4112943389
4112950896
4112956023
4112960662
4112966216
4112970366
4112975981
4112979766
4112984404
4112987883
4112992644
4112996184
4113003081
4113009795
4113014250
4113018889
4113023345
4113028288
4113033049
4113037383
4113041533
4113046538
4113050322
4113056243
4113059966
4113064665
4113068450
4113073576
4113079009
4113083464
4113085906
4113091765
4113094267
4113100493
4113106047
4113109587
4113115507
4113120329
4113124419
4113129179
4113134001
4113138274
4113141936
4113146574
4113151213
4113156401
4113161284
4113169157
4113174345
4113180266
4113184904
4113191008
4113197294
4113202116
4113207976
4113212248
4113216581
4113222075
4113226469
4113233549
4113238981
4113243376
4113250395
4113254240
4113261076
4113265715
4113271879
4113276945
4113282499
4113286711
4113293974
4113300566
4113304899
4113309843
4113314970
4113320524
4113325407
4113328153
4113334379
4113338957
4113344145
4113347135
4113353300
4113356840
4113364713
4113367704
4113373625
4113378019
4113383573
4113387846
4113395963
4113397428
4113410856
4113419523
4113425260
4113430936
4113437345
4113442472
4113447233
4113451932
4113456571
4113461576
4113466764
4113470914
4113475980
4113481656
4113487577
4113490323
4113496427
4113500516
4113506254
4113510709
4113515775
4113520109
4113526395
4113529508
4113535184
4113539640
4113544828
4113550443
4113554959
4113559232
4113565885
4113570340
4113575406
4113579862
4113586148
4113590177
4113595731
4113599881
4113606534
4113611051
4113618192
4113623075
4113629117
4113633206
4113638150
4113643460
4113648831
4113653226
4113659207
4113663480
4113669400
4113673856
4113677091
4113685819
4113691617
4113697171
4113703946
4113708463
4113713834
4113719632
4113725003
4113730801
4113735562
4113741177
4113747037
4113752957
4113757535
4113763394
4113768155
4113774930
4113779812
4113785184
4113789822
4113796231
4113801785
4113806241
4113812466
4113818081
4113825345
4113830655
4113837368
4113843411
4113845120
4113852749
4113857693
4113863613
4113869656
4113875088
4113880093
4113884854
4113890774
4113895230
4113898464
4113905850
4113911892
4113916043
4113922207
4113926541
4113931484
4113937893
4113941799
4113948696
4113954556
4113962551
4113967251
4113973476
4113978054
4113983242
4113987637
4113993008
4113998135
4114004421
4114007290
4114014004
4114018337
4114023525
4114028286
4114034450
4114040859
4114046718
4114052334
4114056667
4114060818
4114066982
4114071316
4114077785
4114083034
4114088466
4114094326
4114099270
4114105800
4114111416
4114116481
4114123439
4114128627
4114133144
4114139431
4114145717
4114150661
4114156581
4114161953
4114168911
4114174709
4114181118
4114186122
4114191982
4114196743
4114202175
4114207851
4114213161
4114217739
4114225551
4114230373
4114233974
4114242580
4114249355
4114254787
4114259670
4114264247
4114272060
4114276820
4114280055
4114288539
4114291957
4114299464
4114304042
4114310146
4114313441
4114321620
4114327418
4114332545
4114339015
4114344142
4114348659
4114354884
4114360744
4114366115
4114371608
4114377162
4114383937
4114389430
4114394496
4114402736
4114407802
4114412257
4114418483
4114422694
4114429286
4114433680
4114439051
4114445521
4114450465
4114456996
4114462428
4114467067
4114471034
4114479579
4114482753
4114489955
4114493983
4114504725
4114511012
4114516566
4114522303
4114527430
4114534083
4114538966
4114545313
4114549525
4114554774
4114558802
4114563258
4114568263
4114572779
4114578761
4114584864
4114587611
4114593958
4114598292
4114603419
4114608057
4114613856
4114618433
4114624110
4114630274
4114634608
4114640589
4114644678
4114649805
4114655237
4114660059
4114667689
4114671900
4114677576
4114683314
4114688379
4114692469
4114697413
4114703638
4114709375
4114713709
4114719263
4114723597
4114729700
4114733912
4114738550
4114744104
4114749781
4114756556
4114761255
4114767115
4114771814
4114776453
4114781946
4114786280
4114793238
4114799280
4114805200
4114810083
4114814722
4114820703
4114826258
4114829553
4114835413
4114840601
4114847559
4114850794
4114858179
4114864038
4114868250
4114874170
4114878259
4114883752
4114890161
4114896143
4114901086
4114908899
4114912927
4114917993
4114923242
4114930566
4114936365
4114941797
4114947351
4114952966
4114957239
4114960657
4114969446
4114976831
4114980798
4114986352
4114990747
4114996484
4115002893
4115007715
4115012658
4115018945
4115025903
4115030786
4115036157
4115040307
4115045434
4115052087
4115057885
4115065637
4115072473
4115078881
4115086022
4115092065
4115095971
4115100610
4115105981
4115110681
4115118066
4115121484
4115127770
4115132165
4115138452
4115141686
4115147851
4115152734
4115158776
4115163171
4115168298
4115172692
4115178857
4115183312
4115187829
4115194238
4115199487
4115203942
4115208703
4115212548
4115218346
4115222619
4115228417
4115234215
4115239587
4115244469
4115247826
4115256188
4115259789
4115267174
4115270653
4115277794
4115283104
4115290490
4115295189
4115300194
4115305077
4115311364
4115316246
4115321007
4115325646
4115332726
4115337304
4115342797
4115349022
4115353722
4115359398
4115362755
4115370629
4115374352
4115381981
4115385277
4115391381
4115396202
4115401085
4115407189
4115412255
4115416832
4115423119
4115427574
4115432823
4115438988
4115445030
4115450157
4115453697
4115461327
4115464684
4115472313
4115475609
4115482018
4115487572
4115494102
4115500145
4115506187
4115510643
4115517113
4115521507
4115527855
4115534447
4115539513
4115546715
4115552086
4115557030
4115563804
4115568443
4115576988
4115582786
4115588463
4115593284
4115601036
4115606956
4115613548
4115621605
4115627708
4115633323
4115639122
4115645591
4115651268
4115655967
4115663719
4115668235
4115674522
4115678611
4115684227
4115688011
4115692344
4115698081
4115703697
4115709251
4115713645
4115719993
4115724327
4115729514
4115733848
4115739158
4115743553
4115750816
4115756187
4115762656
4115768455
4115776084
4115781089
4115787376
4115792503
4115798118
4115803184
4115810752
4115814536
4115821799
4115827170
4115834251
4115837852
4115843955
4115848167
4115854819
4115859580
4115864158
4115870872
4115874900
4115882651
4115888633
4115893271
4115897971
4115904441
4115910666
4115915854
4115922751
4115930625
4115940451
4115946128
4115950461
4115956260
4115961875
4115965110
4115971396
4115977378
4115983847
4115990012
4115993979
4115999716
4116003928
4116009116
4116015463
4116020346
4116028403
4116033225
4116038840
4116043662
4116048850
4116053977
4116058554
4116067465
4116073508
4116080832
4116084128
4116090048
4116094626
4116100424
4116107321
4116112814
4116118491
4116122702
4116125998
4116132468
4116136984
4116142416
4116147116
4116153219
4116157858
4116163595
4116168234
4116174215
4116178976
4116184530
4116190817
4116199728
4116206015
4116213034
4116219137
4116225241
4116230307
4116234640
4116240805
4116246420
4116249533
4116255758
4116260275
4116265646
4116270040
4116274679
4116280844
4116285665
4116291647
4116296224
4116300375
4116307577
4116311422
4116317648
4116325155
4116330526
4116335226
4116340963
4116347128
4116350973
4116358541
4116367025
4116373739
4116379232
4116391073
4116397176
4116404195
4116409566
4116415060
4116420431
4116425497
4116430013
4116435201
4116440511
4116445760
4116450521
4116455099
4116459188
4116464315
4116469137
4116474447
4116478841
4116484456
4116488851
4116492330
4116498067
4116503499
4116508443
4116512532
4116517598
4116523519
4116529134
4116533040
4116538961
4116543721
4116550130
4116554219
4116558919
4116564534
4116569051
4116575032
4116580159
4116584920
4116591146
4116596578
4116601460
4116607198
4116613118
4116617757
4116621541
4116629842
4116635091
4116640584
4116645528
4116650655
4116656331
4116659810
4116664754
4116670186
4116676656
4116681111
4116686360
4116692036
4116697530
4116701680
4116704976
4116712605
4116716328
4116723103
4116732197
4116739705
4116744771
4116750874
4116757405
4116761311
4116768269
4116773640
4116779622
4116784627
4116789998
4116795125
4116800984
4116805012
4116810444
4116815754
4116821125
4116826313
4116830708
4116835896
4116841877
4116846638
4116852620
4116854512
4116862690
4116868122
4116873860
4116879963
4116886189
4116893330
4116897663
4116902546
4116908100
4116913655
4116917805
4116924885
4116930683
4116935688
4116941792
4116946186
4116951435
4116956562
4116961079
4116966877
4116972797
4116977924
4116982929
4116989155
4116994282
4117000141
4117005085
4117011127
4117016376
4117022480
4117028950
4117033832
4117038593
4117045063
4117050983
4117056354
4117060993
4117066425
4117072040
4117077167
4117081562
4117088032
4117093586
4117099140
4117104999
4117109516
4117115314
4117118305
4117125446
4117134052
4117142170
4117148700
4117153339
4117158710
4117161457
4117168231
4117174274
4117181354
4117186420
4117191242
4117197223
4117201496
4117206989
4117212177
4117219989
4117223468
4117229816
4117234516
4117240558
4117245380
4117250934
4117256610
4117264423
4117270892
4117277545
4117281024
4117287860
4117292438
4117298175
4117303302
4117309711
4117313983
4117319842
4117324359
4117329120
4117335162
4117339923
4117344928
4117352374
4117356463
4117362811
4117367084
4117372210
4117377643
4117381976
4117388324
4117394305
4117398639
4117403643
4117409259
4117414264
4117418597
4117423297
4117429034
4117435199
4117441241
4117444598
4117450701
4117455340
4117461261
4117465899
4117470538
4117475482
4117482928
4117487628
4117492449
4117498614
4117503741
4117509295
4117514788
4117519183
4117526324
4117530657
4117533892
4117541827
4117547930
4117551653
4117557208
4117562823
4117567095
4117574908
4117578204
4117585772
4117589129
4117594805
4117600726
4117604754
4117609209
4117615984
4117620623
4117627581
4117632464
4117639788
4117644671
4117652239
4117657610
4117663836
4117668352
4117674761
4117681109
4117687761
4117695208
4117702288
4117707842
4117713152
4117722307
4117725969
4117731401
4117736345
4117742083
4117746721
4117752703
4117759539
4117766252
4117771501
4117777544
4117782976
4117788042
4117792253
4117797808
4117802873
4117810198
4117816301
4117822710
4117828630
4117832903
4117841264
4117845354
4117853288
4117857256
4117865984
4117869280
4117875810
4117880815
4117884843
4117889543
4117895708
4117901140
4117905717
4117911516
4117916704
4117923051
4117929277
4117932878
4117939470
4117944780
4117950395
4117955095
4117962663
4117967851
4117974626
4117978166
4117986100
4117993120
4117997575
4118002214
4118008561
4118011979
4118018144
4118023088
4118028154
4118035112
4118040544
4118045243
4118051774
4118057267
4118063554
4118067582
4118075395
4118080949
4118088212
4118093705
4118100053
4118105424
4118111772
4118115617
4118122697
4118129655
4118135941
4118141923
4118147782
4118153275
4118157365
4118163590
4118167435
4118174882
4118179581
4118185136
4118190873
4118194596
4118199845
4118205094
4118212296
4118215714
4118222733
4118227799
4118233109
4118237198
4118242631
4118248490
4118256913
4118261857
4118267594
4118272599
4118276810
4118282425
4118291581
4118296769
4118302567
4118305985
4118312943
4118317826
4118322403
4118330338
4118337052
4118343827
4118349320
4118354813
4118362137
4118368241
4118378433
4118384476
4118392960
4118399857
4118407242
4118413773
4118419754
4118426102
4118430679
4118437454
4118441971
4118445572
4118453568
4118457230
4118464493
4118470718
4118476822
4118479385
4118488174
4118491409
4118498306
4118503555
4118507584
4118510696
4118517532
4118523025
4118529312
4118534561
4118538894
4118543655
4118549576
4118554275
4118559585
4118566177
4118572342
4118577408
4118582901
4118587417
4118592972
4118599075
4118603836
4118608719
4118615921
4118622940
4118628433
4118633560
4118640335
4118645523
4118649185
4118655715
4118661941
4118668533
4118673416
4118679214
4118683547
4118688919
4118694778
4118699783
4118707168
4118713149
4118717666
4118723037
4118729385
4118734512
4118738784
4118743545
4118749343
4118754592
4118762038
4118765334
4118771438
4118776504
4118782790
4118787429
4118792251
4118796828
4118803908
4118808364
4118813979
4118820083
4118826308
4118831191
4118837722
4118842849
4118849196
4118855361
4118861037
4118865371
4118870192
4118875625
4118883864
4118888747
4118893874
4118899794
4118904616
4118910537
4118915603
4118922438
4118927443
4118932265
4118939711
4118945021
4118949294
4118955275
4118960524
4118966994
4118973281
4118980178
4118985793
4118990309
4118999831
4119004592
4119010268
4119015883
4119020094
4119024916
4119031081
4119038710
4119043288
4119048171
4119053847
4119058730
4119064345
4119068678
4119075148
4119079909
4119086867
4119091505
4119097670
4119101820
4119107802
4119112440
4119118361
4119123488
4119130446
4119135634
4119141737
4119146071
4119149733
4119157301
4119160658
4119167982
4119171522
4119178541
4119183180
4119188734
4119193861
4119199720
4119203932
4119210829
4119217970
4119224989
4119229872
4119234571
4119240736
4119245924
4119250196
4119255873
4119260694
4119266981
4119272901
4119274732
4119283216
4119286878
4119294142
4119297437
4119303480
4119309889
4119317762
4119321363
4119328016
4119332594
4119337171
4119344190
4119348097
4119353346
4119360487
4119367200
4119372572
4119377332
4119382398
4119388013
4119391309
4119398939
4119402357
4119414014
4119420484
4119424451
4119431226
4119436231
4119441907
4119447095
4119453260
4119457654
4119464185
4119468458
4119475110
4119479383
4119482740
4119490857
4119496656
4119501233
4119507764
4119512281
4119515577
4119523145
4119528150
4119533826
4119540418
4119547254
4119552808
4119559644
4119565991
4119573499
4119578809
4119586377
4119591138
4119597547
4119603040
4119609570
4119614209
4119621045
4119625806
4119632520
4119637586
4119643933
4119650037
4119654981
4119660657
4119664807
4119670483
4119673901
4119680493
4119687146
4119693310
4119698010
4119703503
4119707654
4119714490
4119718701
4119723645
4119729748
4119734875
4119741284
4119746045
4119750500
4119755871
4119761609
4119766308
4119771924
4119777051
4119784070
4119789990
4119795239
4119800305
4119807202
4119813427
4119818676
4119823315
4119829846
4119835522
4119839001
4119846875
4119850048
4119857983
4119863415
4119868298
4119874340
4119879528
4119884167
4119891491
4119897289
4119904858
4119910839
4119917431
4119923596
4119931103
4119939220
4119942150
4119953869
4119959728
4119970348
4119976452
4119985058
4119992870
4119996471
4120007946
4120015880
4120024242
4120029186
4120037243
4120045849
4120052196
4120063793
4120069652
4120078930
4120086376
4120095897
4120102855
4120107555
4120115856
4120122753
4120128002
4120136608
4120147228
4120154796
4120161449
4120171337
4120177989
4120181346
4120195873
4120199169
4120211620
4120220104
4120226695
4120234813
4120243175
4120251353
4120261668
4120271312
4120279430
4120282970
4120294627
4120304271
4120311656
4120318431
4120327098
4120334056
4120341197
4120347667
4120355113
4120359935
4120369456
4120377330
4120383677
4120388316
4120396312
4120402781
4120409068
4120415049
4120421458
4120429942
4120435435
4120445201
4120449778
4120458140
4120464915
4120470286
4120480784
4120485179
4120495249
4120503916
4120511912
4120521800
4120529368
4120536875
4120543162
4120551035
4120558176
4120562754
4120573069
4120579905
4120586619
4120593638
4120598765
4120608713
4120616465
4120622751
4120629404
4120634531
4120644053
4120648813
4120657541
4120664499
4120672434
4120682627
4120686350
4120698923
4120704721
4120713572
4120721567
4120724985
4120736948
4120743112
4120753122
4120761911
4120771189
4120778757
4120782114
4120796213
4120799570
4120812387
4120817453
4120826669
4120834604
4120840402
4120849985
4120858286
4120866037
4120873849
4120877634
4120888864
4120893747
4120901865
4120908273
4120911142
4120921579
4120928659
4120935190
4120942331
4120950693
4120961496
4120969674
4120977426
4120983407
4120990915
4120997445
4121004831
4121011361
4121022836
4121030465
4121035836
4121043222
4121049813
4121057382
4121063790
4121068734
4121077828
4121085702
4121092538
4121099740
4121108102
4121115548
4121122018
4121132211
4121141061
4121149911
4121161874
4121172250
4121178658
4121189461
4121198434
4121209176
4121217599
4121223946
4121230843
4121238228
4121246346
4121255379
4121271737
4121280831
4121286141
4121297493
4121306038
4121314278
4121320809
4121323799
4121335030
4121343209
4121349556
4121354317
4121363533
4121368416
4121379097
4121385933
4121392464
4121399300
4121404671
4121412850
4121418709
4121426216
4121432503
4121441963
4121448311
4121453072
4121461189
4121467659
4121474983
4121481880
4121487434
4121497200
4121507332
4121515388
4121522957
4121529793
4121536629
4121544319
4121552253
4121558723
4121561775
4121571052
4121579475
4121586982
4121593574
4121601081
4121607673
4121612922
4121623054
4121627327
4121635810
4121643013
4121648933
4121657539
4121664253
4121670539
4121676521
4121684333
4121690803
4121696174
4121703864
4121714179
4121719734
4121727729
4121734260
4121742561
4121745979
4121758063
4121761237
4121773444
4121780219
4121789069
4121796516
4121805793
4121812751
4121815742
4121827277
4121835273
4121844184
4121849738
4121862067
4121869391
4121872687
4121884040
4121889838
4121897712
4121904731
4121913398
4121920478
4121928534
4121938544
4121943488
4121951544
4121958808
4121964362
4121974799
4121982489
4121987799
4121995307
4122003302
4122015021
4122020148
4122027899
4122034552
4122042548
4122050238
4122058356
4122066595
4122071417
4122083807
4122089972
4122096747
4122103888
4122109015
4122117438
4122124335
4122129950
4122136725
4122143988
4122150335
4122154608
4122163275
4122167364
4122173834
4122180853
4122186346
4122191351
4122196844
4122201544
4122206915
4122212652
4122217901
4122223761
4122228338
4122232794
4122240606
4122247015
4122251409
4122257208
4122260504
4122267584
4122272528
4122277532
4122282537
4122288580
4122293218
4122299688
4122304571
4122310919
4122315069
4122320257
4122326421
4122334051
4122339056
4122342229
4122350713
4122354620
4122361944
4122366766
4122372686
4122379217
4122385747
4122390813
4122397710
4122403203
4122410894
4122414800
4122422124
4122428045
4122434392
4122439580
4122443975
4122450933
4122455877
4122462224
4122467046
4122471319
4122477849
4122484624
4122490056
4122494878
4122498784
4122506108
4122509404
4122516057
4122521550
4122527654
4122533940
4122539983
4122547246
4122552678
4122557134
4122563115
4122567632
4122574895
4122579534
4122584538
4122591069
4122597051
4122603581
4122608769
4122613042
4122619267
4122625676
4122629155
4122635442
4122640385
4122646245
4122651006
4122656499
4122662175
4122669499
4122675969
4122682072
4122689458
4122694951
4122700627
4122707280
4122712468
4122718754
4122723088
4122728337
4122733098
4122739262
4122744267
4122751652
4122755742
4122762211
4122767704
4122773442
4122776738
4122783268
4122786564
4122794133
4122797856
4122806095
4122809391
4122815129
4122819950
4122825260
4122831852
4122837040
4122841618
4122847904
4122852482
4122857670
4122863407
4122869084
4122873661
4122877445
4122885746
4122889408
4122896183
4122899479
4122906315
4122911198
4122917057
4122921818
4122926823
4122931400
4122938908
4122943668
4122949284
4122955692
4122960636
4122964970
4122971195
4122975407
4122983158
4122989262
4122992496
4122999699
4123002994
4123009708
4123014469
4123019657
4123024235
4123032108
4123037052
4123042667
4123047550
4123053043
4123057621
4123062381
4123068180
4123075443
4123078983
4123086490
4123089786
4123096622
4123100772
4123108341
4123114933
4123120853
4123124149
4123130741
4123135623
4123141361
4123146366
4123151370
4123158084
4123164615
4123169986
4123174625
4123179447
4123186832
4123191409
4123197452
4123202030
4123207950
4123213870
4123218814
4123223880
4123230777
4123235904
4123241275
4123248416
4123254214
4123262942
4123268069
4123274722
4123278323
4123284732
4123290164
4123295779
4123301150
4123308414
4123313052
4123319400
4123323489
4123329410
4123334903
4123339663
4123345706
4123351931
4123358279
4123360171
4123368167
4123373538
4123377871
4123382632
4123388125
4123394168
4123402102
4123405764
4123411685
4123416507
4123421878
4123426089
4123431887
4123437991
4123442996
4123449343
4123454470
4123459109
4123465945
4123470278
4123473513
4123481082
4123487307
4123491702
4123496462
4123501772
4123507998
4123513064
4123517214
4123522952
4123527529
4123534426
4123541018
4123546328
4123556338
4123562563
4123568117
4123572451
4123578615
4123586184
4123592592
4123596560
4123603274
4123608401
4123612612
4123618105
4123625307
4123630373
4123635561
4123642458
4123647219
4123652651
4123657168
4123664003
4123667788
4123678041
4123684328
4123690371
4123696657
4123701235
4123705996
4123710878
4123718508
4123724306
4123728029
4123733461
4123739870
4123744203
4123748903
4123755922
4123762819
4123767763
4123773744
4123778566
4123785036
4123789003
4123794862
4123800539
4123805483
4123814760
4123821413
4123826784
4123833376
4123837831
4123844118
4123848451
4123852418
4123862978
4123867677
4123872499
4123877687
4123882875
4123888673
4123893251
4123901308
4123905885
4123911256
4123917360
4123922853
4123927125
4123930421
4123937990
4123942933
4123950624
4123954103
4123960145
4123965028
4123970399
4123974733
4123981141
4123985902
4123992860
4123997560
4124002504
4124008180
4124013795
4124018251
4124021669
4124029176
4124034486
4124041993
4124045411
4124052491
4124057313
4124062806
4124067506
4124076112
4124082826
4124089539
4124094605
4124099244
4124104371
4124111451
4124115907
4124121278
4124127503
4124133179
4124137818
4124141297
4124149354
4124153260
4124160645
4124164246
4124172242
4124177735
4124182984
4124188111
4124194337
4124199280
4124205323
4124210938
4124215149
4124221192
4124226014
4124234498
4124239930
4124244629
4124250672
4124256226
4124259949
4124267395
4124273682
4124280274
4124285279
4124291443
4124296143
4124301331
4124305481
4124310913
4124317017
4124323181
4124329529
4124334290
4124340576
4124346192
4124351868
4124355225
4124361084
4124366089
4124373413
4124376892
4124382874
4124387879
4124394775
4124399841
4124406494
4124411743
4124420044
4124424500
4124431213
4124437317
4124442749
4124447144
4124453064
4124457519
4124464477
4124468994
4124475159
4124479370
4124484924
4124490356
4124493774
4124500366
4124504028
4124511658
4124514953
4124520935
4124525696
4124531799
4124536499
4124541931
4124546997
4124554687
4124559265
4124565124
4124571411
4124574035
4124582763
4124586975
4124592834
4124597045
4124603271
4124606567
4124613891
4124619934
4124623962
4124627563
4124634704
4124641235
4124652465
4124658386
4124663024
4124666686
4124674804
4124680786
4124685851
4124690612
4124696716
4124702209
4124706542
4124711242
4124718078
4124723754
4124728759
4124734985
4124740050
4124745238
4124748107
4124753722
4124758849
4124765746
4124772094
4124776427
4124779845
4124787658
4124790954
4124797851
4124801940
4124815063
4124822753
4124829711
4124836730
4124842833
4124847594
4124852843
4124861937
4124867492
4124872985
4124874877
4124883422
4124886657
4124894225
4124898131
4124906249
4124909545
4124915465
4124920531
4124926085
4124930480
4124936827
4124943053
4124951354
4124957274
4124963133
4124970946
4124977599
4124982543
4124986693
4124993224
4124998473
4125003294
4125009093
4125013731
4125019713
4125024352
4125030150
4125035704
4125042235
4125046751
4125051634
4125057310
4125062010
4125067747
4125071226
4125077696
4125083983
4125088560
4125091795
4125098631
4125103270
4125108275
4125114500
4125119627
4125124571
4125132200
4125137205
4125142820
4125147520
4125153685
4125159910
4125163450
4125170591
4125177122
4125183592
4125188963
4125195066
4125201414
4125210325
4125217100
4125224424
4125230955
4125238706
4125244932
4125254087
4125261595
4125267271
4125278135
4125286802
4125292661
4125300108
4125308592
4125319639
4125327146
4125334470
4125341611
4125344663
4125354551
4125361875
4125370054
4125377317
4125385313
4125393796
4125401182
4125408201
4125416013
4125423459
4125430417
4125438474
4125445920
4125453489
4125462766
4125469602
4125474851
4125483335
4125487729
4125496335
4125502927
4125508420
4125518979
4125524289
4125535825
4125541074
4125551145
4125558530
4125568112
4125575376
4125581479
4125590634
4125599728
4125606503
4125614438
4125620602
4125630551
4125638303
4125641598
4125653378
4125659177
4125670529
4125680051
4125688779
4125695920
4125699032
4125708981
4125718258
4125726315
4125734311
4125737851
4125749691
4125761349
4125770565
4125779110
4125786007
4125792416
4125799679
4125805233
4125811093
4125818905
4125825070
4125831661
4125840756
4125847531
4125855404
4125859493
4125866818
4125875363
4125878475
4125887081
4125894100
4125903744
4125910946
4125913815
4125923336
4125931087
4125938717
4125945431
4125948299
4125957760
4125965633
4125974544
4125982357
4125988338
4125995724
4126005123
4126012569
4126019100
4126028377
4126036190
4126043880
4126051632
4126054744
4126067928
4126073909
4126082698
4126090511
4126098751
4126107051
4126112361
4126122615
4126130367
4126137569
4126145381
4126150936
4126159908
4126166438
4126173519
4126181026
4126191463
4126200313
4126208003
4126214656
4126222041
4126228450
4126235713
4126242976
4126251765
4126261226
4126268123
4126275630
4126282405
4126287837
4126296748
4126303828
4126310664
4126316707
4126324580
4126330867
4126335566
4126343501
4126350398
4126358088
4126365107
4126368525
4126378962
4126386958
4126395930
4126406611
4126414790
4126423823
4126434565
4126443537
4126450984
4126457453
4126465083
4126472102
4126482417
4126489985
4126499873
4126508234
4126514277
4126522456
4126529475
4126539851
4126546686
4126549799
4126560358
4126565546
4126573115
4126580073
4126589167
4126596064
4126604120
4126615534
4126624445
4126633906
4126642389
4126651362
4126661127
4126668329
4126676264
4126682856
4126693109
4126701166
4126709345
4126716669
4126724237
4126731195
4126736933
4126746271
4126754694
4126761835
4126768732
4126775507
4126784113
4126790155
4126795953
4126802667
4126809564
4126816034
4126823846
4126830499
4126835260
4126844293
4126850824
4126858392
4126864252
4126866937
4126876153
4126885187
4126891961
4126898736
4126907892
4126915582
4126922662
4126929803
4126938653
4126946283
4126949640
4126961236
4126968866
4126976861
4126989129
4126997308
4127005426
4127010919
4127018731
4127026055
4127035150
4127042657
4127048089
4127057488
4127064996
4127072869
4127080621
4127083733
4127093560
4127103204
4127111321
4127119378
4127129143
4127137200
4127145928
4127153741
4127160027
4127170403
4127179253
4127187859
4127195794
4127203606
4127210991
4127219414
4127227898
4127235405
4127238762
4127249871
4127258965
4127267083
4127274773
4127282158
4127289666
4127298638
4127305107
4127312432
4127319206
4127326164
4127332939
4127343132
4127350578
4127358635
4127362969
4127371330
4127377861
4127383232
4127391655
4127399895
4127408134
4127414726
4127421013
4127428032
4127433281
4127443718
4127448784
4127456230
4127463249
4127472099
4127482902
4127488823
4127495415
4127500847
4127510612
4127518669
4127525871
4127533317
4127543022
4127550163
4127557365
4127564323
4127566887
4127575920
4127579643
4127586784
4127591728
4127598930
4127602409
4127609855
4127613273
4127619377
4127623832
4127630729
4127636161
4127642326
4127646964
4127653434
4127657707
4127662711
4127668449
4127671806
4127679191
4127686698
4127691520
4127694999
4127702750
4127706107
4127712760
4127717643
4127723441
4127728812
4127736137
4127741080
4127746024
4127752738
4127758964
4127764579
4127771659
4127776847
4127785331
4127790824
4127796561
4127801383
4127806388
4127812797
4127816459
4127823478
4127831229
4127836173
4127841605
4127848197
4127853873
4127861625
4127865592
4127873465
4127880606
4127886161
4127890433
4127898856
4127902762
4127908805
4127912955
4127920096
4127925955
4127931449
4127936637
4127942557
4127947684
4127953543
4127958426
4127964041
4127969168
4127975272
4127985465
4127990714
4127996573
4128002798
4128007864
4128013663
4128021719
4128026236
4128031790
4128036124
4128042166
4128046866
4128053030
4128057669
4128063650
4128069937
4128074515
4128080862
4128085745
4128091482
4128097037
4128101309
4128105215
4128113516
4128120230
4128126639
4128132254
4128141287
4128145803
4128151785
4128157644
4128162771
4128167593
4128172842
4128178762
4128182974
4128187918
4128194082
4128201345
4128206228
4128212149
4128217703
4128222280
4128227896
4128231191
4128237783
4128241812
4128248770
4128253774
4128258962
4128263479
4128269644
4128273794
4128280264
4128285024
4128291738
4128297964
4128303823
4128308218
4128313528
4128319753
4128325368
4128329763
4128339284
4128344350
4128348073
4128355459
4128360769
4128365896
4128370779
4128376516
4128381582
4128389028
4128394338
4128401174
4128406240
4128413503
4128418081
4128421682
4128429738
4128433767
4128440969
4128446767
4128452626
4128457631
4128464284
4128470510
4128472585
4128480642
4128487050
4128496450
4128502248
4128507802
4128512441
4128517751
4128524159
4128530080
4128536489
4128542470
4128544301
4128553090
4128559194
4128562917
4128567799
4128575734
4128579762
4128588063
4128593922
4128599171
4128603871
4128609975
4128614369
4128619923
4128624379
4128633290
4128637929
4128644032
4128648732
4128655202
4128659657
4128665578
4128669972
4128673573
4128682301
4128686452
4128693593
4128697072
4128704640
4128710255
4128716786
4128721547
4128728810
4128735402
4128741017
4128747120
4128751210
4128757557
4128762196
4128766529
4128773793
4128778492
4128783192
4128788929
4128793568
4128799366
4128802662
4128810169
4128813832
4128819935
4128825611
4128831593
4128835560
4128843311
4128846974
4128854054
4128860829
4128866932
4128870777
4128877674
4128881641
4128890186
4128893971
4128901966
4128907337
4128911488
4128918812
4128923634
4128930225
4128936390
4128942127
4128946949
4128952442
4128959217
4128964222
4128969898
4128975330
4128981312
4128985950
4128992786
4128997669
4129003895
4129010486
4129015491
4129020130
4129026172
4129031482
4129036731
4129042286
4129052478
4129059925
4129064624
4129071643
4129076709
4129084522
4129090137
4129097156
4129102832
4129110156
4129116199
4129120777
4129126026
4129132556
4129137012
4129142200
4129146961
4129154407
4129161487
4129167712
4129174304
4129180530
4129188098
4129194019
4129199634
4129206470
4129211536
4129219226
4129222888
4129231067
4129236133
4129242786
4129248584
4129255054
4129260242
4129265430
4129269946
4129275928
4129281177
4129286975
4129293445
4129300830
4129310046
4129314563
4129318286
4129326770
4129334277
4129338244
4129346057
4129350146
4129353442
4129360888
4129364306
4129370715
4129376818
4129381030
4129386706
4129394396
4129397631
4129404650
4129410937
4129415393
4129418810
4129426318
4129430895
4129442614
4129446887
4129452685
4129458544
4129463854
4129468737
4129474719
4129482165
4129486620
4129492663
4129498583
4129503710
4129509997
4129516222
4129521960
4129527758
4129533678
4129538500
4129544054
4129547961
4129553942
4129559313
4129564928
4129570727
4129578295
4129583544
4129588976
4129593737
4129600084
4129604906
4129614184
4129620531
4129630785
4129636339
4129641649
4129647264
4129653002
4129659105
4129664843
4129669481
4129675035
4129679674
4129685167
4129690477
4129696092
4129701158
4129705675
4129714403
4129719286
4129724047
4129729784
4129735277
4129739733
4129746385
4129751390
4129758409
4129766405
4129772386
4129776720
4129783006
4129788622
4129793932
4129798143
4129806261
4129810716
4129817003
4129821458
4129825426
4129834459
4129841661
4129846605
4129852647
4129856676
4129862718
4129868211
4129871751
4129880235
4129886827
4129893541
4129901536
4129907701
4129913865
4129917833
4129923692
4129928270
4129933702
4129939317
4129945176
4129949876
4129956041
4129961045
4129967271
4129972215
4129977891
4129984422
4129989122
4129993943
4130000901
4130007859
4130014207
4130021409
4130027146
4130032395
4130037888
4130042405
4130048692
4130054551
4130058701
4130064988
4130069627
4130074387
4130081467
4130086228
4130091721
4130097520
4130102708
4130107041
4130110337
4130118211
4130124863
4130129563
4130135789
4130140305
4130145127
4130150986
4130155747
4130160630
4130165391
4130172104
4130178879
4130182969
4130189011
4130193223
4130199570
4130204148
4130210557
4130215928
4130224228
4130227890
4130234421
4130239792
4130245896
4130250534
4130256882
4130261826
4130270188
4130277329
4130281906
4130286179
4130292588
4130298569
4130303391
4130308335
4130317246
4130322678
4130329392
4130334824
4130343125
4130348984
4130352890
4130360825
4130364731
4130371201
4130376389
4130382248
4130387619
4130394272
4130399948
4130405014
4130409775
4130416550
4130421493
4130427597
4130431930
4130438644
4130442795
4130447800
4130452621
4130460434
4130466720
4130474594
4130481857
4130487106
4130494125
4130498886
4130504928
4130510971
4130517196
4130521286
4130527755
4130531967
4130538192
4130542648
4130550766
4130555587
4130562057
4130567672
4130573715
4130578048
4130584030
4130588485
4130592147
4130599960
4130603622
4130609542
4130614242
4130620468
4130625289
4130631515
4130637130
4130644454
4130649520
4130654830
4130659286
4130664108
4130669845
4130675399
4130680038
4130686080
4130692001
4130697128
4130701888
4130707198
4130713851
4130719039
4130724471
4130729232
4130735885
4130740768
4130747298
4130752120
4130758163
4130762618
4130765914
4130774886
4130781539
4130787398
4130794417
4130799605
4130805648
4130811873
4130817672
4130822493
4130828902
4130835372
4130840743
4130847274
4130852217
4130858687
4130863387
4130866988
4130874922
4130880049
4130888106
4130892195
4130899642
4130905928
4130911421
4130916060
4130921736
4130929488
4130935835
4130942671
4130948103
4130952376
4130958357
4130964156
4130968672
4130974471
4130981490
4130986006
4130991133
4130997603
4131002669
4131007002
4131012007
4131018599
4131024153
4131031172
4131036665
4131041304
4131046614
4131053999
4131059553
4131063704
4131073713
4131079207
4131087874
4131093001
4131097700
4131103865
4131108625
4131114363
4131119612
4131126082
4131131331
4131136824
4131141706
4131147444
4131151777
4131158125
4131162519
4131170393
4131176374
4131181562
4131185957
4131191816
4131196150
4131202131
4131206404
4131212507
4131219953
4131223554
4131229719
4131234419
4131240827
4131245039
4131251692
4131256330
4131263776
4131269880
4131274213
4131280622
4131285688
4131292890
4131296491
4131303693
4131310651
4131317121
4131322919
4131328229
4131333295
4131340497
4131346662
4131348737
4131357465
4131363874
4131368696
4131371869
4131380658
4131384443
4131390668
4131395856
4131403119
4131406476
4131413739
4131418622
4131425885
4131430585
4131436444
4131440900
4131446637
4131452436
4131458478
4131462873
4131466413
4131474469
4131478192
4131484418
4131489240
4131495771
4131500592
4131508893
4131517194
4131523908
4131532269
4131538617
4131547711
4131556439
4131564496
4131573407
4131580853
4131587994
4131593060
4131599164
4131603802
4131608014
4131613385
4131617779
4131622845
4131626813
4131631940
4131636090
4131640118
4131646405
4131652386
4131658185
4131663861
4131670392
4131676678
4131683209
4131689129
4131693524
4131698712
4131702557
4131706891
4131710431
4131716229
4131719647
4131725445
4131730755
4131735821
4131739788
4131744610
4131750103
4131754010
4131760601
4131764630
4131769635
4131773663
4131779339
4131784893
4131788372
4131795391
4131800152
4131805157
4131811321
4131816876
4131820782
4131826519
4131831646
4131837444
4131842999
4131848003
4131854229
4131858318
4131863628
4131867779
4131875774
4131880901
4131887188
4131891155
4131896221
4131900555
4131907391
4131913189
4131918255
4131923565
4131927471
4131933391
4131938396
4131943462
4131949505
4131956463
4131961223
4131965496
4131973125
4131977642
4131982464
4131988811
4131994976
4132000652
4132003399
4132010601
4132016399
4132020427
4132027019
4132033184
4132039470
4132044231
4132051860
4132056743
4132061138
4132069194
4132073162
4132078838
4132084880
4132090984
4132095256
4132101299
4132105510
4132111186
4132117046
4132118816
4132127483
4132131023
4132138164
4132143230
4132151286
4132155742
4132164043
4132171245
4132176921
4132181560
4132187663
4132192424
4132198405
4132203899
4132208659
4132213603
4132219157
4132223430
4132229045
4132233317
4132237651
4132244914
4132249675
4132256938
4132261210
4132266765
4132272441
4132276408
4132282145
4132288981
4132294902
4132300578
4132306193
4132312053
4132316508
4132323100
4132329692
4132334575
4132338725
4132345134
4132350627
4132355693
4132361308
4132366679
4132372355
4132379374
4132383952
4132387553
4132395060
4132398234
4132404704
4132409587
4132415690
4132421000
4132426615
4132431864
4132437602
4132442362
4132446757
4132452555
4132458231
4132462870
4132472453
4132477457
4132481181
4132488200
4132493449
4132499796
4132505106
4132511088
4132516215
4132522257
4132527506
4132534830
4132540201
4132546976
4132551554
4132555216
4132562845
4132568583
4132573954
4132579691
4132587687
4132593485
4132598673
4132605082
4132607218
4132617411
4132623270
4132629862
4132635294
4132641397
4132646830
4132651285
4132655252
4132662210
4132666300
4132675272
4132679300
4132686685
4132690164
4132696939
4132702371
4132707376
4132711954
4132720255
4132726907
4132736551
4132738809
4132748026
4132751260
4132757303
4132764017
4132771707
4132775735
4132781595
4132786417
4132792825
4132797464
4132803323
4132807901
4132815469
4132820291
4132825601
4132831277
4132836954
4132841226
4132844522
4132852395
4132856119
4132864053
4132867654
4132874185
4132878885
4132884378
4132888589
4132894510
4132899026
4132906289
4132910867
4132916238
4132922403
4132928506
4132933267
4132937051
4132944497
4132948526
4132956826
4132962442
4132969033
4132974710
4132979837
4132986856
4132992166
4132997109
4133005349
4133012246
4133015786
4133021646
4133027017
4133033608
4133039040
4133045327
4133050393
4133058022
4133063149
4133069436
4133075967
4133082009
4133086709
4133092751
4133099343
4133106667
4133113381
4133118081
4133125100
4133129250
4133136574
4133141701
4133147194
4133152260
4133159829
4133165200
4133171608
4133176552
4133180581
4133189492
4133193215
4133199807
4133205605
4133213417
4133218789
4133224892
4133230568
4133238137
4133243569
4133249062
4133255593
4133262917
4133268837
4133274086
4133279396
4133283119
4133289650
4133294411
4133300331
4133305580
4133312050
4133317299
4133322853
4133327797
4133334267
4133339028
4133345863
4133352943
4133360756
4133368263
4133373878
4133380531
4133382545
4133390358
4133394020
4133400856
4133405067
4133413063
4133416786
4133424110
4133428932
4133434120
4133438331
4133444008
4133448280
4133455604
4133460182
4133465980
4133472999
4133477333
4133482887
4133486183
4133493568
4133499855
4133505470
4133509376
4133516517
4133521644
4133527320
4133532203
4133538673
4133543434
4133551490
4133556129
4133561927
4133567176
4133574012
4133578773
4133584083
4133590919
4133597145
4133602699
4133607459
4133613502
4133617713
4133624000
4133628517
4133634254
4133640662
4133646888
4133651771
4133655494
4133662635
4133667335
4133673133
4133678382
4133683753
4133691810
4133699500
4133704871
4133709510
4133716468
4133722327
4133727027
4133730567
4133739051
4133743690
4133751441
4133757239
4133762366
4133767554
4133774512
4133779334
4133785071
4133791480
4133799109
4133804480
4133808020
4133816138
4133820288
4133827613
4133833350
4133840125
4133845801
4133853186
4133860633
4133866797
4133875281
4133881873
4133887549
4133894690
4133899939
4133907813
4133912695
4133919165
4133925269
4133931067
4133935645
4133942420
4133947058
4133951209
4133960181
4133966895
4133972266
4133976721
4133983679
4133989416
4133996252
4134001440
4134007544
4134012732
4134019568
4134024390
4134029150
4134033423
4134039587
4134043921
4134052588
4134056982
4134061743
4134067480
4134070898
4134077612
4134080908
4134088781
4134092688
4134105017
4134110937
4134116247
4134121130
4134127111
4134131750
4134137976
4134144445
4134151647
4134156835
4134162695
4134169104
4134174475
4134179113
4134184362
4134190588
4134196142
4134201635
4134208471
4134213476
4134218237
4134224645
4134229040
4134234533
4134240392
4134247289
4134251928
4134258520
4134263219
4134266821
4134274267
4134277807
4134285192
4134288976
4134296300
4134300329
4134307409
4134313024
4134319860
4134324743
4134330419
4134337072
4134345922
4134351110
4134356908
4134362035
4134366124
4134374242
4134377904
4134384862
4134391515
4134398290
4134404454
4134409765
4134415075
4134421422
4134427587
4134432470
4134438695
4134442784
4134450597
4134458043
4134463048
4134468724
4134474279
4134479222
4134485814
4134490636
4134500890
4134505773
4134511632
4134518712
4134524449
4134529149
4134532750
4134541356
4134545384
4134554784
4134558751
4134566685
4134572545
4134577245
4134582188
4134588902
4134596104
4134603612
4134609898
4134615941
4134620518
4134626622
4134633092
4134638157
4134642613
4134649144
4134654027
4134658970
4134664830
4134670140
4134675877
4134680943
4134685338
4134691014
4134698460
4134702305
4134709263
4134714146
4134720250
4134725010
4134729710
4134734654
4134743321
4134748875
4134756199
4134761082
4134765232
4134772923
4134776585
4134783482
4134788853
4134795567
4134798802
4134805821
4134810581
4134816502
4134821201
4134826511
4134832798
4134840489
4134845676
4134849400
4134857273
4134860996
4134867832
4134873264
4134879551
4134885166
4134889927
4134895969
4134898106
4134907017
4134911716
4134917881
4134921604
4134928684
4134934543
4134940708
4134944736
4134951023
4134956394
4134961094
4134967563
4134973301
4134979526
4134986606
4134991306
4134996860
4135003208
4135006931
4135014072
4135019504
4135024570
4135029514
4135037815
4135042514
4135049045
4135053806
4135060581
4135064914
4135071933
4135077121
4135085422
4135092136
4135098117
4135103122
4135110324
4135114902
4135119113
4135128513
4135132541
4135139499
4135145175
4135150668
4135158298
4135163425
4135168063
4135175388
4135180270
4135186984
4135193576
4135199679
4135206760
4135212314
4135219211
4135225192
4135230929
4135240268
4135244845
4135251498
4135255832
4135262546
4135268649
4135274569
4135279147
4135286776
4135291232
4135296359
4135302401
4135307406
4135313205
4135316562
4135322909
4135326388
4135334811
4135338717
4135345614
4135350253
4135355685
4135360324
4135366366
4135371737
4135378268
4135383212
4135389437
4135393771
4135399935
4135404879
4135408419
4135415743
4135422274
4135428744
4135434725
4135441073
4135446322
4135452670
4135457735
4135463473
4135469881
4135476351
4135482882
4135488253
4135493197
4135500765
4135505343
4135508944
4135516573
4135520540
4135527926
4135533602
4135539095
4135544161
4135550753
4135556917
4135562838
4135567659
4135573885
4135580416
4135586886
4135592012
4135595980
4135603548
4135608980
4135613680
4135618380
4135626680
4135631868
4135637117
4135643770
4135649691
4135654329
4135659456
4135665377
4135671114
4135678804
4135684542
4135690340
4135696932
4135702059
4135708528
4135713899
4135721040
4135727571
4135734346
4135740083
4135745088
4135751619
4135758211
4135762178
4135769075
4135774812
4135780550
4135786104
4135792940
4135798128
4135804475
4135809602
4135816804
4135821748
4135826875
4135837434
4135842256
4135850923
4135854829
4135862459
4135866365
4135874788
4135880037
4135885774
4135891633
4135897737
4135903535
4135908113
4135914766
4135919404
4135926606
4135931611
4135937287
4135943086
4135944917
4135952485
4135955659
4135962922
4135967927
4135973298
4135978425
4135985383
4135990449
4135996675
4136001435
4136007111
4136013581
4136019135
4136024140
4136031464
4136036042
4136039826
4136046174
4136049470
4136056672
4136062897
4136067475
4136072541
4136078645
4136083100
4136088959
4136093171
4136099457
4136103608
4136107880
4136116974
4136122162
4136128266
4136132905
4136141205
4136147492
4136154328
4136162507
4136168122
4136174225
4136180146
4136182038
4136189911
4136193207
4136199250
4136204132
4136210724
4136216034
4136222199
4136227326
4136232575
4136236725
4136242829
4136247162
4136255768
4136260712
4136266937
4136272858
4136277008
4136283173
4136286835
4136294220
4136300446
4136307648
4136313568
4136319306
4136325165
4136329681
4136335480
4136339630
4136348236
4136353241
4136357452
4136361664
4136366730
4136372406
4136377594
4136381622
4136387726
4136395294
4136404144
4136409942
4136417206
4136423675
4136433624
4136438446
4136445343
4136448944
4136454925
4136459137
4136463653
4136468719
4136475250
4136480377
4136486541
4136491790
4136495880
4136502044
4136507171
4136513885
4136517425
4136524627
4136529388
4136533355
4136541107
4136544830
4136551116
4136555206
4136562103
4136567718
4136572723
4136577423
4136583160
4136589691
4136593536
4136601226
4136605560
4136610442
4136615875
4136620635
4136628631
4136632476
4136640899
4136647552
4136651824
4136656829
4136662200
4136669036
4136675201
4136681182
4136687041
4136690398
4136696136
4136702972
4136708709
4136713286
4136720733
4136724456
4136729705
4136734221
4136741973
4136748382
4136754973
4136759795
4136770720
4136775969
4136780852
4136785857
4136791045
4136795745
4136803313
4136808257
4136813323
4136819304
4136823699
4136827910
4136836272
4136841948
4136846709
4136850493
4136858367
4136861724
4136868132
4136873686
4136880278
4136885710
4136890898
4136895354
4136901213
4136906218
4136913054
4136919280
4136925078
4136929778
4136937651
4136942961
4136948637
4136953703
4136959135
4136964201
4136969572
4136975005
4136980620
4136985503
4136990691
4136996184
4137000090
4137007902
4137013823
4137015898
4137023466
4137028227
4137032011
4137035124
4137041838
4137048552
4137053923
4137058684
4137064055
4137067045
4137072966
4137077238
4137083220
4137088347
4137093473
4137099089
4137105375
4137109953
4137115812
4137120268
4137125944
4137130155
4137137724
4137142240
4137148405
4137154569
4137157682
4137166166
4137169340
4137175627
4137180876
4137187162
4137192350
4137197782
4137202421
4137208219
4137213712
4137218107
4137223844
4137230924
4137235685
4137242277
4137247160
4137253385
4137257719
4137262418
4137267850
4137273160
4137280668
4137285795
4137291715
4137296598
4137302640
4137308805
4137313688
4137317838
4137326139
4137332609
4137337552
4137344083
4137350126
4137354215
4137358304
4137365629
4137371183
4137377836
4137384671
4137389554
4137394376
4137399747
4137404020
4137410794
4137415433
4137422635
4137429349
4137434293
4137438871
4137445462
4137449674
4137454679
4137460355
4137464017
4137471341
4137475247
4137483426
4137487271
4137494351
4137499417
4137505643
4137510526
4137517789
4137520963
4137527188
4137532620
4137537686
4137540677
4137547025
4137550809
4137558255
4137561734
4137568814
4137571805
4137578091
4137582425
4137587735
4137592679
4137599515
4137604275
4137610013
4137614346
4137620022
4137624356
4137629056
4137635464
4137642788
4137647976
4137653653
4137657925
4137664456
4137668728
4137673489
4137679104
4137685025
4137689541
4137696804
4137701504
4137704800
4137711819
4137715176
4137721402
4137726651
4137734158
4137739651
4137745755
4137752224
4137756802
4137761074
4137767361
4137771511
4137777676
4137782253
4137789211
4137793789
4137797512
4137804714
4137807949
4137814175
4137819790
4137825283
4137831509
4137839382
4137844692
4137848660
4137855068
4137859280
4137864895
4137871365
4137877590
4137879909
4137888027
4137891628
4137898586
4137901882
4137908474
4137913601
4137923000
4137926845
4137933803
4137938991
4137944912
4137951259
4137956814
4137961025
4137969753
4137975124
4137981655
4137986538
4137990078
4137997707
4138001247
4138007167
4138012416
4138019008
4138024318
4138031337
4138036586
4138041591
4138046291
4138051479
4138055934
4138064968
4138069972
4138076503
4138082790
4138088161
4138093105
4138099269
4138104030
4138108913
4138113979
4138120509
4138124782
4138129359
4138134914
4138139369
4138143092
4138151149
4138155421
4138161159
4138166103
4138171352
4138175319
4138180629
4138185084
4138188991
4138197230
4138201686
4138209010
4138212306
4138218165
4138222682
4138227992
4138234767
4138243373
4138248683
4138254970
4138260341
4138265895
4138270045
4138275538
4138279933
4138284877
4138293605
4138299830
4138304469
4138308253
4138314967
4138320277
4138324855
4138329127
4138338954
4138345668
4138350489
4138355067
4138361720
4138367335
4138372767
4138377284
4138382899
4138388636
4138394496
4138400416
4138406397
4138411036
4138415125
4138423426
4138433253
4138439478
4138444056
4138452235
4138459437
4138467371
4138474512
4138482569
4138489100
4138495203
4138505457
4138509913
4138517786
4138524439
4138528956
4138536402
4138542627
4138551722
4138557947
4138563807
4138575342
4138580957
4138590052
4138594873
4138603479
4138609766
4138614222
4138623926
4138629297
4138638574
4138645288
4138651392
4138656702
4138662012
4138667688
4138674280
4138681726
4138688257
4138695886
4138703027
4138708704
4138718652
4138722925
4138731348
4138739038
4138743860
4138754236
4138762476
4138771326
4138778894
4138786096
4138792444
4138798608
4138804162
4138808557
4138818384
4138824609
4138829980
4138836450
4138844018
4138850549
4138858545
4138865747
4138873132
4138879541
4138888391
4138894433
4138902307
4138908349
4138912988
4138921533
4138925134
4138932946
4138939233
4138945031
4138955651
4138960839
4138967858
4138974145
4138981408
4138987756
4138994653
4138999780
4139006066
4139016564
4139023522
4139028344
4139035485
4139041894
4139049523
4139055749
4139060693
4139068627
4139075036
4139085717
4139092675
4139097314
4139104638
4139112816
4139120751
4139126732
4139133080
4139139550
4139146874
4139155541
4139163231
4139170433
4139176720
4139183556
4139189782
4139196617
4139202050
4139208458
4139214318
4139225792
4139230797
4139239647
4139246056
4139252892
4139258934
4139264855
4139271996
4139277428
4139285851
4139293419
4139301476
4139307579
4139310265
4139319786
4139326561
4139333824
4139340050
4139347862
4139353844
4139362572
4139368736
4139375877
4139382225
4139388512
4139395164
4139404869
4139413963
4139423424
4139427025
4139438560
4139446800
4139454002
4139459068
4139469078
4139473472
4139486168
4139497093
4139503929
4139509849
4139518028
4139525291
4139531028
4139537986
4139549888
4139558311
4139568015
4139573203
4139582298
4139588340
4139596275
4139603599
4139611472
4139617759
4139624900
4139630515
4139637595
4139643943
4139650779
4139657004
4139662925
4139695884
4139701011
4139708213
4139714866
4139720664
4139729087
4139736350
4139742637
4139750327
4139757468
4139763694
4139769004
4139774680
4139782004
4139787864
4139797141
4139803488
4139810630
4139817466
4139824423
4139830283
4139834433
4139842551
4139850546
4139859519
4139865134
4139872641
4139878501
4139887961
4139892966
4139900473
4139908408
4139917624
4139923788
4139931479
4139940024
4139943259
4139953207
4139958395
4139968771
4139974264
4139982443
4139990317
4139998190
4140004904
4140012289
4140018942
4140026938
4140033224
4140042685
4140049399
4140054464
4140064596
4140069723
4140079428
4140086996
4140094564
4140104452
4140111837
4140118795
4140128378
4140135641
4140141073
4140150961
4140156759
4140166830
4140176168
4140185507
4140193868
4140202230
4140210409
4140213522
4140226217
4140231954
4140239095
4140246114
4140256734
4140265218
4140267904
4140277669
4140285116
4140292989
4140300191
4140303426
4140314657
4140320699
4140328389
4140335470
4140344442
4140351278
4140358663
4140366597
4140374654
4140380819
4140389730
4140394063
4140407247
4140413838
4140418721
4140422811
4140429647
4140435079
4140441365
4140447225
4140454427
4140461629
4140469197
4140473226
4140480672
4140484090
4140490010
4140494344
4140501912
4140506978
4140513142
4140517903
4140522603
4140528828
4140533894
4140538289
4140545186
4140549641
4140556477
4140560872
4140566609
4140570943
4140575581
4140582722
4140586262
4140592915
4140596333
4140603901
4140610737
4140617085
4140620564
4140627766
4140634663
4140639485
4140643208
4140651631
4140658406
4140662922
4140666462
4140673726
4140679219
4140686848
4140693257
4140699055
4140702473
4140708760
4140713703
4140720051
4140724873
4140737324
4140742756
4140747578
4140752278
4140757405
4140765095
4140770161
4140775288
4140784626
4140790180
4140795612
4140799763
4140806110
4140810505
4140815815
4140819904
4140823444
4140831562
4140839252
4140845661
4140851154
4140856281
4140862018
4140867573
4140874470
4140880268
4140886738
4140891132
4140895649
4140901142
4140905170
4140910358
4140916096
4140922931
4140927265
4140932392
4140937763
4140941486
4140944538
4140953449
4140959674
4140965595
4140972370
4140978046
4140986103
4140991046
4140998066
4141001483
4141009357
4141013202
4141019367
4141024066
4141029926
4141034137
4141040058
4141046283
4141054035
4141058612
4141065021
4141069660
4141076618
4141081744
4141088092
4141091693
4141095233
4141102618
4141106281
4141113605
