1073639219
1073723142
1078432114
1078522873
1078663498
1078790146
1078903426
1078929916
1078953963
1078977584
1079000716
1079088301
1079190047
1079210555
1079709882
1080448650
1080752360
1081007059
1081165017
1081294412
1081395241
1081658302
1082042273
1082451086
1082555944
1082614782
1082904576
1083172825
1083578891
1083703951
1084062166
1084553497
1084765899
1084961394
1085044524
1085236601
1085331144
1085713834
1085808133
1086046841
1086643458
1087376610
1087899192
1088300253
1088504537
1088869771
1089633196
1089846331
1090059038
1090151322
1090458084
1090477982
1090497818
1090523026
1090537857
1090547562
1090556229
1090563797
1090573563
1090581192
1090589676
1090597427
1090605667
1090612808
1090620865
1090629349
1090637344
1090646316
1090653763
1090662124
1090669571
1090678238
1090685440
1090692764
1090701370
1090708816
1090715408
1090722854
1090731277
1090741043
1090754898
1090780593
1090804275
1090824966
1090843642
1090862075
1090872695
1090887466
1090895461
1090904006
1090912368
1090920608
1090928664
1090936965
1090945571
1090951491
1090960952
1090966933
1090977187
1090995620
1091016799
1091036757
1091062697
1091089003
1091110426
1091130263
1091154433
1091177016
1091200148
1091221327
1091243910
1091264784
1091299452
1091320265
1091339125
1091353590
1091385755
1091404554
1091424818
1091458875
1091516981
1091541089
1091565381
1091590467
1091626477
1091674451
1091700818
1091729260
1091757520
1091779065
1091802014
1091826733
1091851819
1091874524
1091898510
1091933361
1091954968
1091988720
1092010265
1092029858
1092052685
1092074047
1092099926
1092124218
1092147899
1092170604
1092191661
1092212291
1092235424
1092258190
1092283031
1092306346
1092404918
1092433604
1092608286
1092636729
1092664011
1092687388
1092713022
1092762949
1092816721
1092849314
1092867746
1092883920
1092901926
1092922311
1092942392
1092960886
1092976755
1092993234
1093015024
1093038278
1093063791
1093086984
1093110604
1093148507
1093173532
1093197030
1093220651
1093242806
1093628547
1094201361
1094887516
1094935307
1095102238
1095280887
1095547854
1095756716
1095870241
1096318970
1096690307
1096723571
1096749755
1096835815
1096856750
1098086971
1100913136
1101586535
1101946336
1102233445
1102847213
1103278547
1104481791
1105875525
1106765843
1107151584
1107567477
1107666231
1107722322
1107744356
1107771578
1107790621
1107805269
1107819124
1107834322
1107846468
1107859468
1107871858
1107884676
1107902498
1107923921
1107942659
1107954927
1107968477
1107979585
1107990876
1108001558
1108015962
1108026521
1108037507
1108051301
1108062043
1108072358
1108083711
1108093354
1108104768
1108113801
1108124299
1108135041
1108144990
1108153596
1108164765
1108174103
1108183015
1108194184
1108204621
1108214631
1108225617
1108235016
1108243012
1108252961
1108264557
1108274750
1108282135
1108294281
1108304657
1108312714
1108322602
1108334626
1108343598
1108355194
1108366059
1108373566
1108383820
1108392670
1108405975
1108415192
1108423920
1108432892
1108442535
1108453949
1108461578
1108473602
1108482330
1108492584
1108501068
1108509491
1108519012
1108529693
1108542633
1108551361
1108562774
1108571869
1108582367
1108592620
1108600311
1108617157
1108635650
1108658843
1108681548
1108692413
1108703155
1108711639
1108719451
1108726653
1108734283
1108740691
1108748443
1108756744
1108764068
1108771514
1108778655
1108786590
1108793059
1108800689
1108808562
1108815764
1108823394
1108830047
1108837127
1108843780
1108852508
1108860503
1108869475
1108876006
1108884185
1108890593
1108895720
1108903960
1108911772
1108919646
1108927153
1108934172
1108940520
1108946562
1108956572
1108964507
1108969573
1108978362
1108987212
1108995635
1109001250
1109009245
1109017851
1109025786
1109032011
1109039946
1109045683
1109053618
1109059538
1109069548
1109077910
1109083952
1109094328
1109101469
1109108549
1109115446
1109125090
1109131560
1109140227
1109148405
1109154509
1109161345
1109169645
1109176481
1109184843
1109192839
1109198698
1109208464
1109214506
1109221769
1109230863
1109240873
1109246855
1109256315
1109263944
1109270719
1109278349
1109286894
1109292753
1109301237
1109307951
1109315946
1109323698
1109329130
1109338773
1109343961
1109352323
1109360441
1109367765
1109376859
1109383756
1109390104
1109397489
1109404508
1109413419
1109420560
1109427396
1109434171
1109443021
1109448942
1109455777
1109462858
1109471341
1109479581
1109485685
1109492398
1109500028
1109508329
1109513333
1109520841
1109528897
1109537686
1109543912
1109550321
1109556058
1109566800
1109574796
1109581754
1109588895
1109597073
1109605618
1109613248
1109620084
1109626431
1109637906
1109644925
1109653592
1109660367
1109665738
1109673672
1109680264
1109689603
1109694852
1109703030
1109709561
1109716885
1109724026
1109729580
1109738431
1109745205
1109752896
1109760098
1109767239
1109775784
1109783535
1109791653
1109799221
1109806912
1109815396
1109821072
1109828823
1109840725
1109852383
1109865872
1109879177
1109887478
1109894924
1109904690
1109912441
1109921108
1109928860
1109936428
1109943325
1109951382
1109958767
1109967068
1109975613
1109982876
1109989773
1109997585
1110005764
1110013881
1110021206
1110028713
1110035366
1110042629
1110049587
1110057705
1110065639
1110073146
1110079921
1110085353
1110092800
1110100612
1110107570
1110116115
1110122280
1110128505
1110136440
1110142421
1110150295
1110157863
1110164821
1110172206
1110179775
1110187648
1110195461
1110201991
1110210048
1110219936
1110226161
1110233974
1110242335
1110247523
1110255580
1110262965
1110271449
1110277309
1110285060
1110293117
1110299708
1110307887
1110314845
1110322352
1110333705
1110340602
1110349269
1110356471
1110362635
1110370021
1110378993
1110385707
1110393153
1110400843
1110407191
1110416407
1110429835
1110441432
1110456751
1110466822
1110474940
1110482081
1110491908
1110499903
1110507716
1110514613
1110521937
1110529383
1110536707
1110544215
1110552637
1110559840
1110566981
1110573756
1110581812
1110588892
1110596644
1110603419
1110610254
1110617640
1110623926
1110631189
1110639185
1110647120
1110652735
1110662073
1110667200
1110675318
1110683619
1110690516
1110697535
1110704004
1110710169
1110719263
1110726404
1110732202
1110738733
1110746118
1110753504
1110759424
1110766687
1110778467
1110787439
1110795557
1110802149
1110808618
1110815393
1110823511
1110831384
1110838037
1110845850
1110852563
1110860132
1110865381
1110872827
1110880762
1110888696
1110895776
1110900903
1110910608
1110916589
1110922998
1110930383
1110939416
1110945703
1110952234
1110959436
1110965783
1110972985
1110979577
1110987817
1110994348
1111003015
1111009484
1111015344
1111023156
1111029382
1111037011
1111042871
1111052758
1111059716
1111065026
1111073022
1111080529
1111087182
1111094628
1111103539
1111109277
1111117761
1111125634
1111133385
1111141930
1111150658
1111166222
1111177758
1111185448
1111194359
1111201439
1111209618
1111220055
1111230980
1111241723
1111250390
1111259240
1111267357
1111274620
1111283104
1111290429
1111297448
1111304589
1111311364
1111318077
1111324669
1111332299
1111339684
1111345360
1111352074
1111358360
1111365379
1111371971
1111378441
1111385277
1111390770
1111396019
1111402489
1111409325
1111415916
1111421715
1111428185
1111434593
1111442039
1111448448
1111458885
1111463280
1111472801
1111479088
1111486290
1111493736
1111501732
1111509178
1111515098
1111521934
1111529564
1111537010
1111545799
1111552879
1111560875
1111570335
1111577415
1111585716
1111592063
1111600059
1111606102
1111615623
1111622337
1111629356
1111635765
1111642539
1111652061
1111658714
1111666343
1111672752
1111678916
1111686179
1111694846
1111701804
1111720481
1111739768
1111755698
1111774314
1111805564
1111825950
1111846579
1111866721
1111887534
1111908408
1111924704
1111939902
1111960654
1111978720
1112002707
1112024374
1112042441
1112064230
1112076315
1112089071
1112110190
1112131064
1112154501
1112170248
1112183615
1112205526
1112225790
1112245687
1112265341
1112280050
1112293050
1112315023
1112338766
1112357625
1112386251
1112409139
1112431539
1112446798
1112457967
1112467488
1112480001
1112488607
1112495137
1112501546
1112508809
1112515096
1112521504
1112527913
1112534688
1112541463
1112548177
1112554402
1112560994
1112567403
1112572896
1112579549
1112592366
1112599934
1112604390
1112611958
1112618794
1112624715
1112632649
1112640767
1112646382
1112653950
1112659749
1112672444
1112683919
1112696492
1112711934
1112728535
1112739827
1112749836
1112763020
1112774556
1112784382
1112792805
1112801411
1112810627
1112818501
1112834736
1112902241
1112919636
1112935139
1112949665
1112969684
1112987324
1113003620
1113018451
1113034198
1113049579
1113069233
1113187457
1113215472
1113237994
1113260455
1113281756
1113301654
1113319110
1113335772
1113350665
1113367816
1113381488
1113398516
1113415362
1113433673
1113448565
1113462786
1113477496
1113492999
1113514056
1113530779
1113546892
1113570147
1113588091
1113607195
1113621050
1113634417
1113653704
1113666826
1113679949
1113692888
1113707048
1113721758
1113735491
1113748613
1113762712
1113775896
1113788896
1113802995
1113815813
1113829118
1113842424
1113854753
1113869951
1113881975
1113895891
1113909379
1113922258
1113945878
1113958513
1113971574
1113985734
1113999833
1114015092
1114029008
1114041886
1114054887
1114070023
1114084916
1114098344
1114111832
1114124711
1114138383
1114150773
1114167069
1114190507
1114218400
1114244889
1114272904
1114300003
1114517349
1114677261
1114704055
1114759658
1114788161
1114853164
1115349988
1115365003
1115377759
1115393384
1115406080
1115421399
1115434522
1115448682
1115462964
1115476331
1115488477
1115502149
1115516553
1115530103
1115543775
1115555310
1115570447
1115584119
1115597302
1115610730
1115623181
1115638379
1115651929
1115665417
1115678052
1115691418
1115703381
1115717785
1115731884
1115744397
1115757519
1115770642
1115784680
1115799633
1115812939
1115826733
1115842175
1115855908
1115869030
1115883678
1115898937
1115911571
1115931469
1115954479
1115980846
1116161571
1116177440
1116199229
1116218333
1116238658
1116258861
1116278331
1116298839
1116316783
1116337962
1116358042
1116379527
1116402659
1116427439
1116461985
1116481211
1116499949
1116516001
1116537791
1116559275
1116581431
1116600718
1116614328
1116633310
1116656443
1116672251
1116694651
1116714182
1116732492
1116754892
1116778085
1116801035
1116824533
1116877145
1116909555
1116934457
1116956063
1116972665
1116987802
1117002694
1117015267
1117027230
1117038339
1117049935
1117059701
1117070260
1117082589
1117093758
1117102731
1117109750
1117117989
1117126595
1117133187
1117142831
1117149911
1117158211
1117165047
1117171761
1117179146
1117186165
1117195504
1117205086
1117213387
1117220955
1117229439
1117242134
1117252816
1117263131
1117272347
1117282296
1117292549
1117298470
1117311775
1117331490
1117351997
1117439766
1117465278
1117487739
1117537483
1117555244
1117568611
1117581123
1117593391
1117605476
1117619575
1117643928
1117666938
1117691169
1117775397
1117802497
1117825141
1117863349
1117887213
1117903815
1117926764
1117943854
1117955512
1117961798
1117971075
1117978461
1117985419
1117992133
1118000616
1118008002
1118014960
1118022101
1118028326
1118036383
1118043036
1118051214
1118058417
1118065497
1118073919
1118081427
1118088934
1118094305
1118103033
1118111822
1118119635
1118126898
1118135687
1118142828
1118148993
1118158697
1118169500
1118178045
1118186651
1118193975
1118201666
1118209112
1118214788
1118223760
1118232427
1118239752
1118246221
1118252935
1118259527
1118268072
1118276617
1118287115
1118294744
1118299810
1118311895
1118324895
1118333623
1118341131
1118347845
1118358953
1118370366
1118379522
1118387395
1118395513
1118407293
1118416814
1118425054
1118433171
1118444341
1118452520
1118459539
1118469548
1118480840
1118491216
1118501531
1118513066
1118524846
1118534917
1118548161
1118560246
1118571477
1118588445
1118600590
1118611577
1118624516
1118633916
1118642766
1118651127
1118659550
1118668339
1118676823
1118685429
1118695256
1118703679
1118713627
1118720463
1118729252
1118739567
1118751164
1118762211
1118783146
1118804692
1118824284
1118848881
1118871037
1118895328
1118917545
1118968937
1118987308
1119005924
1119093936
1119113101
1119126773
1119143314
1119158572
1119174625
1119191348
1119206546
1119220523
1119234988
1119249270
1119264041
1119279849
1119294253
1119309207
1119322757
1119337832
1119351321
1119365847
1119381106
1119397524
1119415103
1119429751
1119445437
1119460940
1119476382
1119520510
1119533877
1119547793
1119563234
1119575991
1119588442
1119601198
1119615114
1119629152
1119648012
1119821840
1119846315
1120365417
1120465942
1120553710
1120568786
1120584472
1120598754
1120610900
1120623840
1120639037
1120653381
1120666076
1120682494
1120706542
1120726440
1120749267
1120927306
1120961607
1120984801
1121007078
1121025755
1121041441
1121063841
1121808285
1121828793
1121849056
1121869259
1121888363
1121905880
1122379206
1122399470
1122418208
1122438471
1122707391
1123533988
1123561088
1124262380
1124299245
1124319631
1124387136
1124405446
1124420461
1124899280
1124917286
1124932239
1124949939
1124965198
1124980274
1124995838
1125010547
1125022876
1125038867
1125053028
1125066333
1125080798
1125094531
1125556627
1125715440
1125747545
1125778368
1125802293
1125819322
1125836351
1125853502
1125869310
1125887193
1125903184
1125925950
1125944810
1125988816
1126016221
1126037278
1126061204
1126075608
1126087815
1126104050
1126118638
1126132187
1126146103
1126161179
1126176316
1126191697
1126205613
1126221115
1126234177
1126247421
1126262009
1126275314
1126288925
1126309128
1126327133
1126340927
1126356735
1126372726
1126386398
1126401718
1126416305
1126437057
1126525680
1126546188
1126562301
1126576217
1126590438
1126604965
1126620651
1126641524
1126655685
1126670577
1126688338
1126711776
1126752425
1126793441
1126845809
1126868208
1126885909
1126901412
1126917036
1126935103
1126953169
1126974898
1126990645
1127003645
1127015303
1127032026
1127043745
1127056379
1127068708
1127084333
1127097090
1127111921
1127129072
1127141706
1127156965
1127170210
1127184797
1127199079
1127215986
1127242658
1127255353
1127268537
1127277387
1127285505
1127293928
1127301252
1127312971
1127326703
1127339704
1127352521
1127374250
1127400373
1127486127
1127556317
1127609479
1127628827
1127651593
1127672650
1127694561
1127737530
1127757427
1127836956
1127899029
1127924175
1128044658
1128065654
1128113383
1128136638
1128156108
1128194438
1128209636
1128224101
1128274882
1128298442
1128317668
1128544352
1131129367
1133225004
1135046105
1138382705
1139759350
1142733280
1145493466
1147103813
1147514335
1147827444
1147878287
1149390429
1152763894
1156543120
1158811181
1159318626
1159354881
1159373679
1159394248
1159416343
1159656821
1159706992
1159732138
1159756308
1159780234
1159804159
1159823507
1159846640
1159869406
1159894979
1159922018
1160012899
1160160604
1160199788
1160235005
1160288289
1160309651
1160331990
1160373067
1160392109
1160412251
1160433369
1160458088
1160526692
1160563557
1160585285
1160601582
1160623676
1160648334
1160672504
1160705768
1160729816
1160752948
1160777362
1160798908
1160820270
1160934589
1160954425
1160976398
1160991168
1161003863
1161018573
1161034198
1161056292
1161086505
1161108111
1161130999
1161147234
1161161517
1161175738
1161191668
1161206133
1161219561
1161234637
1161246477
1161262469
1161276629
1161296404
1161317461
1161339067
1161358355
1161375078
1161391558
1161407488
1161423296
1161435320
1161448930
1161463518
1161480547
1161493181
1161504533
1161517473
1161528703
1161541521
1161553178
1161575883
1161597184
1161613908
1161709489
1161898148
1161926773
1161949479
1162019608
1162044266
1162074478
1162097549
1162115555
1162131119
1162144668
1162159134
1162171768
1162185806
1162202835
1162253128
1162266922
1162282424
1162315078
1162326919
1162526015
1162568618
1162601454
1162634474
1162664381
1162716444
1162739210
1162778090
1162831862
1162878858
1162910353
1162944349
1162965772
1162997877
1163030164
1163053846
1163085096
1163112806
1163214978
1163262586
1163278760
1163295422
1163309705
1163321912
1163332715
1163346387
1163370373
1163388928
1163484936
1163534680
1163571301
1163605236
1163618481
1163630504
1163643871
1163669323
1163683117
1163697399
1163707042
1163717540
1163731273
1163748058
1163765697
1163782482
1163796398
1163809398
1163820751
1163835826
1163850597
1163865001
1163878673
1163892772
1163905345
1163919505
1163938304
1163954783
1163970408
1163984507
1163995128
1164011912
1164025828
1164036326
1164050914
1164074412
1164089488
1164106150
1164126841
1164146311
1164342722
1164430307
1164451120
1164473520
1164568551
1164588327
1164619943
1164639474
1164661508
1164693368
1164717416
1164743356
1164786874
1164907540
1164932259
1164995980
1165047676
1165107796
1165121467
1165134651
1165150215
1165629340
1165643317
1165656073
1165667609
1165680243
1165694891
1165713690
1165728705
1165743475
1165757452
1165773932
1165788031
1165804083
1165820379
1165881048
1165899969
1165915167
1165931463
1165948980
1165964605
1165979192
1165993902
1166021490
1166044744
1166067693
1166084539
1166101873
1166116765
1166132085
1166148198
1166162419
1166176641
1166191167
1166205205
1166217961
1166234074
1166250066
1166264287
1166278447
1166291753
1166305424
1166318486
1166335698
1166350285
1166364628
1166377018
1166391057
1166405827
1166423161
1166439457
1166460575
1166478276
1166494450
1166513920
1166527287
1166541081
1166552799
1166564091
1166577702
1166591923
1166603825
1166614994
1166628605
1166788089
1166821597
1166930789
1167073306
1167097170
1167155093
1167186098
1167204043
1167220400
1167243044
1167260805
1167276918
1167295839
1167362612
1167376833
1167394777
1167411073
1167426027
1167441286
1167457155
1167473573
1167490602
1167505678
1167522951
1167533815
1167549379
1167563966
1167577882
1167591737
1167607606
1167623292
1167637879
1167652772
1167667726
1167682252
1167697572
1167711488
1167726136
1167740907
1167755799
1167771241
1167786133
1167802918
1167822693
1167839661
1167853394
1167868165
1167882813
1167898560
1167917969
1167934510
1167949585
1167967224
1167988953
1168004395
1168121704
1168306335
1168328613
1168347778
1168382140
1168405150
1168429870
1168456481
1168481627
1168506896
1168533080
1168568053
1168595641
1168619505
1168641600
1168665587
1168694395
1168736509
1168759947
1169072141
1169180539
1169206113
1169233273
1169254758
1169583248
1170256037
1170290461
1170308222
1170376764
1170395197
1170411127
1170475152
1170501153
1170539789
1170559869
1170576226
1170607110
1170622979
1170637567
1170650323
1170664178
1170681146
1170693658
1170705621
1170718987
1170728326
1170743951
1170758660
1170771722
1170782769
1170796136
1170807366
1170819085
1170832696
1170844109
1170856743
1170868035
1170880425
1170891838
1170904229
1170914116
1170926506
1170935478
1170948113
1170960686
1170972710
1170987541
1171000786
1171010918
1171026238
1171036736
1171050102
1171060783
1171079460
1171119072
1171258109
1171299857
1171353019
1171369132
1171393302
1171414237
1171431754
1171481742
1171581412
1171598685
1171616568
1171725393
1171770315
1171787832
1171803701
1171826223
1171906362
1171918935
1171930837
1171943716
1171954580
1171968008
1171977529
1171985769
1171995168
1172002553
1172011037
1172018484
1172026845
1172036794
1172045156
1172053212
1172061879
1172069387
1172078115
1172085317
1172094899
1172106191
1172126088
1172137746
1172147389
1172157216
1172167470
1172180409
1172195363
1172207082
1172220326
1172234303
1172244740
1172256032
1172269276
1172278187
1172286610
1172294850
1172302968
1172311574
1172319691
1172327992
1172338368
1172346913
1172355580
1172363514
1172371083
1172379200
1172387867
1172396168
1172404652
1172413014
1172421376
1172427479
1172437611
1172444020
1172453114
1172463612
1172469715
1172479664
1172485951
1172494495
1172503651
1172512928
1172519276
1172530140
1172537586
1172547291
1172554859
1172563831
1172576160
1172587208
1172599720
1172612964
1172622730
1172634815
1172646228
1172654163
1172668567
1172680774
1172692005
1172701709
1172713916
1172725818
1172736072
1172747425
1172762988
1172778491
1172798389
1172812732
1172827258
1172839648
1172853503
1172865161
1172878284
1172888659
1172900439
1172913012
1172926013
1172937060
1172949267
1172961413
1172971484
1172983691
1172995837
1173005969
1173018786
1173031481
1173042773
1173054370
1173065356
1173078478
1173090319
1173114306
1173125048
1173138720
1173150622
1173162585
1173175402
1173186449
1173200426
1173212511
1173224352
1173235460
1173249437
1173283861
1173339464
1173368517
1173389879
1173414964
1173429369
1173443529
1173470201
1173485521
1173496629
1173508592
1173520799
1173533189
1173543870
1173560777
1173574327
1173587388
1173601670
1173616014
1173629930
1173643662
1173659165
1173672776
1173687669
1173702561
1173718186
1173732774
1173747727
1173763291
1173777878
1173803940
1173822312
1173837998
1173853928
1173866684
1173882431
1173897812
1173914353
1173978439
1173994919
1174009018
1174024338
1174040756
1174059311
1174078476
1174183639
1174218978
1174268722
1174311385
1174342391
1174378036
1174404098
1174482650
1175286297
1175308697
1175370465
1175480084
1175881511
1175914897
1175932231
1175967509
1176020182
1176046855
1176066447
1176085673
1176105570
1176130411
1176552346
1176601174
1176631692
1176705666
1176729592
1176806557
1176834267
1176858803
1176884865
1176907143
1176933205
1176953346
1176976479
1177019813
1177045509
1177082680
1177118141
1177137672
1177208534
1177252113
1177315833
1177347083
1177363807
1177383887
1177408179
1177425330
1177448279
1177468848
1177487586
1177504614
1177526282
1177561621
1177580420
1177599585
1177615637
1177642737
1177671240
1177690710
1177748144
1177866918
1177893896
1177919408
1178062902
1178453770
1180769499
1182726769
1183403586
1184012960
1185060809
1185301225
1185544145
1185750931
1186038162
1186355239
1186521864
1187240796
1187482982
1188018320
1188249582
1188818489
1189089485
1189310126
1189614996
1194501824
1196983569
1199511638
1199979960
1200079325
1200271463
1200603005
1200842018
1201556189
1201615881
1201638769
1201664160
1201685583
1201709020
1201730810
1201753637
1201776708
1201798559
1201822790
1201845372
1201867406
1201889318
1201911962
1201935643
1202060765
1202344639
1202370273
1202394443
1202417881
1202438144
1202459201
1202480259
1202501316
1202521701
1202543552
1202563815
1202585544
1202606418
1202628390
1202647800
1202668185
1202687289
1202708468
1202728061
1202748629
1202767062
1202787204
1202806430
1202826510
1202848422
1202868990
1202888094
1202907748
1202922945
1202935274
1202949679
1202962252
1202976046
1202989046
1203006136
1203031588
1203113375
1203136080
1203158663
1203182771
1203229402
1203259920
1203282686
1203308626
1203331575
1203355439
1203875519
1204201018
1204640837
1204675626
1204694547
1204713712
1204731046
1204755155
1204772184
1204789945
1204805143
1204826871
1204845487
1204914151
1205041714
1205060757
1205075345
1205088894
1205103726
1205118313
1205134793
1205150174
1205163845
1205179104
1205192715
1205205227
1205220852
1205235501
1205247524
1205261929
1205274807
1205287930
1205302822
1205317348
1205332851
1205346828
1205361660
1205373623
1205387783
1205400234
1205416774
1205442714
1205485622
1205672816
1205752223
1205790126
1205815089
1205826930
1205838954
1205850489
1205860560
1205870448
1205881556
1205892115
1205902308
1205911768
1205923243
1205934779
1205944849
1205954737
1205965296
1205975428
1205985193
1205994837
1206006739
1206016687
1206026819
1206036463
1206047327
1206057581
1206067652
1206088343
1206100000
1206109888
1206122400
1206133264
1206141565
1206153833
1206166956
1206177454
1206189661
1206199915
1206212915
1206221277
1206233667
1206247339
1206257898
1206269189
1206280481
1206291101
1206301843
1206314721
1206326806
1206339380
1206350915
1206361962
1206373742
1206383325
1206395166
1206409387
1206423608
1206436486
1206450341
1206463281
1206476525
1206488305
1206503136
1206525536
1206624413
1206670983
1206735863
1206765404
1206803856
1206857689
1206885277
1206907371
1206930442
1207030723
1207060203
1207087241
1207226523
1207252524
1207276572
1207306845
1207369406
1207399313
1207429831
1207464255
1207742818
1207766866
1207789327
1207806112
1207826864
1207845357
1207875569
1207967915
1208006551
1208027425
1208047444
1208075825
1208129719
1208167012
1208194538
1208218159
1208238178
1208256733
1208275349
1208288044
1208304462
1208316608
1208328815
1208341938
1208355488
1208376606
1208390461
1208405170
1208419513
1208432697
1208448078
1208475482
1208487079
1208496967
1208507038
1208524005
1208541339
1208554828
1208569965
1208586627
1208606280
1208620441
1208637469
1208651691
1208668536
1208682147
1208697650
1208714618
1208729815
1208744647
1208759539
1208780535
1208798663
1208828692
1208850665
1208872637
1208894549
1208954973
1208986529
1209004473
1209169756
1209190691
1209208757
1209224870
1209246660
1209267595
1209284318
1209301774
1209318681
1209332414
1209350053
1209367204
1209382096
1209398881
1209412553
1209427201
1209442277
1209456681
1209471268
1209486588
1209500870
1209516923
1209530350
1209544694
1209559769
1209573929
1209590836
1209605423
1209620499
1209635819
1209650406
1209668412
1209680619
1209693924
1209706742
1209718887
1209730423
1209742935
1209758133
1209770096
1209782547
1209796036
1209811111
1209822586
1209836624
1209853470
1209871292
1209887771
1209903640
1209920913
1209944168
1210114883
1210198439
1210224013
1210251174
1210272841
1210298110
1210541822
1210567823
1210982129
1211006726
1211029187
1211052380
1211073376
1211189831
1211213635
1211237804
1211262463
1211285778
1211322155
1211348827
1211370250
1211396495
1211514171
1211531505
1211673594
1211953196
1212066110
1212174326
1212484261
1212905098
1212948799
1213038215
1213166755
1214167851
1219102469
1220448230
1221960738
1221994857
1223621440
1223658366
1223738200
1225046302
1225869603
1226980989
1228094024
1228940396
1229988977
1231051291
1231885213
1232695818
1235160351
1236291024
1238302677
1241550349
1249258337
1251888213
1252047392
1252080412
1252106718
1252152617
1252171843
1252187651
1252199919
1252208403
1252216459
1252225798
1252233854
1252242399
1252249907
1252257902
1252266081
1252274748
1252283232
1252291716
1252301908
1252313871
1252325651
1252336759
1252347135
1252358061
1252369657
1252380155
1252390775
1252401701
1252411161
1252421720
1252434537
1252446012
1252455594
1252463590
1252471647
1252481473
1252489164
1252496305
1252504850
1252512174
1252520292
1252534513
1252543119
1252551664
1252560147
1252568021
1252576627
1252586576
1252595059
1252602140
1252611173
1252618680
1252626187
1252635343
1252645413
1252653287
1252660367
1252670865
1252679105
1252688687
1252700711
1252708401
1252718411
1252724820
1252733487
1252741116
1252749173
1252757107
1252765835
1252773221
1252779385
1252787747
1252796170
1252804043
1252810391
1252818387
1252825528
1252832669
1252840481
1252847622
1252853543
1252861233
1252869046
1252876004
1252882168
1252891873
1252899136
1252907131
1252914517
1252921230
1252928005
1252933987
1252947353
1252970120
1252986050
1252997341
1253005764
1253014553
1253023159
1253032070
1253040066
1253048916
1253055874
1253063137
1253071743
1253078396
1253086635
1253094692
1253102504
1253110988
1253118435
1253125698
1253133571
1253138820
1253148952
1253154811
1253160854
1253168361
1253176479
1253183315
1253191677
1253200283
1253208217
1253214992
1253223110
1253230373
1253237331
1253245265
1253253566
1253260707
1253269313
1253276393
1253282741
1253290187
1253299281
1253306117
1253313869
1253320644
1253329433
1253337062
1253344142
1253353297
1253360927
1253369716
1253378810
1253384791
1253392360
1253402125
1253409510
1253415309
1253430323
1253442897
1253452235
1253458155
1253467555
1253475001
1253482325
1253491114
1253499903
1253507228
1253514308
1253522303
1253529872
1253537928
1253545313
1253552943
1253560572
1253567286
1253575465
1253583094
1253591151
1253599268
1253607203
1253615137
1253622279
1253629786
1253636744
1253644373
1253650599
1253659693
1253666346
1253673304
1253681727
1253690210
1253697352
1253704310
1253713587
1253720362
1253728724
1253735437
1253742212
1253749048
1253755945
1253762537
1253770044
1253778894
1253785913
1253792017
1253798120
1253806482
1253813196
1253821314
1253829187
1253834741
1253844080
1253852014
1253859399
1253866907
1253875879
1253882593
1253890527
1253897852
1253905664
1253913782
1253920007
1253926721
1253936182
1253943078
1253950586
1253956567
1253963830
1253971765
1253977014
1253985193
1254003808
1254015100
1254034814
1254069116
1254090417
1254121545
1254138879
1254160485
1254190697
1254218468
1254238000
1254257714
1254276085
1254405541
1254459862
1254499840
1254521568
1254550438
1254598472
1254625816
1254646202
1254662986
1254680625
1254698814
1254712913
1254728050
1254746787
1254766013
1254787437
1254809775
1254823630
1254844443
1254859519
1254876243
1254892783
1254908469
1254922202
1254934958
1254948935
1254962912
1254981833
1255001120
1255021994
1255038901
1255049460
1255060202
1255078024
1255092001
1255115317
1255131979
1255141684
1255151816
1255160727
1255169760
1255180380
1255189413
1255198752
1255207174
1255215719
1255224752
1255241903
1255251608
1255263327
1255277426
1255291403
1255304342
1255317281
1255328146
1255339193
1255350423
1255360922
1255370016
1255380697
1255390523
1255399862
1255413229
1255423421
1255433248
1255442525
1255454732
1255464803
1255474691
1255483297
1255490499
1255498128
1255505391
1255516378
1255541707
1255565389
1255589437
1255613240
1255692403
1255717427
1255745564
1255775471
1255808186
1255893940
1255919697
1255971577
1256007709
1256085773
1256115253
1256148883
1256250262
1256379046
1256622149
1256639483
1256653399
1256666277
1256679949
1256692644
1256709368
1256723955
1256736834
1256752092
1256767473
1256780046
1256795366
1256809770
1256824968
1256839006
1256850786
1256864702
1256878740
1256892107
1256906755
1256921831
1256936906
1256950822
1256966142
1256987260
1256998368
1257008989
1257022966
1257036760
1257051469
1257066423
1257089921
1257142716
1257184708
1257209611
1257233842
1257301773
1257332108
1257390274
1257428726
1257468643
1257831252
1261770024
1262872438
1264990474
1266051141
1266782340
1267633412
1269908125
1270313642
1270544659
1270697308
1271009990
1271789590
1272630164
1273524876
1273698338
1273886204
1274222507
1275351288
1276115507
1277623987
1277706384
1278637107
1279226217
1280274798
1280467180
1281136795
1281466079
1281965285
1282341993
1282727062
1283091441
1283332652
1283483225
1283565988
1283726327
1283919930
1284122139
1284254280
1284364021
1284608283
1284889471
1285230657
1285774174
1286025638
1286225589
1286452578
1286722169
1287168885
1287410949
1287570129
1287919493
1287996214
1288174314
1288439084
1289073909
1289235469
1289911004
1290425834
1290867850
1290999258
1291460683
1291769154
1292317370
1293015488
1293413925
1293972822
1294332196
1294637432
1294967815
1295791482
1296579749
1296919836
1297431920
1298011874
1299259918
1299928862
1300559719
1300788112
1301268824
1301660974
1302089928
1302766074
1303189656
1303490315
1303946368
1304192156
1304864091
1305177383
1305437087
1305840346
1306091443
1306557018
1306830028
1307278818
1307321909
1307494394
1307893380
1307995491
1309081548
1309700504
1310034121
1310298830
1311944639
1312140500
1312458920
1312905757
1313192011
1313734124
1314778006
1315426075
1316364122
1317960188
1318550945
1320380775
1321141637
1321875217
1321892795
1321908053
1321930942
1321950473
1321969699
1321984713
1322000033
1322013217
1322024752
1322033724
1322041720
1322048983
1322056918
1322063998
1322071993
1322079135
1322087557
1322095736
1322103121
1322110445
1322116976
1322125704
1322132296
1322139437
1322145724
1322155001
1322162142
1322169344
1322176241
1322183504
1322190096
1322196688
1322204745
1322211703
1322219759
1322225863
1322233492
1322239473
1322245760
1322254122
1322267916
1322286165
1322299410
1322315889
1322332186
1322353670
1322373934
1322395235
1322415315
1322437715
1322454744
1322468843
1322490083
1322512544
1322533723
1322559602
1322579683
1322633454
1322654389
1322673005
1322693147
1322710297
1322725373
1322740266
1322754060
1322777131
1322800568
1322823334
1322849335
1322872162
1322897187
1322917389
1322932099
1322950287
1322981598
1323010407
1323036713
1323078155
1323101532
1323124420
1323142852
1323159149
1323172088
1323182281
1323189727
1323198516
1323207733
1323215301
1323222808
1323232269
1323239898
1323248077
1323256133
1323263336
1323272430
1323279022
1323287200
1323304229
1323328948
1323351653
1323376067
1323399383
1323428557
1323454253
1323482940
1323504180
1323528227
1323549346
1323633818
1323660063
1323684660
1323762724
1323782072
1323796415
1323809477
1323824552
1323836515
1323851164
1323865263
1323878568
1323891874
1323904752
1323917997
1323932096
1323945158
1323957242
1323972196
1323985929
1323998441
1324011930
1324027860
1324045194
1324064603
1324086942
1324104703
1324119107
1324134549
1324147367
1324161038
1324175931
1324189542
1324203885
1324218838
1324235196
1324248563
1324263455
1324277554
1324290188
1324304410
1324319607
1324333706
1324346768
1324360745
1324372708
1324385891
1324401211
1324416348
1324428921
1324442593
1324457058
1324470059
1324483975
1324498623
1324511562
1324525173
1324539333
1324552517
1324564297
1324578029
1324591579
1324604885
1324619167
1324631618
1324645412
1324658535
1324672268
1324685390
1324698757
1324713344
1324725612
1324739711
1324752895
1324765529
1324778713
1324792812
1324807643
1324820827
1324834987
1324846767
1324861110
1324876369
1324890529
1324902858
1324915797
1324928615
1324943568
1324956019
1324969569
1324999293
1325016688
1325031825
1325052393
1325073145
1325089014
1325102686
1325116785
1325129542
1325143336
1325158594
1325172877
1325188135
1325200281
1325214502
1325227686
1325240503
1325254175
1325267725
1325281092
1325295008
1325309290
1325324182
1325337793
1325351404
1325365686
1325380274
1325394189
1325408228
1325422021
1325434534
1325447595
1325463647
1325477563
1325490808
1325503686
1325516626
1325529138
1325545251
1325568200
1325592858
1325615747
1325642175
1325668786
1325692590
1325734643
1325761742
1325810875
1325834557
1325861840
1325888329
1325911583
1325931175
1325949425
1325967491
1325986351
1326001732
1326016991
1326029747
1326043480
1326057396
1326072716
1326088157
1326105430
1326123436
1326138023
1326154502
1326172630
1326193321
1326208457
1326227561
1326240989
1326258323
1326275596
1326293052
1326310569
1326328696
1326349876
1326369102
1326386863
1326402671
1326419150
1326438681
1326455710
1326476767
1326493125
1326512534
1326529379
1326545737
1326562277
1326577414
1326596518
1326614401
1326634299
1326653525
1326671835
1326694052
1326711203
1326730673
1326753073
1326768026
1326781149
1326799765
1326815206
1326830770
1326841024
1326853414
1326865377
1326879659
1326898458
1326924825
1326945028
1326979818
1327008016
1327034932
1327074727
1327097798
1327131795
1327153951
1327174397
1327198811
1327612568
1327705890
1327785663
1327832172
1327897479
1327989459
1328009234
1328035479
1328051470
1328073077
1328090411
1328108660
1328131487
1328150896
1328167315
1328189287
1328204851
1328219744
1328236345
1328259783
1328278582
1328295610
1328313616
1328333818
1328353410
1328373064
1328399248
1328417558
1328440080
1328458269
1328476762
1328501725
1328517534
1328536943
1328591203
1328634965
1328832230
1328876602
1328939835
1328961563
1328986710
1329007400
1329034195
1329057388
1329079544
1329104995
1329128433
1329154983
1329178298
1329203201
1329227371
1329250930
1329302688
1329343032
1329367507
1329401931
1329699415
1329788771
1329810987
1329834608
1329852674
1329871046
1329889051
1329907178
1329922559
1329941846
1329958387
1329976026
1329996045
1330017713
1330036145
1330054578
1330072034
1330089917
1330109082
1330126843
1330146069
1330167554
1330336377
1330384899
1330426098
1330455334
1330485058
1330511852
1330537914
1330561657
1330579540
1330597789
1330612133
1330628307
1330644054
1330658702
1330671276
1330685924
1330698436
1330713329
1330729076
1330742381
1330757640
1330772716
1330786754
1330798717
1330815379
1330830272
1330844432
1330857615
1330872447
1330885020
1330897410
1330909617
1330926158
1330940806
1330955577
1330968760
1330983348
1330997691
1331011912
1331027598
1331041270
1331055857
1331068919
1331082896
1331103709
1331128000
1331142710
1331156382
1331170054
1331187021
1331200937
1331213938
1331230478
1331243784
1331257700
1331271128
1331284311
1331297617
1331310251
1331324716
1331338693
1331353647
1331366953
1331381235
1331396493
1331411325
1331468271
1331494088
1331513253
1331551644
1331591866
1331634957
1331661691
1331686410
1331712960
1331745736
1331777108
1331806160
1331832100
1331875801
1331942757
1332025642
1332078987
1332137519
1332162300
1332188484
1332212104
1332232978
1332248908
1332263679
1332278876
1332295783
1332314094
1332332465
1332350532
1332372687
1332394538
1332418097
1332439887
1332460883
1332485541
1332510443
1332532904
1332557440
1332579108
1332602850
1332902776
1332925603
1332949407
1332972112
1333184270
1333205388
1333226323
1333243840
1333267521
1333289006
1333304753
1333340641
1333363896
1333407414
1333434086
1333457706
1333502933
1333516361
1333530704
1333545048
1333557987
1333571964
1333585148
1333599491
1333617069
1333639652
1333657779
1333672550
1333686160
1333698856
1333712528
1333726199
1333739383
1333753787
1333768008
1333781985
1333794620
1333808414
1333821841
1333834842
1333848025
1333862185
1333875430
1333890323
1333903445
1333915835
1333930911
1333943972
1333956240
1333970461
1333983279
1333998477
1334009951
1334025027
1334036257
1334050661
1334065249
1334078005
1334091372
1334104922
1334118410
1334131350
1334146059
1334159609
1334173830
1334187075
1334201174
1334215395
1334227541
1334241884
1334254213
1334268312
1334281252
1334294496
1334309755
1334322511
1334335695
1334348756
1334361391
1334376527
1334389345
1334402345
1334415651
1334430604
1334444642
1334462587
1334480165
1334495790
1334509645
1334525209
1334539430
1334553163
1334568055
1334583924
1334598634
1334613038
1334625855
1334644227
1334658143
1334672913
1334875244
1335006348
1335044739
1335065857
1335155334
1335171935
1335188598
1335219665
1335252868
1335271972
1335292358
1335310119
1335328551
1335343688
1335362792
1335377623
1335394713
1335409423
1335427062
1335444091
1335459654
1335474181
1335489562
1335508177
1335529295
1335551085
1335572630
1335597471
1335617003
1335676024
1335697813
1335720945
1335738279
1335755491
1335833067
1335850828
1335865720
1335883298
1335942685
1335968015
1336210873
1337115290
1337530816
1337791619
1338236259
1338451285
1339143483
1346157808
1348892420
1353378005
1354732188
1354761363
1360294186
1364563645
1366694499
1366723979
1366750773
1367269632
1367513894
1367595986
1367836220
1367982704
1369048008
1369141636
1369301914
1369490634
1370588776
1371580045
1371609159
1373790428
1374151938
1374293539
1374320944
1374338034
1374360251
1374381491
1374401327
1374418966
1374434408
1374447897
1374464559
1374474935
1374485922
1374498983
1374512594
1374524252
1374534506
1374545248
1374553182
1374561239
1374572164
1374580343
1374588399
1374597616
1374604879
1374612752
1374622091
1374629964
1374636983
1374645467
1374653341
1374661031
1374668538
1374675435
1374683614
1374690572
1374697408
1374705159
1374713948
1374719930
1374727193
1374732564
1374738607
1374749105
1374757100
1374763509
1374770528
1374777425
1374784078
1374790608
1374800252
1374806661
1374812520
1374819844
1374825826
1374834004
1374839375
1374854634
1374864827
1374877278
1374886922
1374894490
1374902669
1374910786
1374919270
1374927937
1374935567
1374942769
1374950520
1374958577
1374965230
1374974568
1374981892
1374988667
1374997944
1375005391
1375012288
1375019734
1375023945
1375035176
1375042439
1375048603
1375055073
1375061909
1375070210
1375076252
1375085652
1375093342
1375101338
1375108967
1375114704
1375125080
1375132160
1375141804
1375149250
1375155659
1375162983
1375171589
1375180744
1375188190
1375195637
1375202167
1375211323
1375219074
1375226398
1375233845
1375240497
1375247272
1375256305
1375262897
1375272053
1375279682
1375286213
1375292743
1375301105
1375307392
1375318439
1375325763
1375332294
1375340656
1375346393
1375354511
1375359760
1375369464
1375388996
1375406879
1375429645
1375447406
1375470355
1375492938
1375508746
1375517230
1375527240
1375537982
1375546893
1375557269
1375564166
1375572040
1375579242
1375586078
1375593280
1375599872
1375606097
1375614276
1375621722
1375628192
1375633929
1375640521
1375647296
1375654193
1375661151
1375668658
1375675189
1375681414
1375688433
1375693072
1375699969
1375711566
1375723101
1375731585
1375737383
1375747637
1375754778
1375762164
1375779620
1375800677
1375826250
1375886065
1375909990
1375938616
1375960222
1375980242
1376022417
1376045000
1376068376
1376087968
1376107927
1376132829
1376149736
1376198869
1376220231
1376236100
1376250932
1376281938
1376302140
1376317094
1376328751
1376339433
1376351884
1376364823
1376373246
1376381425
1376391862
1376399918
1376408280
1376417618
1376425431
1376434708
1376442399
1376449967
1376458756
1376465287
1376474015
1376482316
1376489945
1376497452
1376505448
1376512772
1376524918
1376535111
1376545975
1376556900
1376567520
1376577652
1376588150
1376598343
1376607804
1376618424
1376629532
1376645950
1376669266
1376687637
1376711136
1376733658
1376756607
1376777542
1376801712
1376829116
1376857620
1376885208
1376907913
1376930373
1376954971
1376970046
1376987380
1377011367
1377062941
1377086806
1377103896
1377120009
1377134475
1377144912
1377160353
1377204054
1377228346
1377249281
1377274733
1377298964
1377323317
1377347120
1377366285
1377387526
1377403761
1377423536
1377440626
1377456129
1377468702
1377481275
1377495069
1377505628
1377516737
1377528883
1377538709
1377550489
1377562757
1377574476
1377588087
1377598463
1377609083
1377627332
1377644178
1377665540
1377679700
1377693067
1377707410
1377721204
1377735486
1377750196
1377766126
1377781629
1377799329
1377813550
1377826733
1377839673
1377853528
1377871411
1377886365
1377900464
1377915295
1377928235
1377943860
1377964489
1377985363
1378003430
1378020764
1378033581
1378045971
1378058972
1378071850
1378081677
1378119640
1378142590
1378167248
1378261974
1378289745
1378312206
1378336376
1378377941
1378453441
1379206247
1379293954
1379323617
1379410714
1379947639
1380024665
1380053412
1380075385
1380098090
1380120368
1380144904
1380480047
1380515875
1380533697
1380554388
1380575384
1380599615
1380620305
1380638860
1380704106
1380764287
1380813847
1380837163
1380911748
1380933781
1380976201
1381064457
1381136478
1381175419
1381194950
1381220402
1381407840
1381423160
1381435916
1381452518
1381469607
1381483462
1381499881
1381512210
1381528018
1381540896
1381554324
1381570498
1381584109
1381598635
1381612612
1381627566
1381641360
1381656985
1381671267
1381691470
1381712588
1381778445
1381802187
1381827639
1381852480
1381885622
1382101930
1382167604
1382474976
1382500183
1382544190
1382581787
1382597656
1382615051
1382628906
1382660828
1382676697
1382694946
1382711120
1382725281
1382740234
1382760498
1382774170
1382788208
1382809387
1382824584
1382840026
1383273314
1383319578
1383347227
1383394590
1383481748
1383548704
1383576047
1383645444
1383669309
1383697324
1383720700
1383745175
1383811398
1383854306
1383877560
1383901547
1383960385
1383999813
1384035885
1384069759
1385989982
1387421435
1390853311
1391146341
1392344885
1392366430
1392376989
1392392492
1392405126
1392416113
1392426000
1392437536
1392458044
1392519750
1392538915
1392551916
1392563939
1392573888
1392799351
1394472870
1395312162
1396200283
1397972312
1400519302
1401688611
1401953198
1402406871
1402659495
1403475288
1403561775
1404046637
1404069342
1404098883
1404480291
1404506597
1404531377
1404558171
1404576970
1404593022
1404608098
1404626775
1404643010
1404659184
1404674382
1404688542
1404703801
1404721745
1404744877
1404769291
1404791935
1404814335
1404838505
1404867192
1404919071
1404951603
1404985111
1405011478
1405035892
1405062687
1405081547
1405106022
1405122379
1405135746
1405144901
1405157474
1405177616
1405206607
1405217166
1405227481
1405241702
1405247928
1405256534
1405264163
1405270877
1405278629
1405286380
1405304446
1405319217
1405333499
1405346316
1405356814
1405365787
1405378299
1405388797
1405398379
1405409671
1405420230
1405428531
1405439639
1405452822
1405471987
1405578371
1405611208
1405637331
1405660586
1405713076
1405736574
1405758425
1405780519
1405799196
1405817629
1405833925
1405852174
1405898805
1405930971
1405948732
1405961061
1405977479
1405993776
1406012269
1406033387
1406052430
1406068055
1406093202
1406114991
1406140809
1406165467
1406218995
1406244935
1406266358
1406289856
1406310486
1406333741
1406357727
1406379090
1406405213
1406426697
1406446655
1406464539
1406482178
1406499573
1406516907
1406531677
1406553222
1406570923
1406677978
1406698852
1406721069
1406741027
1406763183
1406796264
1406856383
1406874328
1406888366
1406901549
1406914916
1406926329
1406935118
1406944579
1406954039
1406962279
1406979979
1407002928
1407088744
1407105467
1407119505
1407136046
1407150145
1407163389
1407176329
1407187864
1407196104
1407205015
1407212034
1407220274
1407233885
1407245481
1407255552
1407266844
1407276975
1407285398
1407294248
1407302061
1407309751
1407327329
1407342954
1407359495
1407375303
1407387449
1407398862
1407409299
1407420774
1407431455
1407442563
1407452451
1407462400
1407473508
1407484006
1407501584
1407514219
1407531186
1407543027
1407552854
1407574704
1407587338
1407597959
1407610227
1407621213
1407628293
1407638242
1407652341
1407672055
1407696408
1407715695
1407734250
1407765805
1407816586
1407946835
1407988644
1408029476
1408060726
1408079586
1408164363
1408207332
1408395320
1408421077
1408464717
1408540156
1408574702
1408590937
1408611811
1408746027
1408768244
1409076715
1409104669
1409128411
1409151177
1409289788
1409369255
1409538078
1409633659
1409681266
1409720145
1409820121
1409869437
1409920829
1409942069
1409962393
1409984122
1410004935
1410027579
1410048331
1410069571
1410094290
1410115225
1410139517
1410166006
1410190359
1410217886
1410242971
1410331411
1410509999
1410676015
1410755848
1410779957
1410804127
1410826161
1410850331
1410874989
1410897755
1410927357
1410949512
1410972584
1410994923
1411016529
1411038074
1411069385
1411171924
1411197742
1411547472
1411625658
1411651537
1411676561
1411701158
1411725389
1411748216
1411771410
1411793565
1411815294
1411838426
1411860277
1411882188
1411904893
1411928758
1411951036
1411972398
1411995958
1412017564
1412040330
1412065171
1412087876
1412111375
1412135484
1412269577
1412293381
1412315598
1412337326
1412359665
1412400925
1412482712
1412554367
1412628097
1412654159
1412677902
1412733199
1412763167
1412878402
1412911422
1412935042
1412958174
1412980818
1413003279
1413023726
1413046675
1413070845
1413162519
1413185713
1413208296
1413469892
1413895855
1414008953
1414033977
1414137981
1414157695
1414172771
1414190593
1414206035
1414225139
1414239604
1414254314
1414270549
1414286662
1414301921
1414318217
1414332988
1414348552
1414371257
1414392985
1414408000
1414422343
1414435404
1414448832
1414464152
1414475688
1414491007
1414504130
1414517924
1414532206
1414546305
1414559672
1414574442
1414587504
1414600931
1414614542
1414627726
1414641764
1414657389
1414672342
1414684427
1414696756
1414712259
1414725687
1414739786
1414753885
1414769754
1414784708
1414800943
1414817422
1414831583
1414845743
1414859170
1414874429
1414888223
1414902383
1414914773
1414929178
1414942605
1414957010
1414970010
1414983377
1414996377
1415011514
1415024697
1415038552
1415052590
1415066384
1415079324
1415093606
1415105386
1415120156
1415134377
1415147866
1415162392
1415175515
1415189553
1415201943
1415215676
1415228798
1415242226
1415257668
1415270974
1415283242
1415298134
1415310219
1415324501
1415338906
1415353005
1415366005
1415379616
1415392128
1415406166
1415419655
1415433693
1415446999
1415460792
1415473915
1415487465
1415500160
1415515114
1415527870
1415541908
1415555702
1415569252
1415583473
1415596962
1415609107
1415621559
1415636939
1415652686
1415674293
1415717078
1415766761
1415996741
1416194250
1416317724
1416344945
1416359533
1416375524
1416388769
1416400792
1416412999
1416423131
1416437474
1416449315
1416460118
1416471044
1416484838
1416496617
1416509191
1416522679
1416533788
1416544347
1416555455
1416566686
1416576146
1416588841
1416599889
1416610204
1416620213
1416627721
1416640721
1416657628
1416678197
1416695103
1416718724
1416739293
1416764683
1416788060
1416814060
1416837620
1416858372
1416883030
1416901707
1416917088
1416931492
1416942966
1416954136
1416963352
1416974155
1416982883
1416993442
1417002964
1417013279
1417023716
1417033054
1417041416
1417050266
1417060764
1417070041
1417080539
1417090244
1417100376
1417110691
1417121005
1417128208
1417139560
1417147312
1417157993
1417166660
1417172702
1417182163
1417195102
1417208835
1417220126
1417233737
1417248385
1417263766
1417276523
1417289584
1417304171
1417316928
1417329806
1417345004
1417357699
1417372287
1417386386
1417399020
1417413546
1417427523
1417440707
1417456271
1417469088
1417483431
1417495394
1417509982
1417523653
1417538546
1417552584
1417566683
1417580233
1417592135
1417603243
1417618258
1417660860
1418150300
1420353785
1421120568
1421147912
1421179345
1421205895
1421228417
1423232623
1423529619
1423788164
1424913527
1424976393
1425014235
1425402539
1425430371
1425554456
1425579968
1425617444
1425918285
1425941540
1425965160
1426052196
1426086864
1426111644
1426136058
1426159923
1426181102
1426202220
1426220347
1426235606
1426250377
1426266063
1426279612
1426293956
1426309275
1426323497
1426338084
1426352488
1426366892
1426380686
1426394907
1426408701
1426424204
1426436411
1426451243
1426465281
1426479807
1426493906
1426507944
1426524607
1426539988
1426554636
1426568430
1426582895
1426596933
1426611643
1426624338
1426638803
1426652231
1426666696
1426681528
1426695871
1426709726
1426724252
1426738351
1426753000
1426767282
1426780099
1426794443
1426809213
1426829721
1426852914
1426876840
1426905709
1426930734
1426949716
1426965035
1426978768
1426994027
1427009286
1427022958
1427037850
1427051644
1427066781
1427081490
1427096749
1427110055
1427125130
1427140389
1427155465
1427170235
1427182320
1427196724
1427211739
1427225777
1427240486
1427253792
1427268013
1427281685
1427294624
1427309822
1427323433
1427337898
1427352547
1427363960
1427375801
1427388069
1427401008
1427413032
1427424019
1427435188
1427447761
1427458320
1427469246
1427481269
1427491829
1427504402
1427514534
1427525398
1427535408
1427547370
1427558113
1427569282
1427581184
1427591377
1427600532
1427609382
1427620551
1427628974
1427635932
1427644355
1427650764
1427660346
1427667914
1427675422
1427682441
1427690497
1427697639
1427705146
1427712653
1427719428
1427727973
1427735053
1427742438
1427749274
1427755744
1427764289
1427772040
1427779670
1427786750
1427794501
1427800727
1427807929
1427815985
1427823920
1427833319
1427840460
1427848090
1427854621
1427862189
1427868475
1427876288
1427885260
1427890814
1427898139
1427905463
1427912238
1427919379
1427926581
1427933966
1427942877
1427950384
1427956854
1427966742
1427973944
1427981085
1427988104
1427995917
1428002997
1428010260
1428018438
1428024298
1428034002
1428044378
1428055853
1428080694
1428091009
1428099737
1428108404
1428117865
1428125738
1428133734
1428141485
1428149114
1428156133
1428163519
1428171880
1428179327
1428187444
1428193731
1428201666
1428208624
1428216436
1428224493
1428232061
1428239751
1428246831
1428253973
1428260870
1428268316
1428274908
1428282781
1428290655
1428297674
1428304082
1428310735
1428318975
1428325628
1428332341
1428341741
1428348333
1428355962
1428362371
1428370061
1428376104
1428383733
1428389592
1428399724
1428407048
1428413274
1428421758
1428428227
1428434941
1428441106
1428451299
1428458074
1428466435
1428472783
1428480596
1428485722
1428494145
1428499883
1428516057
1428528386
1428536259
1428544743
1428554448
1428567753
1428577275
1428588933
1428597233
1428607060
1428613469
1428622502
1428629582
1428636540
1428644291
1428651982
1428658696
1428665471
1428672062
1428679753
1428685612
1428692997
1428700322
1428706974
1428713627
1428720768
1428727421
1428733769
1428740055
1428746037
1428753727
1428759831
1428766483
1428774052
1428780888
1428788761
1428793705
1428802372
1428810978
1428816288
1428825199
1428830021
1428837528
1428843204
1428853764
1428863590
1428869877
1428877323
1428883488
1428889347
1428897587
1428904911
1428913151
1428920658
1428925907
1428935306
1428940555
1428947025
1428955875
1428963504
1428971622
1428979007
1428985965
1428992618
1428999576
1429007816
1429013126
1429022220
1429029666
1429037418
1429043277
1429051273
1429057926
1429064151
1429071658
1429081729
1429089908
1429104923
1429116641
1429128848
1429140933
1429171817
1429188357
1429197452
1429210513
1429221255
1429233951
1429243838
1429254702
1429265750
1429274539
1429282168
1429290469
1429299624
1429306704
1429314822
1429321780
1429330386
1429337893
1429345034
1429352480
1429360964
1429368777
1429376162
1429384280
1429391726
1429399050
1429406557
1429414187
1429422060
1429429324
1429437624
1429445010
1429451845
1429461123
1429467226
1429475832
1429482607
1429490603
1429497500
1429503725
1429511416
1429518374
1429525026
1429533693
1429539553
1429547304
1429551943
1429559206
1429566042
1429574343
1429580996
1429594484
1429623415
1429640383
1429653322
1429674013
1429707582
1429772767
1429810731
1429829286
1429852113
1429875489
1429902528
1429927857
1429951844
1429976930
1430013123
1430065491
1430081483
1430101563
1430119263
1430134949
1430150818
1430162354
1430173340
1430183716
1430198609
1430213623
1430236267
1430259827
1430281860
1430299500
1430315186
1430329163
1430343628
1430354431
1430363403
1430372558
1430382873
1430390198
1430397217
1430404724
1430412842
1430417907
1430427551
1430434448
1430442932
1430450561
1430457763
1430464782
1430471557
1430479614
1430487793
1430495117
1430502380
1430509338
1430516540
1430523437
1430530822
1430539428
1430546874
1430554626
1430560607
1430567993
1430578491
1430585937
1430593993
1430600768
1430609313
1430617126
1430626403
1430633727
1430640624
1430647948
1430654906
1430664245
1430670104
1430678283
1430686584
1430694823
1430702086
1430716369
1430726806
1430743468
1430755492
1430767699
1430778991
1430787230
1430794554
1430804930
1430815123
1430832091
1430850279
1430863585
1430880126
1430970091
1431005736
1431029051
1431047728
1431060118
1431080076
1431091429
1431106199
1431129942
1431153501
1431177610
1431200010
1431223142
1431239561
1431256406
1431274656
1431297361
1431323606
1431346433
1431371091
1431393430
1431416440
1431432309
1431446469
1431459470
1431468015
1431475278
1431481992
1431489133
1431495786
1431503110
1431509640
1431517880
1431525510
1431532956
1431541745
1431548825
1431556943
1431563534
1431569882
1431577633
1431584775
1431591000
1431599850
1431606320
1431613949
1431621212
1431627194
1431635495
1431643368
1431652645
1431658993
1431667111
1431674252
1431685360
1431696591
1431708615
1431717282
1431724911
1431733151
1431739559
1431748898
1431756588
1431762997
1431773007
1431780331
1431788754
1431800411
1431807552
1431813656
1431822567
1431830624
1431839840
1431846615
1431856197
1431865902
1431873897
1431881527
1431887874
1431903499
1432022090
1432054805
1432082942
1432102840
1432117244
