2345441383
2345508582
2345528907
2345547523
2345571082
2345615821
2345634864
2345652076
2345670142
2345685828
2345699927
2353834977
2359583192
2360785399
2361168760
2361187436
2361206906
2361682125
2361800655
2361823787
2361853023
2361886531
2361927974
2361955501
2361979365
2361999019
2362017940
2362035335
2362052546
2362070979
2362088069
2362105281
2362122737
2362138484
2362158320
2362175227
2362191950
2362209040
2362226679
2362243342
2362263117
2362282404
2362302546
2362320368
2362338984
2362355463
2362371820
2362389765
2362406305
2362424860
2362442438
2362459223
2362476557
2362492609
2362510431
2362526483
2362543390
2362559991
2362575616
2362592767
2362607538
2362624627
2362640558
2362658685
2362674798
2362690789
2362708551
2362724786
2362739312
2362755425
2362770806
2362787469
2362803033
2362817925
2362834161
2362848016
2362862542
2362881341
2362896660
2362911675
2362926873
2362942681
2362957268
2362975640
2362991936
2363008904
2363026482
2363043694
2363062187
2363078728
2363097344
2363114494
2363144524
2363161003
2363177666
2363194206
2363211052
2363229301
2363244438
2363260246
2363275932
2363291740
2363308280
2363321952
2363339713
2363354301
2363369682
2363385795
2363400748
2363416496
2363430350
2363449027
2363465568
2363483878
2363497550
2363514823
2363531180
2363549308
2363566397
2363583609
2363606986
2363623404
2363642691
2363659415
2363675101
2363693594
2363710989
2363729178
2363746939
2363763357
2363780203
2363797598
2363814505
2363831595
2363847403
2363864737
2363880789
2363897329
2363915151
2363948782
2363967153
2363990469
2364008169
2364026357
2364042165
2364059377
2364076650
2364093374
2364110647
2364120656
2364132558
2364145131
2364156789
2364169240
2364181447
2364193105
2364205312
2364217580
2364229604
2364240956
2364253652
2364268727
2364281850
2364293446
2364304982
2364317128
2364328175
2364339833
2364350758
2364362233
2364373280
2364386525
2364395924
2364409779
2364421620
2364433522
2364444813
2364456044
2364483082
2364495350
2364506031
2364518543
2364530628
2364542347
2364554798
2364568714
2364581043
2364604054
2364621998
2364641773
2364659168
2364677906
2364699390
2364737903
2364753711
2364772693
2364793872
2364813831
2364909290
2364928149
2365298205
2365524766
2365554185
2365613206
2365663621
2365681871
2365699876
2365722642
2367642986
2368684304
2368868935
2374618432
2376301777
2377687577
2379471935
2380281565
2380391367
2380454172
2380485727
2380818245
2381098396
2381178901
2381982244
2382766238
2384964353
2385235959
2385260129
2385309994
2385333249
2385366268
2385386349
2385409237
2385432491
2385458920
2385477291
2385504513
2385528133
2385548702
2385566158
2385584163
2385601375
2385622249
2385640316
2385659847
2385905940
2385926387
2385953120
2385975581
2386009516
2387677969
2387940786
2387965810
2388753955
2388905139
2389009387
2389720872
2390107650
2390290450
2390495345
2390647566
2391003278
2391116376
2391154889
2391227521
2397819728
2398944115
2400817401
2404016489
2410936638
2417913670
2418416721
2424552081
2429038398
2432358458
2436317554
2440664589
2442571017
2442643343
2442696688
2442759249
2445449611
2447955586
2448046406
2453093329
2453124457
2456570005
2457237361
2457432246
2457595393
2457625666
2457656367
2457675409
2457705683
2457733942
2457756220
2457778253
2457875665
2457898065
2457918085
2457934198
2457955621
2460191272
2460461047
2460519763
2460575365
2460622668
2460653979
2462341108
2463953653
2464137612
2464205056
2464229775
2464278786
2464364052
2464405068
2464431130
2465822911
2466499362
2467136994
2468787381
2469668970
2469749719
2469925317
2472010700
2472269305
2472370013
2472397723
2472630999
2472663835
2472778703
2472805986
2472960771
2473705154
2473782180
2474118055
2474205702
2474265150
2474287244
2474318922
2474375745
2474409009
2474434217
2474458753
2474538098
2474565442
2474603406
2474640332
2474682019
2474708508
2474731213
2474753491
2474782849
2474806591
2474828137
2474849682
2474864819
2474873852
2474882580
2474891003
2474898388
2474905468
2474913402
2474921520
2474929088
2474936352
2474944103
2474951793
2474958568
2474966381
2474974682
2474983043
2474989208
2474997997
2475005260
2475011181
2475020397
2475027355
2475035350
2475042675
2475050060
2475057201
2475065502
2475070995
2475082164
2475089733
2475097179
2475104991
2475111217
2475117992
2475126293
2475133983
2475140758
2475148204
2475154857
2475162242
2475362071
2475516550
2475862375
2476235726
2476552497
2478729738
2478939088
2478949586
2478957643
2478966554
2478974000
2478980897
2478989320
2478997132
2479004884
2479012330
2479019959
2479027345
2479035462
2479042786
2479049378
2479060120
2479071412
2479084840
2479093507
2479100403
2479109254
2479117432
2479125367
2479132874
2479141236
2479148316
2479154969
2479161683
2479168335
2479175293
2479182435
2479189759
2479196534
2479203797
2479210816
2479218445
2479225586
2479232422
2479239563
2479246826
2479253845
2479260498
2479267334
2479275025
2479281372
2479288208
2479295838
2479302490
2479309265
2479315430
2479322083
2479328980
2479335877
2479342834
2479350098
2479357361
2479365295
2479371277
2479377808
2479385071
2479391601
2479398743
2479405823
2479411377
2479419678
2479427307
2479433594
2479439148
2479447143
2479453674
2479459655
2479467834
2479473694
2479481262
2479487426
2479494262
2479501953
2479509094
2479515258
2479521606
2479529418
2479535095
2479542175
2479548645
2479556213
2479561828
2479569335
2479575012
2479582763
2479590087
2479597839
2479604125
2479609252
2479617187
2479624450
2479630798
2479637878
2479644225
2479651550
2479658141
2479664367
2479673217
2479679870
2479687438
2479693542
2479701964
2479707763
2479714660
2479723266
2479731811
2479738769
2479745482
2479752440
2479758239
2479765197
2479773192
2479779601
2479793944
2479802916
2479810302
2479818663
2479825682
2479832152
2479838927
2479848387
2479854491
2479861632
2479871214
2479874693
2479885069
2479892943
2479902525
2479910033
2479916747
2479924132
2479933409
2479940428
2479946654
2479954100
2479960692
2479968199
2479976378
2479983031
2479989622
2479996947
2480005125
2480011717
2480020506
2480027586
2480036009
2480042112
2480050352
2480056395
2480062498
2480070005
2480078978
2480086790
2480094297
2480100950
2480106932
2480115110
2480120726
2480128660
2480136351
2480145323
2480150755
2480158933
2480164244
2480170713
2480177244
2480186521
2480193052
2480200498
2480206602
2480214781
2480221861
2480229673
2480235471
2480277219
2480309385
2480337583
2480360349
2480385617
2480399594
2480411191
2480421811
2480432370
2480446775
2480458371
2480466611
2480473569
2480483762
2480492307
2480500241
2480507993
2480517148
2480527219
2480536618
2480545712
2480555112
2480564511
2480574460
2480583493
2480591366
2480598141
2480608334
2480617550
2480625485
2480632870
2480641781
2480649594
2480660214
2480669919
2480678158
2480685788
2480698422
2480707882
2480716915
2480724850
2480737057
2480745175
2480753964
2480764889
2480780392
2480805294
2480825069
2480957149
2480981685
2481011104
2481035152
2481113887
2481138240
2481158809
2481200435
2481219356
2481235164
2481249751
2481261348
2481275691
2481291133
2481313044
2481334040
2481353877
2481403071
2481452143
2481510676
2481536677
2481567743
2481612360
2481643793
2481699579
2481799554
2481843683
2481867303
2482431572
2483964283
2484301013
2484886827
2485133530
2485345444
2485394333
2485418625
2485452316
2485477462
2485502243
2485525192
2485758101
2485784957
2485852522
2485941756
2485993330
2486061506
2486082380
2486104719
2486129316
2486150068
2486169355
2486198835
2486693280
2486726299
2486761089
2489112463
2489172216
2490792939
2490919282
2491222626
2491276825
2491306488
2491378692
2491404449
2491746489
2492807278
2493491663
2493961938
2499198008
2500007149
2500166817
2500187141
2500211861
2500237862
2500261177
2500282478
2500300117
2500314644
2500373909
2500386238
2500396797
2500407905
2500419990
2500432258
2500441535
2500453987
2500466499
2500477790
2500488471
2500496894
2500505256
2500513862
2500521003
2500528571
2500535529
2500543220
2500551032
2500558539
2500566474
2500574897
2500581672
2500590034
2500597297
2500605597
2500612922
2500620490
2500635444
2500661750
2500682135
2500695685
2500706855
2500717780
2500730536
2500741889
2500755011
2500765509
2500777228
2500788519
2500801398
2500812628
2500822089
2500833685
2500844061
2500854071
2500864752
2500876105
2500888128
2500914984
2500937628
2500965216
2500989508
2501012884
2501034979
2501057073
2501079778
2501105047
2501132513
2501160528
2501189031
2501213384
2501289800
2501448796
2501555973
2501601383
2501628422
2501653629
2501677982
2501702274
2501725651
2501748112
2501773258
2501825321
2501850834
2501874942
2501895755
2501920658
2501941654
2501966068
2501989383
2502012454
2502035342
2502057864
2502081973
2502106021
2502131839
2502155947
2502179263
2502202944
2502226382
2502251040
2502274233
2502297732
2502318911
2502342776
2502365603
2502388247
2502407107
2502428469
2502447817
2502473085
2502492983
2502505983
2502520204
2502531008
2502546816
2502561708
2502573366
2502585634
2502601808
2502618898
2502641847
2502664125
2502731813
2502756593
2502779176
2502804322
2502825929
2502842225
2502857179
2502875306
2502899964
2502926026
2502951356
2502977173
2503004273
2503028870
2503052857
2503078919
2503102906
2503125916
2503147644
2503171387
2503195984
2503221191
2503244873
2503270019
2503295837
2503320495
2503344787
2503366638
2503400024
2503919249
2504495236
2504721249
2504775020
2505258967
2505302119
2505330500
2505352778
2505373713
2505405512
2505439875
2505469171
2505984490
2506394340
2506784964
2507369984
2507664173
2507895618
2507940540
2507966785
2507991565
2508013537
2508040088
2508390184
2508432360
2508524645
2508582323
2508965622
2509414962
2509941633
2510112348
2510248578
2510285260
2510321576
2510357037
2510482037
2510510296
2510566387
2510600018
2510733196
2510772808
2510817485
2510857341
2510885173
2510918132
2510968120
2510993754
2511122782
2511159403
2511188029
2511323282
2511474466
2511744119
2511818704
2511878335
2511902871
2511928017
2511952248
2511985573
2512137611
2512162697
2512188087
2512211036
2512236000
2512508948
2512581824
2512609534
2512713843
2512778662
2512806067
2512830603
2512857824
2512881384
2512903051
2513024938
2513051427
2513073705
2513119115
2513145849
2513169591
2513193517
2513217992
2513267125
2513339879
2513437962
2513465001
2513489170
2513599522
2513895297
2514121981
2514148287
2514173068
2514199313
2514332735
2514360079
2514383211
2514399385
2514419344
2514443331
2514468111
2514503145
2514525056
2514550508
2514572725
2514593965
2514616243
2514639253
2514766206
2514940827
2514964081
2514989045
2515015473
2515116425
2515336822
2515364654
2515386627
2515401641
2515419036
2515436980
2515453277
2515469451
2515484954
2515500701
2515516753
2515531218
2515547515
2515564299
2515580107
2515597136
2515614653
2515630339
2515648100
2515663054
2515685759
2515710356
2515734099
2515879911
2515902189
2515929167
2515947233
2515985502
2516008817
2516032682
2516215238
2516239285
2516261807
2516283414
2516304715
2516325040
2516342313
2516358243
2516372403
2516389554
2516406460
2516423184
2516436856
2516452542
2516468411
2516483670
2516497769
2516513943
2516546292
2516573147
2516598476
2516648342
2516738857
2516770107
2516796047
2516822231
2516848232
2516874416
2516914088
2516942287
2516967372
2516992946
2517017054
2517039698
2517064845
2517086329
2517110133
2517134303
2517157862
2517179285
2517204615
2517227991
2517251551
2517276087
2517297327
2517321924
2517345179
2517448389
2517506433
2517561975
2517621240
2517651879
2517676355
2517701013
2517726342
2517791283
2517840539
2517865502
2517890832
2517915429
2517957726
2517984154
2518022362
2518126854
2518144493
2518166527
2518192161
2518249534
2518355308
2518467246
2518489951
2518507102
2518524436
2518543906
2518580710
2518612326
2518637229
2518659445
2518685202
2518710471
2518735922
2518759237
2518782919
2518808188
2518830893
2518852194
2518874960
2518898397
2518922567
2518946127
2518969991
2519076375
2519282552
2519322041
2519484028
2519516316
2519613727
2519639912
2519655720
2519671711
2519687458
2519703022
2519719318
2519734455
2519750934
2519833576
2519852680
2519868488
2519884845
2519900409
2519915240
2519932086
2519958270
2519978045
2519998431
2520015338
2520034198
2520054034
2520070452
2520087420
2520104571
2520119525
2520135455
2520150347
2520166583
2520183306
2520197405
2520212115
2520228289
2520243365
2520260271
2520273028
2520283709
2520295244
2520310442
2520326311
2520340227
2520354631
2520369280
2520391313
2520405840
2520422258
2520441484
2520457414
2520473100
2520495256
2520512102
2520529375
2520547929
2520562944
2520577531
2520592607
2520606157
2520622026
2520644181
2520668779
2520691911
2520824479
2520849198
2520872025
2520889420
2520904313
2520920060
2520932022
2520950333
2520964676
2520978836
2520991593
2521007096
2521023819
2521039749
2521055557
2521070572
2521087234
2521102005
2521117630
2521130447
2521144241
2521161026
2521177444
2521194717
2521212356
2521227188
2521242080
2521265396
2521287490
2521306594
2521322280
2521334548
2521346938
2521358169
2521373916
2521388137
2521401260
2521414626
2521426101
2521437453
2521449111
2521461745
2521472121
2521486037
2521497023
2521508071
2521521560
2521533644
2521545790
2521560317
2521571730
2521584059
2521596144
2521608412
2521619338
2521630629
2521643752
2521656996
2521670607
2521685927
2521698134
2521710890
2521723341
2521733839
2521745680
2521755934
2521766371
2521778456
2521788954
2521814650
2521823378
2521831678
2521839674
2521847486
2521855055
2521863783
2521872816
2521880934
2521891920
2521905348
2521919325
2521933485
2521947706
2521967970
2521988843
2522005567
2522020215
2522029554
2522041700
2522053174
2522066602
2522077161
2522090345
2522102063
2522113904
2522123365
2522136670
2522146619
2522154920
2522162854
2522172193
2522180554
2522191907
2522203931
2522212537
2522221387
2522229382
2522238477
2522247388
2522255139
2522265210
2522273694
2522282056
2522290173
2522298474
2522307324
2522315564
2522323926
2522333142
2522341015
2522351452
2522362744
2522373608
2522384289
2522394848
2522407605
2522416516
2522425549
2522435681
2522447644
2522456127
2522469494
2522482128
2522493054
2522506725
2522516491
2522526379
2522536205
2522546093
2522559582
2522571728
2522586193
2522599071
2522616283
2522631420
2522651195
2522672252
2522689647
2522706493
2522721141
2522738719
2522759716
2522832408
2522853099
2522873668
2522890453
2522910045
2522927989
2522944957
2522973521
2522996837
2523018443
2523042796
2523060191
2523076182
2523089671
2523103159
2523115244
2523126841
2523140818
2523153452
2523166270
2523182261
2523197764
2523213084
2523228464
2523242685
2523259714
2523272043
2523287973
2523301828
2523317026
2523327402
2523339914
2523351084
2523362741
2523374582
2523385507
2523398203
2523411020
2523425058
2523442087
2523455087
2523468576
2523489694
2523504343
2523518503
2523535592
2523550363
2523564645
2523578134
2523597665
2523613778
2523634408
2523652047
2523667489
2523682992
2523696237
2523712533
2523726632
2523742684
2523764718
2523776742
2523788399
2523800545
2523812386
2523825692
2523841378
2523856392
2523871102
2523883370
2523896187
2523912606
2523931404
2523952767
2523975899
2523998055
2524021919
2524043709
2524062691
2524079781
2524094856
2524110298
2524125496
2524137764
2524152961
2524169929
2524186470
2524199836
2524212410
2524224800
2524237861
2524249153
2524261543
2524271980
2524283332
2524298835
2524322700
2524342353
2524359016
2524379218
2524405952
2524431647
2524479499
2524513434
2524572760
2524600226
2524667242
2524722357
2524749029
2524773321
2524837896
2524873541
2524970769
2525048223
2525112798
2525397709
2525974795
2526346804
2527210998
2528112912
2528354123
2528826472
2529536920
2529563287
2529590753
2529883355
2530462577
2530557059
2530871328
2531744739
2532036303
2532161425
2532456407
2533008102
2533205856
2533421615
2534366925
2534478985
2534720867
2534973490
2535755532
2535927773
2536171241
2536401465
2536591345
2537192723
2537491123
2537667453
2537786227
2538132113
2538325166
2538578095
2538940094
2539020599
2539432830
2539962308
2540101895
2540237881
2540332241
2540412197
2540494045
2540660793
2540706569
2540753871
2540837184
2540920924
2540976466
2541058680
2541124170
2541157679
2541168421
2541186121
2541212732
2541233484
2541254541
2541455346
2541480066
2541629479
2541655907
2541679040
2541702599
2541912743
2541939293
2541963402
2541988914
2542013084
2542211997
2542237388
2542292563
2542316855
2542338889
2542359702
2542384970
2542408469
2542428183
2542469626
2542560080
2542801717
2542928487
2543466022
2544271379
2546908885
2547790169
2548243964
2548574103
2549012944
2549509708
2549866275
2550167726
2550371950
2550693177
2551045166
2551669432
2551976071
2552823298
2553133905
2553914787
2554376212
2554976308
2555048390
2555178639
2555716113
2555736865
2555756946
2555801440
2555818530
2555834216
2555845690
2555854968
2555864184
2555869616
2555879138
2555886218
2555894702
2555901843
2555911059
2555923205
2555939623
2555954577
2555971545
2555987047
2556002611
2556020251
2556042711
2556059130
2556072985
2556090746
2556103929
2556116686
2556129259
2556142015
2556153917
2556163561
2556176744
2556193468
2556207689
2556221422
2556235948
2556248643
2556262865
2556273057
2556284044
2556293931
2556303880
2556314683
2556325242
2556336412
2556346666
2556357835
2556366746
2556373887
2556380723
2556387498
2556395860
2556401658
2556416307
2556435044
2556455186
2556473313
2556485093
2556501267
2556518540
2556532273
2556546433
2556560105
2556573655
2556586777
2556597092
2556612473
2556625657
2556638779
2556650071
2556659348
2556667160
2556677231
2556691697
2556705124
2556721360
2556740036
2556754746
2556768784
2556784592
2556797287
2556809738
2556821701
2556834396
2556845627
2556858200
2556868881
2556877243
2556887253
2556901169
2556915268
2556927597
2556940658
2556955673
2556974594
2556988876
2557003524
2557020126
2557040878
2557065353
2557224898
2557249434
2557393172
2557634443
2557760297
2557790204
2557811750
2557831708
2557852765
2557869733
2557926984
2557948285
2558047406
2558091473
2558160443
2558214276
2558278973
2558303875
2558367962
2558394451
2558455791
2558567729
2558614299
2558643535
2558666911
2558724894
2558831462
2558853861
2558873087
2558895426
2558913493
2559201212
2559223611
2559261392
2559285989
2559308328
2559336160
2559359353
2559416360
2559441018
2559482034
2559508645
2559524392
2559577614
2559611550
2559638894
2560633825
2560876805
2560920201
2560992833
2561048680
2561090977
2561142796
2561166661
2561748202
2562004000
2566122397
2568593338
2573686587
2574156740
2574183290
2574212770
2575056884
2575583128
2579114857
2579643664
2580120348
2580246263
2580666489
2581270003
2581494123
2582047100
2582554667
2585406101
2585860079
2586719391
2587461454
2587922757
2589199060
2590114402
2590999226
2591495563
2592655166
2593584974
2594241283
2594667735
2594955698
2595347787
2595533211
2595869514
2597100223
2598055543
2598591614
2598621460
2598648926
2599383909
2600023251
2600822992
2603550219
2605024642
2605969891
2608945286
2609689486
2610199494
2610693878
2610757720
2611750577
2614188253
2615132343
2615343707
2615418902
2615737200
2615761797
2615783464
2615800737
2615824480
2615836198
2615847429
2615858903
2615868486
2615877763
2615888872
2615898576
2615909135
2615918291
2615927568
2615936906
2615949052
2615958024
2615968522
2615977861
2615988176
2615996843
2616009355
2616017717
2616030290
2616039750
2616048173
2616057267
2616067643
2616075334
2616088578
2616099931
2616110551
2616119828
2616131364
2616140885
2616148576
2616160111
2616168168
2616179887
2616190018
2616201432
2616209672
2616220841
2616231400
2616238846
2616252091
2616260758
2616270157
2616281571
2616291092
2616299942
2616314652
2616325333
2616334732
2616346451
2616354813
2616365860
2616373062
2616388809
2616398880
2616408218
2616420975
2616432083
2616440018
2616453506
2616461441
2616470474
2616481399
2616490921
2616500748
2616512466
2616523025
2616535721
2616545181
2616552688
2616564590
2616574661
2616586746
2616595535
2616764846
2616832778
2616921401
2616942580
2616966384
2616993178
2617014723
2617038466
2617060805
2617082350
2617115248
2617137587
2617157789
2617204359
2617240492
2617294691
2617318189
2617338636
2617357618
2617381666
2617409376
2617470350
2617509290
2617535474
2617558911
2617582898
2617607739
2617627576
2617890576
2618223888
2618244823
2618261729
2618280162
2618299205
2618318614
2618341502
2618365855
2618385386
2618401744
2618417185
2618431346
2618445384
2618459727
2618502879
2618518504
2618531565
2618547129
2618559946
2618576426
2618590037
2618604990
2618619883
2618634653
2618648813
2618664621
2618678904
2618692942
2618707956
2618719919
2618733103
2618747873
2618761179
2618775034
2618789621
2618804758
2618817819
2618832285
2618846078
2618860239
2618874948
2618889535
2618902170
2618916696
2618931222
2618945627
2618962716
2618976083
2618990731
2619004953
2619016854
2619033639
2619050241
2619064462
2619079110
2619093087
2619107186
2619117745
2619134774
2619149667
2619164925
2619178719
2619191659
2619205269
2619220345
2619236397
2619251046
2619263863
2619280892
2619296883
2619311592
2619325753
2619342171
2619357491
2619371040
2619387093
2619404976
2619460091
2619481758
2619503425
2619525215
2619544868
2619562629
2619578498
2619594917
2619610420
2619624946
2619642402
2619658149
2619677436
2619693183
2619707954
2619723212
2619738898
2619754401
2619768073
2619782111
2619795478
2619810859
2619824042
2619838752
2619853034
2619866645
2619880378
2619894110
2619907843
2619921149
2619934638
2619947821
2619961859
2619974921
2619990180
2620005988
2620019476
2620032294
2620050238
2620064703
2620080084
2620093390
2620106878
2620120001
2620135199
2620148565
2620163397
2620175543
2620190130
2620203497
2620217291
2620232183
2620246343
2620260931
2620273931
2620290533
2620306280
2620321050
2620339422
2620356084
2620369939
2620385625
2620814579
2620843205
2620875004
2620891300
2620911442
2620934879
2620954105
2620969303
2620985233
2621005680
2621024296
2621040104
2621055729
2621071109
2621085819
2621101078
2621116825
2621130741
2621146976
2621161014
2621174075
2621188236
2621200443
2621211307
2621227359
2621241336
2621256290
2621268924
2621280215
2621291812
2621302249
2621315188
2621327762
2621339480
2621351260
2621362918
2621373843
2621385867
2621398806
2621408572
2621421939
2621433108
2621444277
2621454897
2621466921
2621478213
2621489871
2621501894
2621512759
2621524905
2621536135
2621546633
2621558291
2621570254
2621581728
2621594607
2621605715
2621617312
2621628176
2621639650
2621652163
2621664003
2621674196
2621685183
2621697084
2621706301
2621718508
2621729189
2621742433
2621755617
2621766786
2621777589
2621786989
2621800417
2621809084
2621822450
2621832521
2621844728
2621856935
2621865480
2621877687
2621891969
2621902833
2621912172
2621925233
2621933778
2621946717
2621957460
2621970216
2621982789
2621995607
2622008241
2622018189
2622030274
2622042481
2622053468
2622065431
2622076966
2622088868
2622099122
2622111878
2622123170
2622135194
2622146363
2622159791
2622170472
2622181336
2622195740
2622207032
2622217652
2622227784
2622245911
2622263672
2622276429
2622295899
2622308655
2622320862
2622331726
2622344055
2622354797
2622364868
2622377380
2622388489
2622398804
2622409180
2622421753
2622432556
2622443970
2622455261
2622466003
2622477600
2622490356
2622501281
2622513672
2622524597
2622536255
2622546997
2622558593
2622568847
2622579040
2622592285
2622603576
2622615356
2622627441
2622638976
2622649841
2622661865
2622672729
2622683654
2622695068
2622704589
2622716003
2622725524
2622737853
2622749389
2622768493
2622779967
2622793761
2622805968
2622818908
2622830993
2622843932
2622855468
2622867919
2622882323
2622894164
2622904112
2622917662
2622929503
2622942198
2622953551
2622965697
2622974913
2622998351
2623008116
2623021605
2623029539
2623036925
2623045714
2623055052
2623063170
2623071593
2623081175
2623088072
2623096800
2623105955
2623112242
2623123472
2623155455
2623177183
2623202818
2623226133
2623244932
2623281675
2623307066
2623331296
2623353818
2623379697
2623400266
2623422605
2623522397
2623563779
2623598080
2623624814
2623705197
2623747616
2623770565
2623982845
2624009884
2624031978
2624054683
2624087093
2624107051
2624125850
2624148311
2624181453
2624212093
2624234126
2624255977
2624276118
2624295710
2624314265
2624330439
2624346431
2624358577
2624372309
2624385859
2624404109
2624420344
2624437495
2624453730
2624469294
2624487727
2624508417
2624524287
2624543207
2624560908
2624579096
2624597040
2624616816
2624633417
2624678156
2624704950
2624737177
2624750421
2624774042
2624793451
2624813165
2624830316
2624848810
2624903802
2624995843
2625035577
2625107110
2625133965
2625163079
2625179436
2625195061
2625212456
2625231377
2625286248
2625321160
2625366875
2625385735
2625401848
2625417717
2625439323
2625468559
2625485954
2625514885
2625538322
2625555290
2625583305
2625605094
2625624687
2625646537
2625667411
2625685233
2625700614
2625717826
2625733634
2625753287
2625783256
2625800895
2625823478
2625845999
2625937064
2625962149
2626110403
2626135427
2626243704
2626269155
2626298025
2626469472
2626502492
2626531972
2626555653
2627080188
2627105762
2627128101
2627150867
2627175891
2627199817
2627226123
2627249988
2627274035
2627404589
2627431384
2627454333
2627477160
2627499560
2627524645
2627544420
2627564440
2627582628
2627630724
2627653429
2627677172
2627698778
2627721117
2627744920
2627849595
2627866929
2627885667
2627900377
2627919664
2627943833
2627965379
2627989244
2628010117
2628032578
2628417038
2628845931
2628872420
2628967268
2629012312
2629047957
2629089766
2629129560
2629176618
2629205305
2629228559
2629252302
2629278364
2629304059
2629329511
2629364850
2629388593
2629415631
2629576459
2629616376
2629666974
2629785504
2630120342
2630529764
2630806070
2631508400
2638086325
2642595896
2643366646
2643744330
2644269048
2646442626
2647446164
2651558702
2655116371
2655407630
2658816130
2659245633
2660180750
2660589136
2660782372
2661090538
2661306724
2661520591
2661711203
2662098226
2662313374
2662665363
2664068924
2664469863
2666544076
2667730536
2669370119
2670119690
2671247373
2671643978
2671848567
2671957026
2672853020
2673382560
2673896475
2674146108
2674740467
2675029956
2675193896
2675419115
2675605272
2675769822
2676188034
2676599288
2677038678
2677294903
2677747112
2678537515
2679300819
2679705786
2680629978
2681236239
2681812897
2682233673
2682388396
2682504180
2683843715
2684060206
2684369409
2684689050
2684913902
2685052208
2685110923
2685548483
2685635031
2685768148
2687629289
2687690324
2687813675
2687841812
2687871903
2687891983
2687915604
2687940811
2687968216
2687994766
2688022964
2688045242
2688084610
2688107193
2688136062
2688229873
2688253005
2688274490
2688294631
2688318191
2688342177
2688372756
2688418227
2688445449
2688472426
2688496901
2688521620
2688547255
2688571364
2688594435
2688658644
2688696974
2688729689
2688752638
2688773634
2688800001
2688823316
2688848585
2688889051
2688913282
2688928602
2688945264
2689019788
2689063123
2689093457
2689113660
2689135877
2689151685
2689160901
2689168835
2689177441
2689185498
2689193677
2689201245
2689209057
2689218396
2689227246
2689236645
2689245190
2689255078
2689263928
2689272107
2689280774
2689290356
2689300061
2689309765
2689320874
2689334423
2689346997
2689359082
2689370617
2689381115
2689398510
2689409130
2689420666
2689434521
2689446606
2689454662
2689467480
2689476574
2689486584
2689495006
2689504162
2689512035
2689519420
2689527050
2689543712
2689560314
2689585216
2689593212
2689603099
2689611827
2689619274
2689627574
2689635021
2689642711
2689651134
2689657970
2689666271
2689673412
2689681163
2689688304
2689695812
2689702831
2689710155
2689718089
2689724925
2689731151
2689740062
2689747630
2689753185
2689760020
2689767894
2689774913
2689782054
2689794383
2689798778
2689809886
2689819469
2689827647
2689831737
2689847972
2689860240
2689958567
2690072825
2690187143
2690406991
2690425729
2690441720
2690458017
2690473825
2690489450
2690506234
2690521371
2690536630
2690551095
2690565682
2690581491
2690596261
2690613107
2690627938
2690643563
2690659188
2690674935
2690690682
2690706002
2690719735
2690735909
2690805916
2690825386
2690844307
2690863167
2690883309
2690904305
2691012276
2691137519
2691190803
2691224983
2691255805
2691272163
2691292670
2691343024
2691412604
2691433600
2691488715
2691544440
2691561652
2691581732
2691598273
2691668036
2691693365
2691720037
2691736700
2691752325
2691768011
2691783636
2691797186
2691810430
2691828375
2691848333
2691869817
2691885808
2691901006
2691914983
2691930181
2691947820
2691970830
2691987371
2692002752
2692014104
2692028569
2692045232
2692061223
2692168339
2692190800
2692208317
2692228032
2692249516
2692282475
2692302861
2692319218
2692339482
2692384892
2692401981
2692420597
2692450138
2692511539
2692531986
2692552616
2692570194
2692581485
2692596134
2692608951
2692621280
2692631778
2692645389
2692659915
2692673038
2692686221
2692700321
2692717349
2692733157
2692747867
2692764590
2692779971
2692794925
2692808230
2692821353
2692833438
2692855105
2692877505
2692900637
2692923587
2692961794
2692985293
2693009341
2693032595
2693054751
2693077578
2693148195
2693175661
2693296388
2693407350
2693476930
2693863526
2694309752
2694346557
2694377684
2694532957
2694609190
2694650755
2694679380
2695396114
2695444454
2695791377
2696109614
2696727410
2696838249
2697000541
2697219901
2697317923
2697381644
2697454764
2697579947
2697679800
2697754934
2697829946
2697879690
2697979360
2698087819
2698149525
2698173573
2698310658
2698535572
2698662219
2698874804
2700579817
2700686872
2702861977
2703001869
2703037696
2704868380
2705594941
2706661466
2707123013
2707371792
2708108972
2708382104
2708607262
2708760277
2709458395
2710408161
2710592242
2710622943
2714963691
2724101607
2724246138
2737236828
2738368417
2738391793
2738417672
2738441475
2738462044
2738630745
2739135871
2739673772
2745545888
2746332263
2747798812
2749394572
2749731852
2754236723
2757834797
2761805673
2762941108
2765798705
2766372861
2766536130
2766565793
2766590695
2766613400
2766635251
2766657834
2766674191
2766683835
2766691830
2766702084
2766710019
2766717892
2766726559
2766734616
2766743222
2766752316
2766759823
2766901302
2766920834
2766930538
2766939327
2766950008
2766959347
2766968746
2766977474
2766985226
2766994259
2767002376
2767012020
2767020687
2767028499
2767037044
2767044613
2767051754
2767058773
2767067623
2767075130
2767082698
2767089473
2767097591
2767105159
2767109127
2767119381
2767130245
2767137203
2767146053
2767151668
2767159603
2767165828
2767173519
2767181697
2767190242
2767197566
2767203487
2767211971
2767219051
2767225887
2767231624
2767243037
2767268794
2767315181
2767330195
2767346492
2767359858
2767375483
2767391108
2767427546
2767450740
2767528803
2767556818
2767585810
2767619318
2767637018
2767653376
2767673456
2767691828
2767709894
2767730829
2767754938
2767776544
2767797113
2767820184
2767866571
2767895196
2767919000
2767938470
2767955072
2767972223
2767990045
2768008233
2768036981
2768059686
2768084405
2768124444
2768152276
2768177178
2768200677
2768221367
2768244256
2768271172
2768308586
2768330864
2768357170
2768380791
2768403984
2768423637
2768500908
2768524772
2768548149
2768571708
2768595634
2768616264
2768639091
2768663200
2768687003
2768712516
2768733573
2768765555
2768785453
2768805289
2768821830
2768837821
2768860709
2768876212
2768889090
2768904166
2768917044
2768934500
2768949027
2768962760
2768975760
2768988699
2769002493
2769015982
2769028922
2769041067
2769053702
2769067068
2769079092
2769093680
2769110037
2769122183
2769134451
2769142447
2769150259
2769157950
2769167654
2769182608
2769197500
2769212820
2769226858
2769243337
2769257742
2769272390
2769286672
2769299795
2769310903
2769322439
2769336233
2769348196
2769358511
2769371938
2769383108
2769395742
2769411245
2769424611
2769439077
2769453725
2769470937
2769489370
2769503408
2769519277
2769532949
2769545522
2769556630
2769568837
2769579396
2769591359
2769601430
2769613332
2769625661
2769639027
2769650258
2769663258
2769679372
2769695363
2769708546
2769724537
2769737782
2769749257
2769757985
2769770741
2769783253
2769793812
2769804982
2769817311
2769831349
2769842091
2769853626
2769863819
2769877003
2769896046
2769914722
2769931263
2769944752
2769956409
2769972401
2769989185
2770003773
2770021839
2770038257
2770052784
2770070118
2770085865
2770102893
2770119190
2770137927
2770155994
2770173450
2770194202
2770209338
2770226489
2770242786
2770260608
2770276843
2770293078
2770312121
2770330066
2770348864
2770368213
2770391833
2770413806
2770437609
2770449938
2770462512
2770474169
2770486376
2770499499
2770511279
2770523180
2770537279
2770547777
2770561022
2770572130
2770587389
2770690721
2770707506
2770722032
2770736681
2770757738
2770834581
2770856370
2770895433
2771471359
2771538070
2771565902
2771584213
2771599899
2771613815
2771629623
2771646957
2771757064
2772311628
2772442304
2772470990
2772496076
2772520551
2772627301
2772652936
2773443339
2773464335
2773668009
2773728678
2773872110
2773954446
2773983987
2774004617
2774039346
2774069619
2774093301
2774114419
2774135171
2774154336
2774174416
2774191262
2774203225
2774221352
2774235939
2774250954
2774267556
2774282936
2774299965
2774315407
2774330727
2774346047
2774362038
2774375893
2774394936
2774410011
2774425514
2774439003
2774454201
2774469093
2774483009
2774505287
2774596839
2774612586
2774628089
2774644019
2774658973
2774679298
2774711097
2774742408
2774764319
2774786719
2774802283
2774818824
2774835791
2774852759
2775152624
2775628758
2775724766
2775742955
2775759556
2775775303
2775789341
2775804722
2775819431
2775837803
2775851841
2775864048
2775878880
2775893223
2775908909
2775923313
2775935337
2775948032
2775961338
2775974521
2775987217
2775998386
2776014133
2776030368
2776052158
2776074436
2776090000
2776105380
2776119357
2776162021
2776184177
2776205844
2776225558
2776241550
2776255710
2776270480
2776284762
2776299167
2776318209
2776335238
2776507601
2776524569
2776542635
2776556795
2776569735
2776584993
2776602755
2776620211
2776638643
2776655855
2776671907
2776684725
2776702852
2776719026
2776733736
2776749666
2776765840
2776780489
2776795930
2776810884
2776824129
2776839387
2776855440
2776871187
2776889680
2776912629
2776933992
2776955903
2776974336
2776992829
2777006501
2777025056
2777041901
2777056611
2777070710
2777085664
2777100434
2777112641
2777127961
2777141450
2777156586
2777168305
2777182587
2777196808
2777209870
2777223542
2777237763
2777250763
2777263459
2777276886
2777288971
2777303925
2777315888
2777328339
2777341644
2777352203
2777369720
2777385712
2777406952
2777426483
2777448944
2777469146
2777490387
2777512359
2777535614
2777556732
2777582794
2777914946
2777939116
2778029387
2778049040
2778074064
2778094023
2778119719
2778234037
2778266264
2778304349
2778328580
2778349943
2778368924
2778389920
2778409391
2778430692
2778451505
2778467374
2778488675
2778506314
2778521329
2778537625
2778566190
2778582364
2778598050
2778639676
2778666348
2778904446
2779184535
2779219264
2779243434
2781182760
2782045856
2783078995
2783318008
2783480117
2783720717
2783753188
2783785109
2783808730
2783834487
2783873671
2783897536
2783917250
2784566052
2785002758
2785702463
2786252999
2786697089
2786716620
2786750617
2787032660
2787051886
2787067389
2787078131
2787090399
2787109442
2787127874
2787144415
2787160467
2787171880
2787181402
2787191656
2787201727
2787210394
2787217657
2787225713
2787233770
2787241827
2787249029
2787258123
2787265142
2787347112
2787379399
2787404424
2787429509
2787452825
2787476140
2787497990
2787522710
2787548894
2787572453
2787593693
2787621098
2787656987
2787672917
2787688176
2787702397
2787715885
2787730595
2787745670
2787763004
2787780277
2787795658
2787810856
2787827824
2787848881
2787866825
2787879215
2787894779
2787910587
2787926395
2787940494
2787957828
2787975284
2787994754
2788013248
2788029727
2788049014
2788062991
2788077213
2788092960
2788106082
2788139346
2788165164
2788185672
2788200747
2788213382
2788228640
2788243289
2788260379
2788274966
2788289431
2788304385
2788319033
2788342471
2788359072
2788372988
2788388064
2788402712
2788416933
2788431704
2788444826
2788460451
2788479372
2788493105
2788508242
2788521425
2788536440
2788549868
2788564455
2788582155
2788603701
2788623781
2788648256
2788701479
2788716615
2788731264
2788745302
2788760621
2788774904
2788792055
2788806398
2788821656
2788838502
2788859681
2788879518
2788900392
2788921815
2788943482
2788960633
2789239624
2789791808
2789817748
2789839903
2790123411
2790200742
2790299558
2790361447
2790453427
2790516598
2790542905
2790600522
2790703243
2790761105
2790789120
2790952694
2790978633
2791002315
2791046077
2791169673
2791195491
2791217646
2791242549
2791316401
2791354426
2791390314
2791419184
2791445246
2791470270
2791494989
2791595758
2794232409
2794557543
2794749009
2795052903
2795832625
2796159956
2796592266
2796908062
2797257731
2797451944
2797711160
2798857336
2799322911
2800125216
2800163241
2800187228
2800568819
2800991242
2802593838
2802927455
2803269557
2803532312
2803742883
2804397483
2804766684
2805340718
2805873737
2806078998
2806255145
2806537737
2806897355
2807269302
2807547805
2807709242
2808092847
2808619213
2809065074
2809385630
2809707162
2810349739
2810956732
2811411809
2811871097
2812239809
2812661683
2813108032
2813441589
2814024229
2814616695
2815184382
2815678155
2816290458
2817000661
2817325307
2817634754
2818682298
2819254806
2819483199
2819578963
2819681197
2819874617
2820124311
2820337140
2820475018
2820613628
2820717693
2820915935
2823402073
2823889011
2824386324
2824605806
2824853119
2825098297
2825250152
2825647124
2825880888
2826150418
2826672634
2827114588
2827417139
2827643151
2828183372
2828518576
2828764792
2829105794
2829329976
2829629413
2829865069
2829996478
2830264421
2830297808
2830449358
2830728349
2831267776
2834264289
2835233403
2835746646
2836354372
2837202209
2837363402
2837487914
2837563292
2837761473
2837783445
2837802244
2837824583
2837847105
2837867612
2837886716
2837904966
2837921201
2837935911
2837949827
2837969053
2837987363
2838007688
2838027585
2838053525
2838074094
2838096433
2838116147
2838137448
2838148435
2838160153
2838171323
2838180783
2838190427
2838200680
2838217404
2838247494
2838279049
2838303524
2838322567
2838343502
2838359982
2838375790
2838393063
2838409115
2838417538
2838425839
2838434994
2838441403
2838448422
2838457699
2838464474
2838472347
2838479366
2838488827
2838497250
2838503048
2838513363
2838521541
2838529781
2838536861
2838545284
2838554500
2838561947
2838570308
2838578182
2838585445
2838595211
2838606990
2838619136
2838629879
2838645504
2838667598
2838687129
2838703182
2838718318
2838733150
2838745174
2838755855
2838768977
2838779170
2838790340
2838801814
2838811519
2838821712
2838831721
2838842036
2838854670
2838863765
2838874934
2838885249
2838895930
2838907161
2838919123
2838927974
2838938899
2838950556
2838959773
2838971736
2838981990
2839000422
2839016840
2839032221
2839054926
2839074274
2839120234
2839143427
2839168268
2839189753
2839214228
2839236200
2839260980
2839283686
2839306391
2839330988
2839355035
2839378717
2839403375
2839426935
2839450738
2839469537
2839488153
2839504266
2839522088
2839537042
2839553094
2839570428
2839587274
2839598809
2839610772
2839621026
2839631768
2839643426
2839654778
2839664666
2839676080
2839686944
2839697564
2839709099
2839720452
2839732354
2839744927
2839758233
2839769829
2839780510
2839791497
2839802727
2839813530
2839823662
2839834465
2839845757
2839855095
2839865776
2839876274
2839886284
2839893120
2839900200
2839907951
2839915581
2839922905
2839930901
2839937614
2839946220
2839952812
2839960503
2839967644
2839978996
2839988213
2839996208
2840004143
2840011833
2840019890
2840027458
2840037102
2840044853
2840053398
2840062309
2840072990
2840081169
2840090324
2840099662
2840107780
2840116020
2840125358
2840134086
2840142448
2840155326
2840176628
2840197440
2840219718
2840243095
2840267203
2840290702
2840436881
2840457694
2840474967
2840495780
2840514395
2840530081
2840546133
2840559683
2840575796
2840588003
2840601675
2840614615
2840628714
2840640860
2840655630
2840669241
2840682058
2840695669
2840709768
2840723440
2840735891
2840750234
2840763296
2840777273
2840789358
2840804617
2840825002
2840840017
2840856557
2840873342
2840887807
2840903860
2840919179
2840936941
2840951162
2840963735
2840982412
2841004934
2841020375
2841033803
2841048329
2841063466
2841078786
2841094594
2841109303
2841125356
2841140004
2841156117
2841171620
2841187794
2841207142
2841222767
2841236378
2841249623
2841262623
2841277882
2841292836
2841307850
2841322255
2841338246
2841350270
2841366444
2841379811
2841394093
2841408558
2841421619
2841435047
2841447437
2841462330
2841476490
2841489857
2841503223
2841518177
2841531360
2841544056
2841557728
2841570789
2841584095
2841596912
2841610462
2841623767
2841637989
2841650806
2841665088
2841678638
2841692676
2841705982
2841717212
2841731311
2841744861
2841759753
2841773852
2841787585
2841800830
2841812793
2841825732
2841837512
2841852405
2841868213
2841884692
2841898486
2841912158
2841924792
2841938708
2841953234
2841967028
2841981738
2841994677
2842009264
2842021716
2842036120
2842048632
2842062731
2842076220
2842090014
2842103869
2842117113
2842129503
2842144640
2842158983
2842172411
2842186144
2842198473
2842212023
2842225634
2842238756
2842254625
2842268297
2842280321
2842294969
2842307909
2842320177
2842335191
2842348619
2842362230
2842375719
2842389696
2842403062
2842415025
2842428453
2842442430
2842454698
2842471177
2842484544
2842497911
2842509446
2842524583
2842541062
2842554307
2842569322
2842582505
2842596238
2842609177
2842622483
2842637376
2842651353
2842665086
2842681565
2842696091
2842709824
2842724045
2842737534
2842749802
2842764817
2842776658
2842791245
2842801926
2842811264
2842818528
2842824936
2842832871
2842840256
2842846970
2842853440
2842860886
2842867966
2842876023
2842884262
2842889389
2842897080
2842904221
2842910812
2842916611
2842926437
2842932419
2842939072
2842949081
2842955063
2842963913
2842971054
2842984787
2842995285
2843006637
2843021164
2843029526
2843038315
2843047531
2843055465
2843062606
2843070053
2843076706
2843084518
2843091354
2843099838
2843107223
2843113998
2843121383
2843128646
2843136459
2843144332
2843152267
2843159896
2843168624
2843174972
2843184066
2843190353
2843197555
2843205367
2843213668
2843220260
2843227584
2843234908
2843242294
2843249923
2843258285
2843264754
2843271346
2843279830
2843286361
2843294295
2843306685
2843317855
2843334884
2843350325
2843360579
2843372115
2843398116
2843410994
2843423812
2843433089
2843455001
2843479598
2843504683
2843525008
2843543990
2843567366
2843594404
2843606917
2843614668
2843622847
2843630110
2843637922
2843646223
2843653975
2843662825
2843670881
2843678755
2843686445
2843693037
2843700727
2843708479
2843716841
2843724226
2843731001
2843737226
2843745527
2843752607
2843762129
2843769148
2843777143
2843783796
2843791181
2843798811
2843807050
2843815778
2843823774
2843831892
2843839033
2843846967
2843854291
2843858991
2843870527
2843878156
2843884199
2843892194
2843897809
2843905927
2843912946
2843920942
2843928388
2843936384
2843943158
2843951398
2843959821
2843967145
2843974958
2843985028
2843990338
2843998395
2844004316
2844012555
2844019025
2844028607
2844036115
2844043317
2844050153
2844058331
2844064435
2844071820
2844080121
2844088666
2844094708
2844103742
2844110028
2844117780
2844129193
2844135846
2844145062
2844156537
2844168988
2844178570
2844190411
2844213482
2844223004
2844231854
2844245709
2844267498
2844280926
2844289288
2844299664
2844306988
2844316632
2844328900
2844345928
2844366436
2844384625
2844398480
2844407818
2844428204
2844439251
2844451946
2844459881
2844467571
2844474407
2844481487
2844489666
2844496502
2844503032
2844509380
2844516643
2844523357
2844529705
2844536358
2844545086
2844551738
2844558696
2844565166
2844571575
2844576824
2844584758
2844591106
2844596843
2844602397
2844611187
2844619365
2844624309
2844631572
2844639263
2844645671
2844653606
2844660808
2844668010
2844674724
2844681377
2844688335
2844694011
2844703349
2844710979
2844717693
2844724040
2844731731
2844738689
2844746623
2844754192
2844767558
2844785625
2844819987
2844842387
2844865092
2844924601
2844946879
2844968241
2845076700
2845101114
2845123331
2845144022
2845165384
2845179605
2845193155
2845205240
2845217203
2845230997
2845242349
2845259928
2845290689
2845313211
2845365884
2845385232
2845402322
2845453592
2845472512
2845488198
2845506814
2845524758
2845540444
2845564919
2845584084
2845602700
2845618630
2845629250
2845639626
2845651101
2845661233
2845673073
2845693825
2845715371
2845739174
2845758767
2845779824
2845801918
2845820412
2845835243
2845846535
2845876503
2845917091
2845939003
2846236060
2846687536
2846711828
2846733618
2846772558
2846794042
2846806493
2846831213
2846845495
2846861181
2846875585
2846894872
2846916845
2846979711
2847004003
2847026952
2847048070
2847069859
2847089696
2847113011
2847155369
2847200657
2847216527
2847230381
2847244481
2847260350
2847274266
2847288609
2847304417
2847320591
2847336521
2847350437
2847366612
2847381382
2847395969
2847412815
2847431309
2847452061
2847475071
2847498325
2847521946
2847546970
2847568637
2847618198
2847641940
2847662753
2847677219
2847692661
2847709567
2847722751
2847738559
2847752109
2847765658
2847778964
2847793796
2847810275
2847824435
2847838717
2847852084
2847866244
2847879184
2847892672
2847906893
2847920687
2847934725
2847949130
2847961642
2847974825
2847989291
2848004244
2848019991
2848040133
2848055697
2848070284
2848085360
2848099337
2848115694
2848129793
2848145540
2848158358
2848175692
2848190096
2848205965
2848223787
2848240083
2848256807
2848271944
2848288423
2848307283
2848329134
2848442353
2848603059
2849084808
2849123443
2854981888
2858475958
2858551458
2858677923
2858814641
2859192509
2859272831
2859705630
2859840762
2861470579
2862934199
2863041132
2863081110
2866776230
2871362705
2873584989
2876369772
2880566661
2883347354
2883963991
2887103204
2888129019
2889217396
2891183699
2893233560
2893977210
2894245581
2895368869
2896989287
2897937771
2898027065
2898052212
2898075283
2898101162
2898276515
2898342616
2898398219
2898420924
2898450343
2898519984
2898545741
2898570948
2898616602
2899752525
2902016862
2902164079
2902293107
2902520218
2902825393
2903449842
2903654676
2904982187
2905802497
2906071234
2906301275
2906678899
2906880802
2907172062
2907256900
2907284305
2907295718
2907306766
2907885927
2907918153
2907950746
2907975221
2907998292
2908019471
2908039613
2908065736
2908127809
2908191407
2908224305
2908242799
2908263611
2908287354
2908312562
2908344727
2913835314
2914638717
2916627909
2917141457
2917167214
2917188454
2917204201
2917222024
2917236428
2917249978
2917265175
2917282387
2917297707
2917312355
2917329323
2917345314
2917362770
2917383949
2917406777
2917429115
2917454079
2917475746
2917595497
2917623817
2917703346
2917725806
2917750282
2917780982
2917825110
2917849280
2917871558
2917894812
2917917762
2917941016
2917961646
2918025427
2918063513
2918101416
2918124365
2918142553
2918196936
2918221411
2918235205
2918273596
2918295080
2918322179
2918342443
2918365209
2918407323
2918431371
2918449621
2918483800
2918503637
2918526891
2918548863
2918569493
2918592442
2918612706
2918629857
2918646947
2918670750
2918707677
2918727574
2918752781
2918777928
2918800999
2918826817
2918877720
2918921909
2918947971
2918964390
2918985813
2919008091
2919049961
2919073337
2919098239
2919121067
2919145114
2919175327
2919197177
2919231906
2919255466
2919332126
2919348239
2919363986
2919380954
2919396212
2919416232
2919438388
2919458468
2919482089
2919504305
2919525240
2919559847
2919579561
2919654146
2919673677
2919767610
2919828035
2919854768
2919882783
2919902620
2919919282
2919941926
2920048860
2920072907
2920097871
2920119416
2920137116
2920153535
2920169282
2920186188
2920204621
2920223115
2920240265
2920255951
2920271759
2920288727
2920303681
2920317047
2920333161
2920350922
2920368561
2920385223
2920401032
2920422699
2920439972
2920458649
2920477814
2920498504
2920542999
2920564422
2920806243
2921050627
2921111418
2921131926
2921148771
2921165312
2921181303
2921194792
2921217680
2921241667
2921379056
2921406949
2921434720
2921461698
2921489225
2921517545
2921669522
2922118740
2922348414
2922865015
2925293841
2928084789
2929580207
2930495122
2930851566
2932117798
2932502258
2933414548
2933710080
2933813656
2934675775
2935603202
2935629264
2935658378
2935681266
2935698051
2935717521
2935769706
2935788810
2935816153
2935834403
2935850394
2935868094
2935888358
2935914603
2936277273
2936309865
2936328237
2936365468
2936482289
2936845936
2936870289
2936905018
2937017444
2937074329
2937107288
2937143848
2937182971
2937400073
2937668382
2937882005
2937907823
2937931443
2937953416
2938008225
2938028428
2938051255
2938070786
2938092637
2938216233
2938240708
2938262375
2938282883
2938681869
2938880721
2939457135
2939839275
2940042278
2940075298
2940103740
2940159038
2940282695
2940419901
2940491923
2940515543
2940538248
2940558878
2941064614
2941081826
2941102883
2941126931
2941147805
2941168618
2941188149
2941212746
2941234291
2941329445
2941423744
2941441749
2941453163
2941467262
2941479652
2941489418
2941509498
2941634437
2941656653
2941677833
2941697547
2941718543
2941738684
2941758704
2941779761
2941798377
2941933874
2941954199
2941975012
2941995825
2942017675
2942039221
2942059851
2942151464
2942174352
2942198766
2942219030
2942239660
2942259008
2942279699
2942299535
2942318578
2942336705
2942357640
2942377477
2942395848
2942421483
2942439244
2942461644
2942480809
2942499425
2942517613
2942538304
2942558018
2942577183
2942597020
2942615330
2942634495
2942653965
2942673497
2942693089
2942712864
2942731724
2942750401
2942768467
2942782261
2942806736
2942822849
2942845615
2942866306
2942884433
2942903782
2942921360
2942940280
2942961338
2942983921
2943003513
2943021884
2943041660
2943060275
2943080295
2943098910
2943118381
2943135959
2943155917
2943174899
2943196322
2943214145
2943235019
2943254061
2943272311
2943292147
2943316317
2943338290
2943417330
2943523531
2943550386
2943585176
2943671663
2943699922
2943722444
2943754304
2944390350
2944407562
2944422149
2944464508
2944486297
2944510894
2944535491
2944595611
2944620513
2944661590
2944679595
2944699187
2944713774
2944732329
2944748992
2944769499
2944784453
2944798064
2944811980
2944823332
2944835722
2944851225
2944869841
2944883635
2944899199
2944910795
2944940397
2944958708
2944976164
2944990568
2945004728
2945017057
2945029875
2945044584
2945057585
2945091520
2945111967
2945131010
2945146269
2945162260
2945175748
2945187894
2945202299
2945216947
2945230070
2945245572
2945260648
2945281949
2945303251
2945355008
2945409390
2945422635
2945438626
2946046657
2946071132
2946094936
2946124110
2946147731
2946166713
2946192836
2946216090
2946398646
2946422022
2946453333
2946470057
2946486597
2946526636
2946545923
2946561670
2946576196
2946590662
2946626123
2946690149
2946771631
2946971642
2946998864
2947043358
2947075280
2947120385
2947142906
2947446617
2947568809
2947679465
2947829672
2947848593
2947865561
2947881613
2947901510
2948019918
2948100301
2948182027
2948239583
2948265767
2948305684
2948326436
2948345967
2948364949
2948384175
2948403645
2948421773
2948437947
2948455220
2948474812
2948489644
2948504170
2948523945
2948541401
2948560811
2948718342
2948737568
2948753559
2948769001
2948790119
2948806721
2948820881
2948836323
2948857685
2948872882
2948900043
2949017963
2949035785
2949075763
2949116473
2949139239
2949159076
2949179278
2949201190
2949217425
2949236346
2949254595
2949276751
2949295733
2949317461
2949336016
2949357989
2949372515
2949383562
2949394793
2949409014
2949421343
2949432879
2949443194
2949456560
2949470659
2950075272
2950526809
2951428784
2951456372
2951677929
2952111094
2952324961
2952390146
2952424143
2953091439
2953262031
2953328621
2953376655
2953402351
2953422737
2953447029
2953482551
2953503242
2953531623
2953623786
2953647895
2953672980
2953695197
2953723090
2953742804
2953766486
2953788763
2954274114
2954344487
2954364995
2954393803
2954415349
2954434148
2954455754
2954479191
2954499455
2954516301
2954534367
2954555729
2954570744
2954586735
2954602726
2954620854
2954638127
2954655705
2954717777
2954741947
2954758976
2954772404
2954787906
2954806217
2954820072
2954834476
2954850711
2954866275
2954881168
2954895511
2954909610
2954924442
2954940860
2954956912
2955030704
2955045413
2955062198
2955077640
2955093265
2955108279
2955122989
2955136111
2955146548
2955160647
2955179812
2955201174
2955221682
2955256289
2955352297
2955390932
2955426577
2955450075
2955468996
2955489076
2955511843
2955529421
2955554201
2955579042
2955641603
2955735597
2955863038
2955874513
2955887025
2955898560
2955913697
2956002747
2956076599
2956098572
2956142029
2956173218
2956187317
2956200378
2956212036
2956224121
2956235535
2956248169
2956259765
2956271972
2956283386
2956297546
2956309265
2956324585
2956337524
2956349487
2956362182
2956374328
2956385009
2956397277
2956411682
2956427001
2956442626
2956458556
2956472106
2956483825
2956494384
2956504394
2956514831
2956524901
2956533996
2956551940
2956566283
2956582702
2956598632
2956619201
2956632140
2956648314
2956664244
2956681395
2956695861
2956709471
2956726195
2956747374
2956761473
2956774290
2956788573
2956801329
2956815001
2956828673
2956841063
2956855528
2956870115
2956882933
2956894224
2956907286
2956920164
2956932493
2956943235
2956956358
2956969419
2956984190
2956996519
2957007871
2957021055
2957033689
2957045835
2957061948
2957078428
2957095029
2957110349
2957125059
2957146909
2957169980
2957189939
2957208738
2957225278
2957242124
2957263303
2957282102
2957297788
2957314694
2957333310
2957358151
2957381955
2957399167
2957415890
2957434445
2957449460
2957467953
2957485043
2957501034
2957515988
2957531613
2957547848
2957566037
2957597470
2957624142
2958265681
2958314875
2958335200
2958360163
2958384577
2958401484
2958420465
2958435907
2958451837
2958472223
2958504511
2958547235
2958566339
2958582391
2958597833
2958612237
2958646295
2959024346
2959040703
2959057671
2959073113
2959087029
2959102471
2959119927
2959139336
2959184563
2959202446
2959224968
2959364311
2959393119
2959417472
2959441825
2959562186
2960103139
2960122426
2960143361
2960168874
2960184377
2960207387
2960228322
2960258718
2960282887
2960307790
2960330983
2960355580
2960397328
2960436940
2960459157
2960488575
2960505238
2960524220
2960540089
2960556263
2960575184
2960591969
2960610340
2960625965
2960658680
2960678150
2960695972
2960710499
2960732166
2960760914
2960809192
2960823780
2960840625
2960855579
2960871570
2960884326
2960897022
2960908862
2960919666
2960932544
2960944568
2960955371
2960970874
2960984485
2960997851
2961011035
2961021777
2961034778
2961046557
2961060656
2961073352
2961086352
2961102282
2961114672
2961128833
2961141528
2961153918
2961164477
2961177905
2961192248
2961206347
2961218554
2961230334
2961249987
2961262560
2961279467
2961297655
2961311144
2961324511
2961335314
2961351854
2961366503
2961388598
2961401903
2961416429
2961427050
2961435472
2961443956
