3377538899
3377544209
3377548726
3377554158
3377559285
3377563680
3377569112
3377575032
3377579488
3377584920
3377590230
3377595296
3377600728
3377605550
3377609944
3377615193
3377619893
3377624898
3377629842
3377634785
3377640462
3377647725
3377652852
3377658772
3377664204
3377669880
3377676045
3377683247
3377688923
3377696370
3377701558
3377708333
3377715413
3377722249
3377730061
3377736226
3377743733
3377750813
3377758503
3377766194
3377773030
3377779499
3377788227
3377794331
3377801838
3377810139
3377815998
3377823628
3377831501
3377838154
3377845600
3377851826
3377859394
3377866901
3377873615
3377880085
3377888020
3377893696
3377900837
3377909687
3377915607
3377923725
3377930500
3377937824
3377944477
3377951679
3377958027
3377967182
3377975239
3377982258
3377989521
3377998005
3378004047
3378012592
3378020099
3378028339
3378035785
3378042560
3378049762
3378057697
3378064289
3378073200
3378080829
3378089313
3378096210
3378103229
3378110980
3378117938
3378127033
3378134723
3378141254
3378149494
3378155475
3378162311
3378170306
3378178973
3378186115
3378194781
3378201068
3378209125
3378216632
3378225726
3378232928
3378241046
3378248797
3378254962
3378262652
3378269793
3378277362
3378285907
3378292560
3378300738
3378308185
3378316119
3378324420
3378332110
3378340045
3378349627
3378353411
3378364032
3378371356
3378379779
3378387469
3378393939
3378402117
3378409747
3378417376
3378422564
3378431475
3378439837
3378448626
3378455218
3378463152
3378470843
3378477251
3378486590
3378493670
3378501116
3378508501
3378515704
3378524370
3378532915
3378539324
3378548479
3378556109
3378564287
3378571062
3378579424
3378588884
3378598223
3378605425
3378612139
3378619158
3378627886
3378635027
3378643877
3378652361
3378658403
3378666704
3378675127
3378682390
3378689287
3378698320
3378705950
3378711748
3378720110
3378729326
3378736406
3378743486
3378750505
3378759050
3378766313
3378775224
3378784807
3378792436
3378799272
3378807756
3378815813
3378824663
3378830095
3378837968
3378846025
3378854082
3378860734
3378868974
3378875200
3378882707
3378889482
3378896745
3378903154
3378913530
3378921342
3378928056
3378935380
3378940690
3378948136
3378955156
3378963578
3378970903
3378979386
3378986833
3378992448
3379000443
3379006791
3379015092
3379024491
3379032060
3379038773
3379044450
3379052567
3379059647
3379069291
3379077897
3379086808
3379093888
3379101823
3379108170
3379114762
3379122697
3379131241
3379138444
3379145463
3379153214
3379159440
3379166215
3379174454
3379183243
3379189896
3379198746
3379204911
3379212540
3379217484
3379225724
3379234330
3379240311
3379248246
3379254044
3379261856
3379270462
3379279129
3379287064
3379293534
3379301102
3379309159
3379316178
3379322586
3379330582
3379338028
3379345780
3379353226
3379360184
3379367020
3379373611
3379383499
3379390823
3379398697
3379406204
3379412613
3379418838
3379426895
3379432144
3379440811
3379449539
3379457474
3379464187
3379472000
3379479141
3379487320
3379495132
3379502212
3379509475
3379516372
3379523330
3379531570
3379539932
3379547561
3379555801
3379563247
3379571060
3379579238
3379585525
3379595413
3379602249
3379608962
3379618789
3379628066
3379637649
3379644485
3379651870
3379659255
3379670791
3379677993
3379688918
3379698135
3379706802
3379716079
3379724258
3379732741
3379740432
3379749892
3379758925
3379767104
3379775771
3379781508
3379790481
3379801955
3379809401
3379817580
3379825820
3379836806
3379843825
3379851393
3379858901
3379866103
3379870986
3379878310
3379883437
3379891493
3379900527
3379905776
3379911757
3379919020
3379924819
3379930190
3379937453
3379940688
3379950087
3379955519
3379962843
3379968825
3379975722
3379981276
3379988356
3379995375
3380000014
3380006117
3380012160
3380017958
3380022169
3380029127
3380035841
3380041395
3380047072
3380053724
3380057814
3380064467
3380070753
3380077101
3380082289
3380088575
3380094008
3380100355
3380106459
3380112013
3380116041
3380122389
3380128431
3380134108
3380141127
3380146376
3380151869
3380158583
3380163832
3380170057
3380175428
3380182264
3380187086
3380192518
3380198744
3380204054
3380210706
3380217726
3380224622
3380229627
3380235365
3380241224
3380245924
3380252332
3380258558
3380265455
3380270521
3380275282
3380281995
3380287000
3380293287
3380300062
3380306226
3380311475
3380317884
3380322645
3380328321
3380334547
3380341627
3380346021
3380353162
3380359510
3380365369
3380370984
3380377210
3380387525
3380394971
3380401319
3380406568
3380413648
3380419019
3380424451
3380430677
3380436719
3380445142
3380449842
3380456861
3380462354
3380467664
3380472486
3380479138
3380485425
3380490247
3380496961
3380502027
3380507764
3380514173
3380520398
3380525952
3380531690
3380538525
3380543958
3380548352
3380554761
3380561353
3380566785
3380573743
3380578503
3380583325
3380590100
3380596143
3380601208
3380608166
3380614514
3380620557
3380626843
3380632336
3380636670
3380644055
3380648938
3380655469
3380660595
3380667370
3380672986
3380679333
3380684216
3380690564
3380696850
3380703259
3380708569
3380713940
3380720776
3380726147
3380731457
3380738415
3380744763
3380749890
3380756176
3380761120
3380767834
3380773144
3380780895
3380786511
3380792065
3380798840
3380803967
3380810009
3380815319
3380821972
3380828564
3380834301
3380839184
3380845043
3380851025
3380856945
3380861401
3380871532
3380878368
3380883129
3380888622
3380894604
3380900524
3380908276
3380916393
3380923962
3380928783
3380936046
3380942272
3380950329
3380955883
3380962780
3380968395
3380975048
3380981579
3380986400
3380993053
3380999401
3381005809
3381011181
3381018139
3381023510
3381029674
3381034801
3381041210
3381047802
3381053417
3381059703
3381065868
3381071300
3381077342
3381082714
3381088695
3381097606
3381102733
3381108409
3381114818
3381120433
3381126415
3381132396
3381149913
3381155284
3381158946
3381167064
3381171458
3381177257
3381184886
3381189464
3381197276
3381202830
3381208140
3381213939
3381221080
3381224620
3381231212
3381235606
3381241466
3381249461
3381254161
3381261729
3381266917
3381272044
3381278575
3381283580
3381289744
3381295482
3381300731
3381306651
3381312510
3381317759
3381323741
3381329661
3381336497
3381340708
3381346629
3381351756
3381357798
3381363047
3381370616
3381375498
3381380686
3381386302
3381392954
3381398570
3381404246
3381411021
3381417735
3381423655
3381431895
3381437937
3381444224
3381450877
3381456065
3381461497
3381467661
3381472056
3381479075
3381483897
3381489695
3381495859
3381501108
3381506846
3381513071
3381519541
3381526682
3381534495
3381541208
3381549082
3381556406
3381563730
3381570933
3381578745
3381583994
3381588266
3381595713
3381601694
3381607370
3381612436
3381618296
3381623423
3381628733
3381634897
3381641245
3381646738
3381655710
3381661264
3381667429
3381672678
3381678903
3381684336
3381690256
3381696665
3381702463
3381708566
3381713144
3381720224
3381726022
3381729929
3381736093
3381743417
3381748666
3381753488
3381759287
3381765817
3381770395
3381776010
3381782175
3381795908
3381803232
3381810251
3381815622
3381822030
3381828378
3381834237
3381839853
3381847604
3381852548
3381858713
3381865793
3381872384
3381878915
3381884774
3381889108
3381897470
3381905404
3381910653
3381919015
3381925607
3381932626
3381938424
3381943551
3381952828
3381958749
3381964974
3381971932
3381977304
3381984567
3381989999
3381995492
3382000558
3382006356
3382012582
3382015206
3382022714
3382029000
3382034921
3382040719
3382045785
3382051217
3382055428
3382062447
3382066415
3382074227
3382079720
3382084115
3382089059
3382095406
3382101205
3382107064
3382112862
3382119088
3382124154
3382129464
3382136239
3382141366
3382147774
3382155709
3382161568
3382167183
3382172982
3382179818
3382185189
3382190560
3382197518
3382202523
3382209175
3382214547
3382220650
3382225655
3382232918
3382237191
3382243843
3382249581
3382255623
3382260689
3382266793
3382273384
3382279488
3382285164
3382291146
3382297432
3382302376
3382308296
3382313179
3382319649
3382327522
3382332405
3382338753
3382344429
3382350594
3382354622
3382361092
3382367744
3382374153
3382379341
3382385445
3382391548
3382396126
3382402351
3382409431
3382413704
3382421516
3382428596
3382433906
3382439644
3382447395
3382456733
3382461799
3382472419
3382478340
3382484077
3382490425
3382497078
3382503059
3382508796
3382513557
3382518867
3382524360
3382529548
3382536140
3382541755
3382548164
3382553779
3382559638
3382565620
3382571784
3382577278
3382583747
3382589790
3382594550
3382600227
3382606941
3382612800
3382618842
3382624641
3382630378
3382635627
3382642463
3382647407
3382652412
3382659919
3382665107
3382671027
3382675971
3382682319
3382687385
3382694648
3382699531
3382706428
3382710578
3382717719
3382723151
3382728339
3382735419
3382741767
3382746955
3382752753
3382758552
3382762580
3382770270
3382775397
3382781928
3382786872
3382793525
3382799567
3382803656
3382811164
3382816352
3382822821
3382829718
3382834296
3382839484
3382845587
3382851935
3382856269
3382864569
3382870307
3382876410
3382881537
3382887091
3382894171
3382900214
3382907111
3382912848
3382918829
3382923041
3382928961
3382934821
3382941351
3382949835
3382956488
3382962958
3382968634
3382974615
3382981329
3382987006
3382997687
3383002692
3383010565
3383016546
3383021002
3383027472
3383034308
3383039496
3383045233
3383050665
3383057013
3383063299
3383069220
3383075323
3383079351
3383086676
3383091131
3383097479
3383101812
3383108343
3383113897
3383119940
3383126043
3383132452
3383138616
3383142950
3383149237
3383156561
3383161993
3383167486
3383172857
3383178594
3383184088
3383190130
3383195684
3383203314
3383208318
3383214117
3383220648
3383227606
3383231878
3383239263
3383244817
3383250188
3383256658
3383262884
3383267706
3383274114
3383279058
3383285589
3383292974
3383298711
3383304082
3383309209
3383315740
3383321477
3383326360
3383334295
3383339849
3383345220
3383350530
3383357183
3383361821
3383368474
3383376043
3383381780
3383386724
3383392583
3383397893
3383403569
3383408879
3383415105
3383421575
3383428105
3383432378
3383439885
3383444585
3383451177
3383455510
3383462041
3383468816
3383474309
3383479070
3383485845
3383492681
3383500615
3383506535
3383512090
3383520024
3383525700
3383532658
3383537724
3383543706
3383550725
3383555058
3383561711
3383567326
3383573674
3383578862
3383583806
3383590581
3383596318
3383601201
3383607548
3383613286
3383618840
3383625126
3383629765
3383636479
3383642277
3383649357
3383653874
3383660588
3383665654
3383671940
3383677250
3383683537
3383690251
3383694462
3383701725
3383705998
3383712529
3383719426
3383726200
3383730473
3383737187
3383742619
3383748844
3383754765
3383759953
3383765629
3383771733
3383776982
3383783268
3383789677
3383795231
3383800602
3383807682
3383812809
3383817997
3383824711
3383830631
3383836796
3383841190
3383849003
3383855900
3383861576
3383867252
3383873234
3383879337
3383883488
3383889591
3383896732
3383902897
3383909427
3383914799
3383919987
3383925602
3383931644
3383938663
3383942875
3383948917
3383955143
3383960331
3383965885
3383971134
3383977848
3383984378
3383991459
3383996830
3384001957
3384006839
3384013431
3384022953
3384028446
3384034793
3384041873
3384048709
3384053714
3384060916
3384069461
3384074954
3384081546
3384086551
3384092349
3384096439
3384103824
3384109073
3384115299
3384120487
3384126041
3384132266
3384137576
3384142215
3384148441
3384154300
3384160098
3384164310
3384170657
3384176273
3384182925
3384189517
3384194949
3384200992
3384206363
3384212161
3384218936
3384224368
3384230472
3384236270
3384242557
3384248233
3384253970
3384259585
3384263797
3384270511
3384276492
3384283267
3384288699
3384294314
3384299868
3384306643
3384311709
3384317263
3384323733
3384330081
3384334597
3384340884
3384346499
3384352847
3384359072
3384365786
3384371279
3384376834
3384383486
3384389468
3384394167
3384399172
3384406252
3384413699
3384418581
3384425112
3384429690
3384436099
3384441592
3384447817
3384455263
3384460757
3384465945
3384470766
3384477236
3384483095
3384489321
3384495791
3384500124
3384507937
3384512942
3384519289
3384525271
3384531252
3384538332
3384542666
3384549563
3384556460
3384562746
3384568667
3384576174
3384582399
3384589724
3384594851
3384601870
3384607363
3384613039
3384619570
3384625490
3384630922
3384636721
3384643862
3384649172
3384655031
3384659426
3384665285
3384672304
3384676210
3384683595
3384688722
3384695619
3384700441
3384707277
3384712892
3384719179
3384724123
3384730653
3384737062
3384741335
3384749147
3384755189
3384760500
3384766115
3384771669
3384778261
3384783815
3384788820
3384795534
3384801881
3384808473
3384813234
3384819826
3384824708
3384831056
3384837587
3384842042
3384850526
3384856141
3384861451
3384867128
3384872621
3384878602
3384883851
3384889711
3384897950
3384903566
3384908998
3384914369
3384919740
3384926393
3384932618
3384938966
3384945008
3384949342
3384957704
3384962953
3384969728
3384975465
3384981690
3384985902
3384992799
3384997010
3385002931
3385008851
3385014710
3385020081
3385025575
3385031983
3385035950
3385042176
3385046693
3385052857
3385059022
3385065186
3385072022
3385078187
3385083558
3385089905
3385096192
3385105469
3385111146
3385118348
3385124634
3385130738
3385137085
3385143799
3385152833
3385157898
3385163758
3385169312
3385174927
3385181824
3385186768
3385192933
3385198731
3385204651
3385209046
3385214905
3385219788
3385225647
3385231934
3385238037
3385242981
3385248535
3385253601
3385258606
3385264832
3385270325
3385276611
3385281311
3385289124
3385294556
3385300171
3385305542
3385311157
3385318054
3385323792
3385329346
3385335449
3385340820
3385346558
3385352051
3385358887
3385365051
3385371216
3385375976
3385382385
3385388550
3385393921
3385400696
3385406128
3385411926
3385418823
3385424316
3385429260
3385435180
3385441589
3385448547
3385454956
3385460266
3385467468
3385471985
3385477417
3385483947
3385491760
3385499023
3385506469
3385511535
3385517761
3385524475
3385529724
3385536621
3385542297
3385547119
3385553161
3385559020
3385565368
3385571594
3385578369
3385582885
3385589477
3385594970
3385601074
3385606994
3385611327
3385619933
3385624511
3385630981
3385635864
3385643005
3385649718
3385654357
3385661559
3385671386
3385677428
3385683166
3385688720
3385694884
3385701171
3385707641
3385712096
3385718627
3385723815
3385729552
3385735839
3385739928
3385747741
3385752257
3385758422
3385762816
3385769164
3385773436
3385779845
3385785460
3385791381
3385797179
3385802489
3385807921
3385813842
3385818907
3385825194
3385831359
3385837584
3385843993
3385849486
3385855895
3385861327
3385867491
3385873839
3385878661
3385884886
3385890440
3385896605
3385900939
3385907225
3385913878
3385920653
3385926207
3385931883
3385937315
3385943663
3385949156
3385955016
3385963255
3385967223
3385973265
3385980101
3385985228
3385991820
3385996214
3386002867
3386008055
3386014158
3386020994
3386026060
3386031370
3386036558
3386044493
3386049009
3386054808
3386059630
3386065733
3386072447
3386078245
3386085203
3386090086
3386096251
3386103025
3386107298
3386114622
3386119810
3386126951
3386132261
3386138304
3386144346
3386149900
3386155088
3386161924
3386171079
3386178709
3386185728
3386190428
3386196714
3386203550
3386211240
3386215818
3386223692
3386228208
3386234800
3386239683
3386245115
3386251829
3386257810
3386263486
3386269407
3386274656
3386278623
3386285947
3386291074
3386297300
3386302976
3386308713
3386313596
3386319517
3386324643
3386330015
3386336606
3386341977
3386347287
3386352598
3386358823
3386364682
3386369443
3386375303
3386381528
3386386533
3386392942
3386398374
3386404721
3386411374
3386417600
3386423215
3386429563
3386435239
3386440793
3386446225
3386452573
3386458005
3386464780
3386471066
3386476132
3386482419
3386487485
3386493771
3386499509
3386505307
3386512875
3386518369
3386523801
3386530759
3386535825
3386542111
3386547055
3386554501
3386559384
3386566891
3386571652
3386578244
3386584286
3386588864
3386597775
3386603695
3386609372
3386615109
3386620541
3386626462
3386632992
3386638974
3386645749
3386650876
3386655514
3386662045
3386668332
3386674496
3386680539
3386686337
3386691708
3386697750
3386703244
3386710690
3386716244
3386725827
3386730709
3386737606
3386743771
3386750546
3386757015
3386760861
3386768002
3386773373
3386780453
3386785763
3386791683
3386795773
3386803158
3386808224
3386814449
3386819576
3386825497
3386830379
3386835812
3386842281
3386848995
3386854183
3386859371
3386864864
3386870846
3386875484
3386881222
3386886532
3386891964
3386898311
3386903560
3386908077
3386913204
3386918880
3386924251
3386929806
3386937008
3386941097
3386947445
3386952572
3386957393
3386964046
3386970577
3386975704
3386981380
3386986568
3386992366
3386997798
3387003353
3387009700
3387012691
3387020320
3387025325
3387031673
3387035518
3387041805
3387048824
3387054988
3387061031
3387067012
3387073604
3387079952
3387086238
3387091365
3387098872
3387104549
3387110713
3387115718
3387120906
3387127254
3387134822
3387140254
3387146480
3387151668
3387156551
3387162471
3387167537
3387173213
3387180232
3387184993
3387190730
3387196223
3387201838
3387206294
3387212337
3387219539
3387225764
3387233149
3387239131
3387248530
3387253901
3387263728
3387269404
3387276240
3387282466
3387287715
3387294490
3387301448
3387305964
3387312434
3387318965
3387324641
3387330561
3387336238
3387341914
3387347712
3387353144
3387359614
3387364863
3387370905
3387377375
3387381831
3387389216
3387393488
3387399958
3387404902
3387410334
3387416865
3387421076
3387428828
3387434504
3387439875
3387444758
3387450373
3387456599
3387463923
3387466608
3387474970
3387479731
3387486384
3387492365
3387498408
3387506525
3387511957
3387517817
3387523798
3387529841
3387536005
3387542475
3387547297
3387553644
3387559565
3387565302
3387572565
3387577692
3387583796
3387587763
3387593378
3387602533
3387608637
3387613825
3387619745
3387624628
3387630304
3387636713
3387640680
3387648981
3387654535
3387660211
3387665949
3387671808
3387678400
3387684320
3387689752
3387695123
3387700006
3387707513
3387715570
3387721063
3387728082
3387736017
3387740655
3387748102
3387753473
3387759393
3387764642
3387772455
3387778924
3387783197
3387789545
3387796808
3387801690
3387808954
3387813714
3387819879
3387825921
3387832269
3387837579
3387843866
3387849969
3387855035
3387860223
3387865899
3387872552
3387878900
3387883966
3387888665
3387895745
3387902093
3387907342
3387914361
3387919732
3387926080
3387932061
3387937493
3387943780
3387951043
3387955682
3387962518
3387968011
3387973077
3387978631
3387984368
3387990106
3387995904
3388001336
3388005669
3388013421
3388018670
3388024102
3388030877
3388036492
3388043084
3388047600
3388053765
3388059807
3388064934
3388070550
3388076348
3388081048
3388087762
3388091973
3388097344
3388103936
3388110955
3388117241
3388124810
3388130059
3388136345
3388142876
3388148674
3388155022
3388160820
3388167046
3388175103
3388179924
3388186943
3388193596
3388199272
3388206658
3388213982
3388220330
3388228508
3388234246
3388239250
3388244133
3388250237
3388257500
3388263847
3388268303
3388274101
3388279411
3388283684
3388289116
3388296867
3388301262
3388306938
3388311455
3388317375
3388322197
3388327507
3388334343
3388338432
3388344902
3388349846
3388354423
3388360283
3388364616
3388371818
3388375969
3388382927
3388389152
3388395256
3388400139
3388406059
3388412285
3388417595
3388423515
3388427788
3388433464
3388438408
3388443962
3388451347
3388455558
3388462394
3388467582
3388472587
3388477653
3388483940
3388489250
3388495597
3388500907
3388506767
3388511589
3388517509
3388523490
3388529228
3388536125
3388541862
3388546928
3388551261
3388557670
3388562248
3388568412
3388573356
3388579826
3388585136
3388591544
3388598258
3388605338
3388610038
3388616935
3388622062
3388628837
3388633659
3388639152
3388644218
3388650138
3388656913
3388662345
3388667899
3388674552
3388679679
3388685905
3388690543
3388696952
3388703605
3388710990
3388716239
3388723807
3388730643
3388736686
3388742606
3388750296
3388755423
3388761771
3388767325
3388773551
3388780692
3388785636
3388792899
3388799063
3388804312
3388811454
3388816336
3388822989
3388828665
3388835562
3388842398
3388847891
3388854239
3388859427
3388865469
3388873343
3388878531
3388885001
3388891165
3388897147
3388900809
3388907889
3388914053
3388918326
3388924796
3388929129
3388935294
3388939688
3388945975
3388951529
3388957571
3388962820
3388968558
3388973440
3388979300
3388985831
3388989737
3388997122
3389003653
3389008169
3389013174
3389019339
3389024222
3389029959
3389037344
3389041189
3389049307
3389054983
3389060843
3389066397
3389071829
3389078054
3389080984
3389089102
3389093679
3389099905
3389105398
3389111013
3389116812
3389122854
3389128591
3389134268
3389139273
3389144399
3389149343
3389155935
3389162832
3389167776
3389173452
3389177969
3389183645
3389188345
3389194204
3389201223
3389207265
3389214407
3389220022
3389226675
3389235342
3389242361
3389249197
3389256948
3389262319
3389268911
3389273855
3389280935
3389288137
3389294546
3389300527
3389306875
3389311025
3389318471
3389323232
3389330129
3389335988
3389341665
3389347036
3389353749
3389358388
3389364797
3389371755
3389377431
3389383657
3389388967
3389394948
3389402272
3389407643
3389414113
3389419789
3389425527
3389431752
3389438222
3389444386
3389450795
3389456777
3389463246
3389469106
3389475881
3389486379
3389491933
3389498219
3389504079
3389510243
3389514149
3389521413
3389527577
3389533864
3389541249
3389547047
3389553822
3389559560
3389566029
3389571217
3389577199
3389584523
3389589711
3389594777
3389600392
3389606495
3389611989
3389618092
3389624318
3389630299
3389635243
3389639210
3389645558
3389651783
3389658314
3389663868
3389669300
3389674305
3389679432
3389687306
3389693165
3389698963
3389705128
3389710987
3389715870
3389723072
3389731617
3389737904
3389745411
3389752430
3389759693
3389768177
3389773792
3389778858
3389785694
3389792347
3389797291
3389803333
3389809681
3389814869
3389820362
3389826405
3389829945
3389836475
3389842518
3389848621
3389860889
3389867176
3389872059
3389877918
3389884449
3389889454
3389895008
3389899769
3389905262
3389910389
3389916187
3389922657
3389927173
3389932361
3389937977
3389944690
3389949756
3389954822
3389959766
3389965686
3389971546
3389975513
3389982654
3389988330
3389993457
3389999378
3390004138
3390010242
3390016895
3390022205
3390028003
3390034168
3390039173
3390044727
3390050647
3390055225
3390062183
3390067554
3390073169
3390079395
3390086047
3390090869
3390098499
3390102161
3390109302
3390114368
3390119983
3390125476
3390131457
3390136706
3390142871
3390148059
3390153918
3390160205
3390165942
3390172229
3390179431
3390186389
3390193286
3390199939
3390209765
3390216113
3390220874
3390226733
3390232776
3390238330
3390245410
3390249865
3390256091
3390262317
3390268054
3390272021
3390277880
3390284777
3390290942
3390296435
3390302233
3390309008
3390313525
3390320300
3390325488
3390331957
3390337634
3390343554
3390349047
3390354418
3390359728
3390365405
3390372424
3390378161
3390383959
3390389452
3390394762
3390399889
3390407397
3390412218
3390418078
3390422778
3390429552
3390434435
3390440172
3390446215
3390452441
3390457323
3390463366
3390468371
3390474230
3390481737
3390486925
3390493395
3390498278
3390504015
3390509081
3390514208
3390520250
3390525072
3390532824
3390537890
3390543016
3390549242
3390554186
3390560289
3390565538
3390571032
3390577684
3390582689
3390588671
3390593004
3390598558
3390605272
3390610338
3390616503
3390621996
3390628099
3390634081
3390639147
3390645921
3390652513
3390659898
3390665880
3390673326
3390679125
3390684068
3390691637
3390701158
3390705247
3390713426
3390718614
3390725633
3390733263
3390737596
3390744005
3390749620
3390756151
3390761583
3390766710
3390773668
3390778184
3390783677
3390789415
3390795152
3390800523
3390806566
3390812608
3390817613
3390822435
3390828782
3390833299
3390839524
3390845506
3390851487
3390858201
3390863755
3390868821
3390874681
3390879686
3390885972
3390890672
3390897386
3390903428
3390909715
3390913865
3390920762
3390924607
3390931687
3390937425
3390942124
3390948411
3390954575
3390962937
3390967576
3390974656
3390977769
3390986314
3390991441
3390997849
3391004380
3391009995
3391015610
3391021226
3391029282
3391035386
3391040818
3391047043
3391052720
3391058274
3391063767
3391069626
3391076279
3391081162
3391087388
3391092148
3391097947
3391103928
3391108017
3391116807
3391121384
3391127732
3391130417
3391138230
3391140915
3391148728
3391154709
3391160752
3391167832
3391173752
3391178635
3391183762
3391188767
3391193955
3391202439
3391210678
3391220383
3391228623
3391236984
3391244797
3391252670
3391258713
3391265732
3391271103
3391276291
3391284042
3391289230
3391295151
3391302170
3391307297
3391313705
3391319015
3391324875
3391330551
3391336166
3391342514
3391346603
3391354233
3391359970
3391365280
3391370895
3391377914
3391382675
3391389267
3391396347
3391400619
3391409347
3391415268
3391421310
3391426132
3391431869
3391437545
3391443161
3391449997
3391453903
3391460006
3391466415
3391470504
3391477706
3391482589
3391490097
3391494552
3391500350
3391506942
3391511886
3391516769
3391522811
3391529769
3391534713
3391540206
3391545272
3391550399
3391556442
3391561385
3391568832
3391574081
3391579940
3391585128
3391590682
3391597396
3391602035
3391608260
3391614608
3391620345
3391626937
3391631576
3391638045
3391644393
3391650863
3391656722
3391660934
3391667769
3391673873
3391679183
3391685592
3391691634
3391696883
3391703048
3391709456
3391715194
3391721114
3391727157
3391734481
3391740950
3391748030
3391755172
3391760421
3391767440
3391773360
3391778914
3391784590
3391790145
3391797591
3391801436
3391807845
3391813338
3391819258
3391825789
3391831587
3391836714
3391843062
3391848067
3391854720
3391860701
3391865218
3391871260
3391877242
3391882735
3391888594
3391895796
3391900923
3391906905
3391911543
3391917830
3391923689
3391929426
3391934553
3391940169
3391945906
3391951399
3391957197
3391964277
3391970015
3391975386
3391980696
3391986128
3391991926
3391998762
3392003218
3392010115
3392016218
3392021162
3392026838
3392033247
3392039351
3392043623
3392050642
3392054914
3392061811
3392068708
3392074202
3392079145
3392085981
3392091658
3392097944
3392103803
3392110090
3392115766
3392121809
3392127424
3392133772
3392139204
3392144575
3392149946
3392158430
3392164838
3392170698
3392174970
3392181501
3392187360
3392193464
3392199934
3392205427
3392211103
3392217878
3392223371
3392228681
3392234296
3392241010
3392246747
3392253156
3392257245
3392265546
3392269880
3392277082
3392282087
3392288801
3392295331
3392302045
3392311506
3392316633
3392322675
3392328901
3392335248
3392340436
3392346906
3392351422
3392356855
3392362836
3392368024
3392373944
3392380353
3392385907
3392392377
3392398053
3392404035
3392408490
3392414289
3392421185
3392425153
3392432416
3392436871
3392443036
3392448895
3392455365
3392460614
3392467023
3392474042
3392480145
3392485455
3392491010
3392496442
3392503522
3392509869
3392514813
3392522137
3392529523
3392535077
3392541058
3392548077
3392553692
3392559247
3392565411
3392570599
3392575177
3392580365
3392586041
3392593426
3392599103
3392603985
3392607892
3392614972
3392620465
3392625531
3392630719
3392639080
3392643780
3392649762
3392654156
3392659893
3392665875
3392671246
3392677838
3392683026
3392689312
3392694439
3392700299
3392704693
3392710552
3392716778
3392723004
3392729778
3392734539
3392742657
3392748760
3392754925
3392762310
3392767498
3392773602
3392778790
3392785809
3392791119
3392795879
3392808208
3392815044
3392820782
3392827557
3392834026
3392840130
3392847149
3392853008
3392860088
3392864361
3392871563
3392877300
3392883159
3392888103
3392894024
3392899761
3392905315
3392910259
3392916790
3392921856
3392926799
3392933147
3392939128
3392943828
3392949321
3392955120
3392961284
3392967449
3392973125
3392978435
3392985454
3392990520
3392997234
3393003337
3393008281
3393013774
3393021343
3393025493
3393031780
3393037944
3393043926
3393049175
3393056682
3393062297
3393067973
3393073405
3393078471
3393085185
3393089885
3393096660
3393101970
3393107951
3393115642
3393120341
3393126567
3393131999
3393138530
3393143962
3393151713
3393157023
3393163188
3393168254
3393173503
3393180217
3393186381
3393192607
3393197978
3393204387
3393209575
3393215556
3393220927
3393226176
3393234721
3393238871
3393244853
3393250712
3393256266
3393262858
3393267436
3393274516
3393280131
3393285990
3393293009
3393297038
3393303813
3393310221
3393316142
3393320719
3393327189
3393333476
3393339823
3393347025
3393351603
3393362406
3393367533
3393374796
3393380717
3393385661
3393391581
3393398356
3393404215
3393410807
3393415446
3393420389
3393426127
3393435099
3393441263
3393447550
3393452982
3393458536
3393464152
3393467753
3393473795
3393479593
3393486551
3393492228
3393497843
3393503031
3393508158
3393513712
3393517496
3393525064
3393531473
3393536600
3393541239
3393547525
3393551737
3393557962
3393564493
3393570352
3393575907
3393581217
3393587564
3393592752
3393597635
3393601541
3393609781
3393616190
3393620645
3393626261
3393632059
3393636698
3393642679
3393648721
3393655252
3393660379
3393666299
3393671182
3393677042
3393683206
3393688821
3393694742
3393700662
3393705850
3393711221
3393716470
3393721780
3393726846
3393734109
3393738870
3393745157
3393749429
3393755533
3393760599
3393766458
3393771524
3393778787
3393784463
3393791482
3393798196
3393804055
3393810220
3393816140
3393821756
3393827554
3393834024
3393839334
3393843362
3393851175
3393859292
3393867044
3393872476
3393879190
3393886331
3393892983
3393901956
3393908425
3393913064
3393919473
3393926064
3393930947
3393938394
3393944985
3393949807
3393955727
3393962319
3393968240
3393974404
3393981667
3393986184
3393993935
3393999001
3394005288
3394010171
3394015786
3394022805
3394028420
3394034707
3394039895
3394046242
3394051491
3394057839
3394063698
3394070656
3394077920
3394083718
3394088662
3394093972
3394100686
3394111367
3394118081
3394125344
3394130043
3394136269
3394142006
3394146279
3394151650
3394157509
3394164833
3394168801
3394175881
3394180580
3394187538
3394192116
3394198220
3394203835
3394209877
3394215187
3394220925
3394226479
3394231484
3394237038
3394241005
3394248268
3394253334
3394259804
3394264381
3394270668
3394275612
3394281471
3394286781
3394293190
3394298256
3394304054
3394309730
3394314918
3394320717
3394327431
3394332802
3394339577
3394344215
3394349891
3394355629
3394360084
3394366127
3394373512
3394379493
3394384804
3394390419
3394400856
3394409401
3394416114
3394424965
3394431373
3394439064
3394444862
3394450904
3394459022
3394463844
3394470863
3394477027
3394483192
3394488441
3394494422
3394502235
3394508766
3394514930
3394518836
3394526832
3394532508
3394538123
3394543739
3394549293
3394554603
3394560157
3394566932
3394571998
3394578590
3394584998
3394589576
3394595252
3394601600
3394606300
3394612403
3394618690
3394624183
3394629371
3394635047
3394641456
3394645667
3394651893
3394656409
3394663001
3394668555
3394675025
3394679847
3394686255
3394691626
3394697974
3394704078
3394710975
3394716834
3394722754
3394729529
3394734473
3394740760
3394745276
3394751807
3394759742
3394764563
3394770911
3394776099
3394782447
3394787757
3394793738
3394799658
3394806433
3394811743
3394816504
3394823157
3394827918
3394834876
3394839209
3394845252
3394851599
3394858679
3394863806
3394868933
3394875586
3394881628
3394887549
3394893408
3394897925
3394906531
3394912146
3394917639
3394923498
3394934546
3394941504
3394946081
3394953528
3394959997
3394967199
3394973425
3394979040
3394985510
3394990942
3394997717
3395003454
3395009192
3395014868
3395020300
3395025732
3395033483
3395039282
3395043554
3395049597
3395056677
3395062719
3395069982
3395075964
3395081335
3395087744
3395093969
3395100866
3395105749
3395111120
3395115026
3395122595
3395127416
3395133764
3395138586
3395145117
3395150304
3395156164
3395162206
3395167333
3395174108
3395179479
3395186010
3395191015
3395198095
3395202917
3395209264
3395215673
3395221349
3395229406
3395235815
3395240453
3395249486
3395255529
3395260839
3395267980
3395274572
3395280065
3395286535
3395291539
3395297338
3395304174
3395309667
3395315892
3395322057
3395326207
3395332433
3395338353
3395345189
3395351293
3395357579
3395363866
3395367711
3395375035
3395380040
3395385228
3395390172
3395398412
3395402745
3395408727
3395415257
3395420628
3395427098
3395433263
3395439793
3395444615
3395451024
3395457555
3395463841
3395470250
3395477696
3395486913
3395493932
3395498631
3395505589
3395511327
3395517796
3395523106
3395530858
3395536900
3395542576
3395547764
3395553074
3395559300
3395563572
3395569981
3395575718
3395581456
3395586766
3395592137
3395597630
3395603428
3395609837
3395614842
3395621617
3395626622
3395633274
3395638340
3395644688
3395650486
3395656834
3395661900
3395668186
3395674412
3395680088
3395685398
3395691380
3395697910
3395703282
3395708592
3395714146
3395720921
3395726719
3395731846
3395740086
3395745579
3395751438
3395757175
3395762302
3395768223
3395774998
3395780613
3395787144
3395793308
3395799351
3395804356
3395809238
3395815708
3395821934
3395828098
3395831760
3395840000
3395843784
3395849827
3395856357
3395861484
3395868198
3395874485
3395879184
3395885593
3395891452
3395897007
3395903415
3395909458
3395914707
3395921543
3395926242
3395932224
3395937290
3395943332
3395950840
3395956699
3395961643
3395968112
3395972995
3395978549
3395984714
3395994052
3396002170
3396008518
3396014621
3396020786
3396026584
3396033115
3396042026
3396050937
3396056674
3396063266
3396068027
3396074863
3396079562
3396086154
3396093539
3396099765
3396104770
3396110385
3396117221
3396122714
3396129428
3396134555
3396141025
3396146029
3396152438
3396158786
3396162753
3396170688
3396175998
3396180941
3396186984
3396192843
3396197726
3396203463
3396207553
3396215060
3396219394
3396225314
3396231417
3396235324
3396242282
3396247836
3396253207
3396258883
3396263766
3396270114
3396274569
3396280245
3396286105
3396290866
3396297213
3396303622
3396307528
3396313876
3396319613
3396324862
3396332003
3396341647
3396348116
3396353365
3396358370
3396363741
3396370089
3396375887
3396381075
3396387911
3396394930
3396399386
3396405428
3396411104
3396416415
3396423495
3396429171
3396435641
3396441256
3396447298
3396452608
3396456576
3396464144
3396470736
3396476046
3396480684
3396487154
3396491610
3396497713
3396503939
3396509920
3396516268
3396520357
3396528963
3396535189
3396540987
3396546480
3396553621
3396560396
3396565157
3396573030
3396576082
3396582247
3396587801
3396591707
3396597688
3396600984
3396605318
3396608980
3396613374
3396618990
3396623689
3396628084
3396632845
3396637056
3396640413
3396644441
3396649873
3396654756
3396658846
3396663179
3396667513
3396671053
3396674043
3396679903
3396684297
3396687959
3396691804
3396696016
3396700349
3396704134
3396708101
3396712190
3396717378
3396721712
3396725557
3396729585
3396734590
3396736726
3396744417
3396748933
3396753938
3396757173
3396761873
3396766084
3396770784
3396775239
3396781648
3396785737
3396789277
3396794282
3396798921
3396802949
3396806550
3396812410
3396817231
3396822053
3396825044
3396830720
3396834748
3396837983
3396844087
3396848909
3396853303
3396857148
3396862641
3396865510
3396870576
3396874726
3396881318
3396885102
3396890107
3396894074
3396898591
3396903352
3396907502
3396911958
3396916963
3396921357
3396925263
3396930756
3396935517
3396940400
3396944306
3396951081
3396956025
3396962189
3396966767
3396972382
3396976167
3396984589
3396989472
3396994111
3396999726
3397003022
3397009492
3397013398
3397019990
3397023957
3397028290
3397032685
3397037629
3397043671
3397048676
3397053742
3397057465
3397065827
3397070771
3397075959
3397079926
3397084626
3397089325
3397094025
3397098725
3397103058
3397108307
3397112824
3397118500
3397122467
3397128876
3397133454
3397138642
3397143402
3397147187
3397153900
3397159272
3397165253
3397169525
3397173737
3397178681
3397183441
3397189423
3397195770
3397200226
3397204559
3397210236
3397214447
3397218964
3397224518
3397229218
3397234772
3397240265
3397244171
3397249237
3397255219
3397259979
3397265106
3397269623
3397277252
3397282013
3397288116
3397292877
3397297516
3397303253
3397308014
3397312286
3397320404
3397325226
3397330414
3397335480
3397340668
3397345733
3397351105
3397356903
3397361969
3397367706
3397373382
3397378631
3397383758
3397387848
3397393890
3397398162
3397405975
3397412323
3397418182
3397424469
3397428619
3397435821
3397441192
3397448761
3397454559
3397461822
3397468475
3397476531
3397480987
3397486846
3397491729
3397495757
3397502044
3397507903
3397513641
3397518951
3397522613
3397527068
3397532806
3397538116
3397543487
3397547942
3397552825
3397557769
3397563201
3397567840
3397570342
3397578155
3397582671
3397589019
3397592925
3397599334
3397602996
3397609344
3397613860
3397620086
3397624846
3397631743
3397636016
3397641387
3397647063
3397652251
3397657744
3397663665
3397668853
3397674102
3397679839
3397685515
3397689666
3397695769
3397699858
3397708159
3397713591
3397719207
3397724883
3397730376
3397734587
3397741423
3397746001
3397753386
3397757903
3397764922
3397769866
3397775237
3397781829
3397785857
3397792449
3397798186
3397805693
3397809477
3397815764
3397822783
3397828154
3397833891
3397839446
3397844328
3397849944
3397854948
3397861845
3397866484
3397871611
3397876250
3397881316
3397885466
3397893278
3397899626
3397905241
3397911467
3397916960
3397921721
3397926726
3397930693
3397936674
3397942778
3397948332
3397952482
3397958525
3397962492
3397967070
3397973234
3397978666
3397986174
3397991789
3397997099
3398003141
3398008207
3398012907
3398020414
3398024198
3398033659
3398039030
3398044828
3398050688
3398055448
3398058317
3398065580
3398069609
3398076261
3398083219
3398088468
3398091398
3398097440
3398102934
3398108000
3398112211
3398118314
3398124906
3398128507
3398134611
3398140409
3398144987
3398152006
3398156339
3398163786
3398166593
3398173490
3398179288
3398184354
3398187101
3398193449
3398197538
3398206205
3398210905
3398217435
3398223539
3398229276
3398234830
3398240568
3398244840
3398252408
3398257535
3398263456
3398268461
3398273465
3398277311
3398283536
3398288602
3398295560
3398300809
3398306424
3398311490
3398317838
3398321744
3398326322
3398332669
3398337491
3398343717
3398349393
3398353726
3398361478
3398366910
3398374478
3398379483
3398386991
3398392056
3398399075
3398404019
3398411405
3398415860
3398420804
3398424649
3398430508
3398436978
3398442227
3398446988
3398452908
3398457608
3398464444
3398469449
3398475369
3398479031
3398486783
3398492032
3398496976
3398503018
3398507962
3398513333
3398520657
3398525540
3398532071
3398536954
3398543118
3398549588
3398555508
3398561368
3398569119
3398576504
3398582303
3398588833
3398594815
3398600857
3398606655
3398613003
3398619290
3398625576
3398630337
3398635525
3398640530
3398646755
3398652432
3398658474
3398664089
3398668057
3398675320
3398681423
3398685330
3398690334
3398700527
3398704922
3398709866
3398717068
3398722683
3398728542
3398733669
3398741360
3398747158
3398753017
3398757351
3398763699
3398768276
3398773464
3398779507
3398786343
3398792507
3398795437
3398802090
3398806362
3398813381
3398819057
3398824673
3398829311
3398835537
3398840725
3398845302
3398851345
3398856716
3398862087
3398867946
3398874721
3398880092
3398885036
3398890041
3398895229
3398903225
3398909023
3398916347
3398920803
3398926723
3398930751
3398937343
3398942836
3398948879
3398954311
3398958766
3398965175
3398970180
3398975185
3398981655
3398989528
3398994350
3399001369
3399005763
3399012904
3399017055
3399021816
3399029445
3399034999
3399040858
3399047206
3399054225
3399058192
3399063869
3399074123
3399078456
3399090724
3399101039
3399107265
3399114223
3399121181
3399128871
3399134791
3399141261
3399145411
3399152247
3399156886
3399164515
3399169215
3399175685
3399180812
3399185511
3399190089
3399196620
3399203090
3399207728
3399214686
3399219447
3399226527
3399230799
3399236720
3399242213
3399247889
3399253382
3399258509
3399263819
3399268214
3399274561
3399281031
3399285487
3399291407
3399296168
3399302882
3399307704
3399314112
3399319056
3399324061
3399330653
3399335963
3399341822
3399347071
3399352686
3399360255
3399365748
3399370631
3399377283
3399382471
3399389979
3399395472
3399401575
3399407130
3399411829
3399419153
3399423243
3399428675
3399433436
3399440882
3399446619
3399452540
3399457728
3399463404
3399468958
3399473841
3399479212
3399485193
3399490320
3399495813
3399501062
3399506311
3399511805
3399516993
3399520838
3399527613
3399532495
3399538111
3399542566
3399549219
3399553064
3399558985
3399564173
3399568628
3399575769
3399583277
3399587793
3399593958
3399597864
3399602625
3399608606
3399614221
3399621057
3399626184
3399633203
3399637537
3399643457
3399649438
3399657373
3399665124
3399670435
3399679956
3399686182
3399691308
3399698694
3399703454
3399709314
3399715051
3399718774
3399725976
3399730249
3399735864
3399740625
3399747583
3399752954
3399757837
3399763574
3399768823
3399772851
3399779748
3399784936
3399792260
3399796289
3399803674
3399809594
3399814477
3399819116
3399824609
3399831079
3399836633
3399842614
3399848046
3399853662
3399859643
3399865441
3399869836
3399876977
3399882226
3399887475
3399892785
3399897607
3399904138
3399908776
3399914636
3399920739
3399925195
3399931542
3399936059
3399942406
3399947655
3399953942
3399958031
3399962914
3399967126
3399972924
3399978905
3399985253
3399989525
3399995629
3400001183
3400004601
3400011498
3400015526
3400021874
3400027550
3400033593
3400038353
3400042626
3400047936
3400052453
3400060265
3400067650
3400072533
3400077111
3400082360
3400088341
3400093956
3400100731
3400105919
3400111718
3400117455
3400122948
3400127953
3400133263
3400140465
3400146874
3400151390
3400158409
3400164696
3400171776
3400174767
3400183678
3400189232
3400195702
3400200707
3400207237
3400212242
3400217857
3400224754
3400229759
3400234825
3400240746
3400245323
3400251366
3400255943
3400262047
3400266869
3400273704
3400279198
3400285728
3400291283
3400294945
3400300072
3400306053
3400311058
3400316124
3400322166
3400327598
3400333824
3400339073
3400343895
3400351036
3400354881
3400363792
3400368797
3400374534
3400380027
3400385643
3400388939
3400395774
3400402122
3400406211
3400412803
3400419090
3400425743
3400432273
3400437767
3400446006
3400452110
3400457359
3400463706
3400470786
3400475547
3400483238
3400487876
3400494407
3400499290
3400507346
3400514060
3400518089
3400524070
3400530174
3400534690
3400539024
3400545737
3400552085
3400557761
3400564292
3400569968
3400577048
3400582481
3400586570
3400593528
3400599326
3400605308
3400610984
3400616782
3400620078
3400629233
3400633872
3400639487
3400644980
3400652976
3400658896
3400664512
3400670371
3400674765
3400679465
3400686118
3400691123
3400697593
3400704856
3400710410
3400715903
3400721091
3400727866
3400732627
3400740500
3400746665
3400754355
3400760031
3400767050
3400772421
3400778525
3400783347
3400790305
3400797934
3400803305
3400809714
3400815085
3400819968
3400824362
3400831870
3400837241
3400842184
3400847800
3400853903
3400859091
3400863791
3400869101
3400876364
3400881613
3400886740
3400892966
3400897238
3400901938
3400907309
3400911642
3400918539
3400923239
3400928366
3400934103
3400939779
3400945517
3400949667
3400954184
3400966635
3400973654
3400978170
3400982748
3400990438
3400993795
3401001425
3401005819
3401013571
3401020346
3401024191
3401031210
3401036459
3401043051
3401047506
3401052572
3401058676
3401065634
3401070638
3401077474
3401081747
3401089132
3401093588
3401099203
3401104147
3401112692
3401117880
3401123617
3401129354
3401135336
3401139913
3401145589
3401149923
3401158285
3401166952
3401174093
3401179220
3401184713
3401188985
3401193746
3401200277
3401206380
3401213399
3401218709
3401226339
3401232503
3401236471
3401243062
3401248433
3401255208
3401261068
3401267171
3401272664
3401278157
3401283162
3401288045
3401293477
3401299520
3401306173
3401310628
3401318624
3401325765
3401332234
3401338765
3401343526
3401353047
3401359273
3401365804
3401369710
3401376485
3401381978
3401388570
3401393514
3401399312
3401404683
3401408711
3401414632
3401419942
3401423543
3401429524
3401434224
3401440694
3401445943
3401452168
3401455891
3401461812
3401467366
3401472432
3401477803
3401484578
3401489888
3401494893
3401499409
3401506550
3401510762
3401516377
3401523030
3401531453
3401536702
3401542195
3401546834
3401552449
3401556660
3401563252
3401569294
3401573140
3401579853
3401586750
3401591450
3401597187
3401602253
3401607014
3401614399
3401618428
3401624775
3401629780
3401637409
3401643208
3401647785
3401653950
3401659504
3401662739
3401671772
3401675068
3401682148
3401688984
3401695454
3401702778
3401709675
3401716938
3401722492
3401727192
3401733540
3401740192
3401745808
3401751606
3401757038
3401762592
3401771198
3401776386
3401782062
3401787739
3401793293
3401799640
3401805317
3401810322
3401816791
3401822101
3401828510
3401834675
3401840107
3401844501
3401849933
3401854389
3401861713
3401866840
3401874958
3401880634
3401886493
3401889179
3401899494
3401908649
3401914752
3401919757
3401927082
3401934589
3401939228
3401943927
3401951679
3401955280
3401960956
3401966693
3401973102
3401977924
3401983600
3401989093
3401993793
3401998615
3402003619
3402009601
3402015033
3402019366
3402024677
3402031329
3402039508
3402045734
3402054584
3402059344
3402063983
3402067645
3402073932
3402078631
3402084186
3402088641
3402092914
3402098285
3402102435
3402104754
3402114459
3402119647
3402126056
3402129840
3402134662
3402140460
3402144610
3402147296
3402155230
3402159564
3402165484
3402169513
3402174090
3402179278
3402183917
3402188128
3402193255
3402199237
3402204547
3402209979
3402215106
3402220233
3402225115
3402229510
3402236346
3402241107
3402247576
3402253314
3402258441
3402261492
3402269976
3402273699
3402281085
3402285845
3402291033
3402295794
3402301592
3402305865
3402310992
3402315752
3402321612
3402326800
3402331805
3402337786
3402342791
3402348284
3402351946
3402358111
3402361834
3402367754
3402374773
3402379961
3402388018
3402394549
3402400225
3402402971
3402412005
3402417681
3402426348
3402435381
3402440813
3402447283
3402451494
3402458208
3402465838
3402471087
3402476946
3402482683
3402487383
3402493181
3402497942
3402508684
3402514299
3402523149
3402529802
3402536272
3402543047
3402550920
3402557146
3402564043
3402570635
3402576677
3402583391
3402589494
3402594194
3402598650
3402603532
3402608110
3402612688
3402618547
3402624223
3402628801
3402633073
3402638139
3402642900
3402647234
3402651933
3402657304
3402662370
3402666460
3402669267
3402675676
3402680009
3402685075
3402690507
3402694292
3402700334
3402704240
3402709245
3402712968
3402717973
3402723832
3402728349
3402734208
3402739274
3402743303
3402748246
3402752214
3402756303
3402762468
3402769365
3402774369
3402780290
3402784562
3402789201
3402793473
3402799516
3402805436
3402809404
3402815507
3402820329
3402825944
3402829545
3402837602
3402844132
3402849076
3402854325
3402860124
3402865251
3402869706
3402875199
3402881486
3402886735
3402892289
3402897538
3402902848
3402908830
3402913773
3402921464
3402928483
3402934037
3402938798
3402944108
3402951371
3402957352
3402961320
3402966691
3402972245
3402976700
3402982804
3402986283
3402992386
3402997941
3403002335
3403007035
3403012955
3403017899
3403023514
3403027604
3403032975
3403037430
3403043595
3403048966
3403053849
3403057572
3403063004
3403066910
3403072770
3403077713
3403083329
3403089188
3403093766
3403100663
3403104752
3403111527
3403116104
3403121964
3403127640
3403134354
3403138748
3403143936
3403149430
3403154617
3403159378
3403166763
3403172318
3403177445
3403182205
3403187698
3403192886
3403198135
3403204483
3403211136
3403216751
3403222366
3403226761
3403232315
3403239090
3403242752
3403249161
3403253738
3403260147
3403266556
3403274734
3403281936
3403287796
3403293411
3403298050
3403304092
3403310257
3403316299
3403321426
3403327163
3403333206
3403339248
3403346573
3403353958
3403360305
3403366531
3403373550
3403378738
3403383499
3403389541
3403395095
3403401687
3403406814
3403412796
3403419631
3403426406
3403431594
3403435745
3403442153
3403450515
3403455703
3403463333
3403468215
3403474807
3403480850
3403488479
3403494460
3403501907
3403508254
3403514175
3403520705
3403524673
3403530654
3403535964
3403544143
3403549392
3403553359
3403559707
3403563735
3403569289
3403573989
3403581374
3403588271
3403593703
3403599074
3403605178
3403611464
3403617446
3403622512
3403626967
3403633071
3403638442
3403643508
3403648696
3403653396
3403660109
3403665175
3403670852
3403675490
3403680861
3403685988
3403691848
3403696242
3403703139
3403707534
3403713454
3403717971
3403723342
3403729506
3403732558
3403740126
3403745741
3403750990
3403756484
3403761244
3403766737
3403771010
3403776381
3403782546
3403788039
3403794447
3403799574
3403803542
3403807692
3403813490
3403818861
3403822890
3403828566
3403833693
3403838393
3403843764
3403849257
3403856398
3403859938
3403865309
3403870253
3403875746
3403880507
3403887404
3403892653
3403896742
3403903151
3403908400
3403913221
3403917006
3403923475
3403929640
3403935560
3403942518
3403948561
3403954908
3403964735
3403974928
3403980970
3403992079
3403996717
3404005995
3404013197
3404021070
3404029005
3404036268
3404045790
3404051832
3404059522
3404065321
3404072279
3404078016
3404082227
3404087904
3404094801
3404100233
3404104505
3404110914
3404117445
3404123121
3404126539
3404134412
3404139967
3404145521
3404150648
3404156751
3404167188
3404174756
3404179517
3404186048
3404192151
3404197278
3404202833
3404208448
3404213758
3404218885
3404222547
3404231885
3404238172
3404243360
3404249707
3404255872
3404258924
3404265943
3404272412
3404278272
3404282910
3404290601
3404295545
3404300794
3404307691
3404311902
3404318616
3404324292
3404330030
3404336377
3404341565
3404347547
3404352673
3404356946
3404364209
3404369275
3404375317
3404380444
3404386365
3404392651
3404403699
3404408826
3404414868
3404420483
3404427075
3404432690
3404438794
3404444836
3404450635
3404456921
3404463391
3404470715
3404477429
3404484082
3404491345
3404498242
3404503918
3404510449
3404516797
3404523266
3404529675
3404535290
3404540539
3404548413
3404553235
3404558972
3404565075
3404571545
3404576123
3404582226
3404589917
3404595471
3404602368
3404607373
3404614758
3404620434
3404630261
3404639111
3404643322
3404651684
3404656140
3404664806
3404669811
3404675427
3404680676
3404684582
3404688793
3404695202
3404701427
3404707653
3404711926
3404719494
3404724743
3404729565
3404735241
3404740063
3404748119
3404753124
3404758617
3404764599
3404770092
3404775463
3404781200
3404786571
3404793773
3404799450
3404804943
3404809826
3404815746
3404821789
3404827526
3404832287
3404840282
3404845714
3404850902
3404855846
3404861400
3404866283
3404873302
3404877636
3404886180
3404890697
3404896801
3404901500
3404906505
3404911693
3404917125
3404922985
3404929027
3404932384
3404941295
3404944530
3404952403
3404957652
3404963146
3404967540
3404975658
3404982127
3404988292
3404993297
3404998546
3405005565
3405010020
3405015208
3405019969
3405027965
3405033092
3405038463
3405044017
3405049998
3405055919
3405060374
3405064647
3405072154
3405078380
3405085887
3405091624
3405097545
3405102488
3405107432
3405114634
3405119456
3405126780
3405131907
3405139659
3405144236
3405151011
3405155711
3405164500
3405173838
3405181285
3405187999
3405194712
3405201121
3405206980
3405212168
3405221812
3405226695
3405231700
3405236460
3405241953
3405247508
3405251353
3405257456
3405261851
3405268321
3405272715
3405278697
3405282664
3405288828
3405294260
3405299143
3405305674
3405311961
3405316294
3405321482
3405328013
3405332163
3405338694
3405342905
3405350413
3405355234
3405360483
3405365122
3405372263
3405377085
3405382883
3405385813
3405394358
3405400767
3405406626
3405409617
3405416575
3405421030
3405426645
3405433237
3405437693
3405444956
3405449900
3405456980
3405461985
3405469004
3405472727
3405479807
3405484201
3405490549
3405496530
3405502390
3405507456
3405513498
3405517832
3405524179
3405528452
3405536203
3405543405
3405547922
3405552377
3405559641
3405564096
3405569711
3405574838
3405581186
3405586740
3405592783
3405598215
3405603891
3405609750
3405614572
3405621652
3405627267
3405633737
3405637338
3405644296
3405649423
3405655588
3405659494
3405666269
3405670663
3405676034
3405682748
3405689767
3405694650
3405701242
3405708261
3405713205
3405718393
3405724557
3405732003
3405739206
3405744943
3405749398
3405758187
3405762033
3405770578
3405776864
3405783212
3405789804
3405796517
3405802865
3405808785
3405813119
3405819772
3405824960
3405832833
3405838937
3405843392
3405848580
3405855172
3405859933
3405866586
3405871713
3405877999
3405882394
3405888741
3405893746
3405898812
3405904977
3405910104
3405916817
3405923348
3405929269
3405934762
3405941170
3405946603
3405951668
3405957467
3405963082
3405969918
3405975411
3405981209
3405988045
3405994393
3406001717
3406008858
3406012581
3406022042
3406025521
3406033272
3406037545
3406043892
3406048348
3406053353
3406059945
3406064278
3406071419
3406077095
3406083992
3406087654
3406095223
3406100960
3406105904
3406110848
3406116951
3406122200
3406128121
3406134285
3406140450
3406143379
3406150520
3406154854
3406162483
3406168282
3406172798
3406177925
3406184212
3406189766
3406194771
3406199898
3406205086
3406211128
3406216621
3406222359
3406227302
3406232918
3406237251
3406243111
3406248909
3406252876
3406260444
3406265755
3406271431
3406278328
3406283943
3406288582
3406294563
3406300300
3406307441
3406312690
3406319038
3406323860
3406331123
3406336250
3406342781
3406348945
3406353706
3406367988
3406374153
3406379890
3406386970
3406394477
3406398323
3406405403
3406412544
3406418281
3406422309
3406429084
3406433601
3406440620
3406445503
3406450630
3406455940
3406461921
3406467475
3406473274
3406477058
3406484016
3406488349
3406495368
3406499702
3406505256
3406512275
3406515998
3406522590
3406528327
3406533515
3406539008
3406544135
3406549506
3406555610
3406560798
3406566108
3406571357
3406576850
3406582099
3406587531
3406593818
3406600959
3406606269
3406612433
3406616828
3406624335
3406630866
3406637519
3406644233
3406650763
3406656501
3406662177
3406667304
3406675360
3406679023
3406687262
3406692572
3406698737
3406706244
3406712287
3406718085
3406722479
3406729071
3406734198
3406739386
3406745551
3406751898
3406759161
3406766913
3406774786
3406780158
3406785407
3406790411
3406793524
3406803534
3406809698
3406815131
3406820807
3406826605
3406831305
3406836920
3406841315
3406846380
3406853400
3406859869
3406864447
3406870245
3406876715
3406881598
3406886969
3406893133
3406899115
3406904852
3406911505
3406916632
3406922247
3406926642
3406931891
3406934698
3406945013
3406951910
3406957464
3406963751
3406970221
3406979071
3406984625
3406990423
3406995977
3407004278
3407012274
3407018377
3407025091
3407031011
3407037969
3407045843
3407052435
3407057623
3407063482
3407068914
3407075018
3407081243
3407091131
3407096563
3407101385
3407106023
3407113714
3407119085
3407124456
3407129095
3407135381
3407140569
3407145940
3407152776
3407158086
3407163152
3407169378
3407173528
3407180608
3407185735
3407191472
3407197271
3407202764
3407208196
3407214055
3407218816
3407224797
3407230474
3407238469
3407244817
3407248723
3407255010
3407259710
3407267278
