2998505385
2998523268
2998539259
2998559462
2998576002
2998594008
2998616224
2998633680
2998654005
2998676344
2998696363
2998714613
2998732313
2998748548
2998764234
2998777418
2998796034
2998815015
2998832105
2998850965
2998872388
2998889417
2998905897
2998920240
2998936292
2998956250
2998980542
2999000928
2999017896
2999036206
2999052075
2999071668
2999087109
2999105359
2999119153
2999136365
2999155835
2999171521
2999188611
2999207348
2999223034
2999237194
2999251599
2999266491
2999281872
2999298413
2999312756
2999327526
2999341870
2999357678
2999370800
2999387096
2999402660
2999419628
2999434704
2999449230
2999464611
2999481151
2999494701
2999512768
2999525707
2999541515
2999555675
2999571666
2999584239
2999599620
2999613903
2999631175
2999646190
2999662975
2999682079
2999699962
2999723949
2999743724
2999763682
2999782359
2999798533
2999816050
2999834910
2999857310
2999880625
2999899241
2999917674
2999932444
2999950816
2999966441
2999982188
3000000254
3000018931
3000036631
3000053538
3000068857
3000083994
3000098093
3000113718
3000136911
3000165598
3000190439
3000214731
3000238046
3000261850
3000287119
3000308847
3000332040
3000355478
3000373971
3000394723
3000414438
3001052009
3001263556
3001315497
3001394232
3001472113
3001491217
3001508246
3001539435
3001560187
3001580938
3001605414
3001628058
3001652594
3001677191
3001700506
3001725530
3001749029
3001770818
3001793706
3001817083
3001839788
3001865178
3001893682
3002024907
3002049077
3002071843
3002095464
3002118413
3002142949
3002164250
3002188725
3002212101
3002237919
3002261051
3002285282
3002304936
3002325871
3002351200
3002373539
3002392704
3002413761
3002438053
3002460270
3002481144
3002505436
3002522892
3002555240
3002575382
3002597537
3002615909
3002634830
3002652713
3002680057
3002700626
3002790530
3002812747
3002843081
3002862246
3002885073
3002906069
3002929324
3002950259
3002972720
3002994326
3003016848
3003037539
3003064272
3003086855
3003121157
3003144228
3003167360
3003186098
3003204653
3003226076
3003247621
3003268556
3003290895
3003312624
3003336183
3003356813
3003379152
3003441529
3003466859
3003545777
3003568665
3003590394
3003612061
3003748658
3003771118
3003794678
3003814270
3003834473
3003854248
3003876099
3003898132
3003923645
3003946106
3003981750
3004006408
3004025146
3004046447
3004067504
3004085998
3004108886
3004133056
3004156005
3004182616
3004208800
3004507750
3004531187
3004554442
3004576597
3004607176
3004632139
3004655027
3004832090
3004858579
3004881589
3004902463
3004924436
3004949460
3004970578
3004993833
3005011411
3005037900
3005055783
3005070798
3005085751
3005101742
3005121091
3005138913
3005157528
3005172360
3005186886
3005201596
3005216183
3005232601
3005249813
3005265255
3005280575
3005297238
3005312740
3005328732
3005345089
3005368771
3005390987
3005413021
3005435177
3005456234
3005476131
3005494503
3005511226
3005531002
3005547725
3005566585
3005584407
3005601802
3005621517
3005681026
3005701717
3005723994
3005879145
3005898371
3005916804
3006169489
3006190790
3006206781
3006263544
3006284174
3006305047
3006324457
3006342828
3006373224
3006393243
3006461358
3006481622
3006563592
3006582574
3006601189
3006619317
3006945732
3006963737
3006984916
3007004814
3007022819
3007049858
3007067741
3007083793
3007102043
3007120231
3007137199
3007153434
3007172477
3007190360
3007207999
3007227958
3007245292
3007263114
3007482596
3007501272
3007520010
3007540091
3007557913
3007576284
3007921987
3007942006
3007957936
3008188832
3008208241
3008224659
3008240528
3008258229
3008274281
3008292347
3008310719
3008327442
3008347279
3008369739
3008387257
3008418262
3008468982
3008484913
3008499256
3008513172
3008529773
3008542896
3008561756
3008576404
3008589526
3008603015
3008616809
3008631274
3008645129
3008661365
3008678210
3008691943
3008705188
3008719653
3008734851
3008750232
3008767382
3008783252
3008799426
3008816516
3008830004
3008843310
3008858874
3008871630
3008885607
3008898852
3008913622
3008929369
3008939440
3008955248
3008966845
3008981127
3008993883
3009005724
3009018603
3009031176
3009041796
3009054369
3009064989
3009080187
3009091295
3009106737
3009117540
3009131151
3009144091
3009156725
3009169115
3009184252
3009198045
3009212511
3009226427
3009240953
3009255907
3009269578
3009281724
3009295457
3009310228
3009321641
3009336900
3009350572
3009364732
3009379564
3009394700
3009409349
3009421983
3009434861
3009447618
3009460191
3009472215
3009482652
3009499986
3009512864
3009524155
3009536118
3009549973
3009562180
3009575791
3009585923
3009598923
3009610642
3009624802
3009635972
3009649094
3009661179
3009676133
3009689927
3009701523
3009715012
3009728806
3009738999
3009747544
3009759751
3009773300
3009785751
3009797714
3009810593
3009823837
3009836960
3009849472
3009862717
3009873276
3009888412
3009900558
3009914840
3009927902
3009939804
3009953659
3009967392
3009980148
3009993454
3010007919
3010020675
3010033798
3010046371
3010060470
3010072128
3010088790
3010102279
3010116317
3010127731
3010140853
3010153182
3010166976
3010180587
3010195174
3010209945
3010222457
3010238387
3010249862
3010264388
3010279464
3010293685
3010307723
3010321028
3010332991
3010346785
3010361983
3010374190
3010385909
3010398299
3010411177
3010423262
3010435957
3010449324
3010459639
3010472273
3010483565
3010496321
3010509688
3010521711
3010534468
3010545027
3010556318
3010568769
3010580671
3010594282
3010608198
3010622114
3010634565
3010647322
3010661299
3010673200
3010684858
3010697309
3010710188
3010726606
3010741132
3010754499
3010768049
3010780500
3010792158
3010802839
3010815046
3010827192
3010838483
3010849958
3010860883
3010872174
3010883771
3010896527
3010908002
3010920697
3010932355
3010943830
3010955121
3010969281
3010982892
3010995709
3011009808
3011022748
3011036114
3011049298
3011064069
3011077008
3011088971
3011100751
3011113080
3011127301
3011142132
3011156109
3011169415
3011180584
3011191876
3011203472
3011215802
3011230450
3011242169
3011256207
3011268597
3011280560
3011292706
3011305950
3011319134
3011331097
3011344463
3011355633
3011368450
3011383221
3011396099
3011410747
3011424053
3011436565
3011451397
3011464763
3011479412
3011493328
3011508892
3011523357
3011535808
3011549480
3011562053
3011573650
3011587505
3011601970
3011614970
3011631511
3011643779
3011653972
3011668071
3011678386
3011693706
3011705180
3011718730
3011731120
3011745646
3011757731
3011772075
3011785624
3011798442
3011812174
3011823283
3011837077
3011850504
3011863688
3011875529
3011888895
3011900309
3011912943
3011926981
3011939616
3011953104
3011969218
3011982157
3011997355
3012010599
3012025126
3012040384
3012052652
3012069681
3012082987
3012095133
3012108560
3012122476
3012134744
3012148844
3012160379
3012173380
3012184671
3012197611
3012210794
3012226724
3012239114
3012252603
3012266763
3012282266
3012299051
3012312600
3012327066
3012339578
3012352090
3012363321
3012377175
3012389627
3012404275
3012415383
3012428140
3012438882
3012451455
3012463540
3012475930
3012487466
3012499490
3012511880
3012525674
3012538247
3012549905
3012564370
3012579507
3012591591
3012601967
3012615334
3012627541
3012641579
3012652626
3012668312
3012681130
3012694557
3012707680
3012722206
3012734169
3012747231
3012760353
3012772865
3012784157
3012795570
3012810402
3012822121
3012835121
3012850258
3012863197
3012874916
3012888710
3012902015
3012915870
3012930580
3012941383
3012955970
3012968910
3012980873
3012990028
3013002601
3013015663
3013028053
3013039894
3013053199
3013066139
3013079994
3013092811
3013104469
3013115516
3013127296
3013139991
3013152015
3013166968
3013178565
3013193458
3013204322
3013218787
3013230872
3013243201
3013254798
3013267188
3013278479
3013294409
3013306800
3013320777
3013332617
3013344580
3013356177
3013370032
3013382971
3013393897
3013408423
3013421545
3013435950
3013449866
3013463415
3013476294
3013488074
3013501806
3013515600
3013528662
3013545019
3013556799
3013569433
3013582128
3013595800
3013609899
3013622534
3013635290
3013648718
3013662939
3013674902
3013690038
3013704198
3013718237
3013730077
3013745092
3013759435
3013773168
3013785558
3013796850
3013811010
3013823949
3013838048
3013850438
3013864415
3013879003
3013890843
3013905553
3013920201
3013936559
3013949559
3013963414
3013975682
3013990453
3014003758
3014016209
3014029637
3014042699
3014054906
3014068455
3014081212
3014092442
3014106297
3014119847
3014135106
3014147190
3014162999
3014175450
3014187474
3014202488
3014217442
3014229771
3014243626
3014256748
3014270603
3014285252
3014298496
3014311680
3014324497
3014339878
3014352512
3014366489
3014380649
3014394932
3014407749
3014421482
3014434116
3014448642
3014459507
3014472812
3014488315
3014502597
3014515659
3014528537
3014541171
3014553317
3014564304
3014578525
3014590121
3014601840
3014614841
3014627841
3014643405
3014656039
3014671054
3014682040
3014697360
3014708957
3014722445
3014733981
3014747592
3014759188
3014772372
3014786105
3014801547
3014814913
3014826632
3014839877
3014852328
3014863192
3014875094
3014888338
3014899325
3014912264
3014923800
3014937777
3014948397
3014961886
3014974825
3014986178
3015000765
3015012179
3015025118
3015038424
3015049471
3015062532
3015074434
3015090914
3015104524
3015118135
3015129549
3015143282
3015156099
3015169283
3015182954
3015193819
3015207796
3015220674
3015233736
3015245576
3015258516
3015272066
3015286043
3015301423
3015313875
3015328340
3015340425
3015351655
3015369233
3015382600
3015395295
3015408296
3015418672
3015432710
3015446198
3015458833
3015473786
3015484895
3015499848
3015513459
3015528352
3015544709
3015559174
3015574311
3015587189
3015598481
3015609650
3015624421
3015636689
3015650238
3015661835
3015676117
3015686798
3015700592
3015712311
3015725372
3015738678
3015754425
3015766083
3015778717
3015791962
3015804169
3015817169
3015831329
3015843109
3015854767
3015866974
3015879913
3015892364
3015903961
3015918121
3015932830
3015947479
3015959625
3015974334
3015987335
3015999359
3016012603
3016022613
3016037505
3016049529
3016063262
3016073821
3016085479
3016097625
3016109771
3016120269
3016134551
3016147857
3016158294
3016171111
3016183989
3016195647
3016210723
3016224761
3016237090
3016249236
3016262358
3016275969
3016289946
3016303740
3016316680
3016331328
3016343962
3016358366
3016372221
3016385222
3016400298
3016413481
3016426237
3016438933
3016451262
3016463225
3016475310
3016489348
3016501249
3016514677
3016526457
3016537382
3016551786
3016567717
3016580656
3016595732
3016606291
3016619596
3016633939
3016645780
3016657072
3016671354
3016684293
3016697904
3016711271
3016722135
3016735074
3016748136
3016758024
3016771390
3016782682
3016795865
3016809964
3016823819
3016833524
3016847928
3016859220
3016873502
3016886014
3016897794
3016910977
3016923062
3016932095
3016942532
3016955777
3016965421
3016975186
3016986783
3016997342
3017006619
3017016263
3017024686
3017033414
3017040799
3017050015
3017057889
3017066434
3017075833
3017084134
3017091763
3017100186
3017109280
3017117886
3017126004
3017134854
3017143704
3017152432
3017160549
3017168057
3017176174
3017185635
3017193753
3017201199
3017209561
3017218289
3017225918
3017234097
3017243130
3017251125
3017262661
3017278469
3017290615
3017303310
3017315517
3017326687
3017339687
3017351284
3017361782
3017376003
3017387844
3017401882
3017412197
3017420742
3017428981
3017438564
3017447048
3017454799
3017463588
3017472072
3017482082
3017494533
3017504482
3017514247
3017524867
3017534511
3017545009
3017555019
3017564662
3017573940
3017583278
3017592311
3017601649
3017612453
3017622645
3017632655
3017644313
3017653651
3017662990
3017673366
3017683619
3017694240
3017704677
3017712916
3017724452
3017734034
3017744593
3017754847
3017765956
3017776576
3017787440
3017797877
3017808131
3017818629
3017829981
3017841883
3017851649
3017862757
3017873133
3017883143
3017892603
3017904017
3017914576
3017925501
3017935572
3017945704
3017956629
3017965601
3017976832
3017987269
3017999109
3018009729
3018019312
3018028833
3018039637
3018049280
3018061426
3018074549
3018084925
3018096582
3018105799
3018116846
3018126489
3018139124
3018152002
3018163232
3018173059
3018183740
3018193872
3018204492
3018215662
3018226831
3018237329
3018249048
3018259485
3018270593
3018279687
3018290490
3018301172
3018313501
3018324121
3018334741
3018344995
3018355798
3018367272
3018377709
3018389977
3018400170
3018411340
3018421533
3018432763
3018441369
3018454186
3018465966
3018474267
3018486535
3018498681
3018509240
3018519677
3018531762
3018541344
3018551903
3018559350
3018568017
3018580224
3018589623
3018601159
3018610741
3018621849
3018630822
3018640526
3018650048
3018658837
3018668480
3018677452
3018687462
3018697106
3018706383
3018715416
3018724632
3018733299
3018743614
3018752098
3018761375
3018770714
3018778954
3018787621
3018796165
3018807213
3018815819
3018825828
3018835228
3018843712
3018852073
3018860557
3018870811
3018880333
3018890587
3018899009
3018907188
3018916771
3018925377
3018934410
3018942894
3018951133
3018959617
3018967308
3018975852
3018984397
3018992637
3019001792
3019010459
3019019187
3019028220
3019037193
3019046287
3019055198
3019063499
3019072227
3019080039
3019089805
3019097617
3019106650
3019114707
3019123801
3019133201
3019141868
3019149924
3019158774
3019167258
3019175498
3019182212
3019192588
3019201743
3019211570
3019218528
3019227622
3019236960
3019246176
3019253928
3019262473
3019269919
3019278464
3019287985
3019294333
3019303671
3019311118
3019320822
3019328208
3019336997
3019344443
3019352316
3019359396
3019369101
3019377829
3019386557
3019395041
3019402670
3019410971
3019418539
3019426779
3019436667
3019445456
3019455099
3019462546
3019471701
3019479330
3019486837
3019496054
3019503988
3019512838
3019521872
3019527914
3019535971
3019545065
3019554891
3019562033
3019573019
3019580709
3019589132
3019598409
3019606527
3019615316
3019624593
3019633077
3019640707
3019650350
3019657797
3019668111
3019675802
3019686727
3019695272
3019702108
3019710226
3019718465
3019728292
3019735860
3019744527
3019754476
3019761983
3019770406
3019778280
3019786947
3019796712
3019804158
3019813070
3019822408
3019831563
3019839193
3019848775
3019858174
3019865010
3019873982
3019884175
3019891744
3019899312
3019909810
3019919393
3019926289
3019935323
3019943868
3019950642
3019960896
3019969563
3019979329
3019987508
3019997517
3020004964
3020011006
3020022542
3020029256
3020039509
3020048237
3020058735
3020066426
3020075154
3020082600
3020090962
3020099812
3020108845
3020117695
3020125630
3020134419
3020142659
3020151997
3020161091
3020169819
3020177571
3020185993
3020193806
3020202717
3020211933
3020219929
3020228657
3020237385
3020245197
3020254414
3020261555
3020267597
3020279499
3020288410
3020294697
3020304096
3020313679
3020322285
3020329548
3020339924
3020348041
3020358051
3020367695
3020375812
3020383808
3020391376
3020401325
3020408100
3020417377
3020424884
3020433307
3020442707
3020450763
3020459125
3020466327
3020476520
3020484149
3020493549
3020501300
3020509967
3020518817
3020528339
3020537250
3020544757
3020553180
3020563312
3020569904
3020579547
3020589435
3020596332
3020606219
3020616412
3020626788
3020635089
3020645404
3020653827
3020661822
3020671893
3020681659
3020688128
3020697589
3020707721
3020716571
3020724505
3020732440
3020740374
3020749835
3020757708
3020766253
3020775042
3020783038
3020792010
3020800799
3020808978
3020817584
3020824786
3020834246
3020841876
3020850298
3020857745
3020865191
3020874590
3020883074
3020891680
3020900957
3020908770
3020918108
3020926958
3020934405
3020943926
3020951555
3020960650
3020968462
3020977373
3020986345
3020994707
3021004412
3021012041
3021021440
3021028826
3021036821
3021045977
3021052996
3021062883
3021071428
3021079485
3021088274
3021095781
3021104448
3021112138
3021120439
3021128069
3021136491
3021144914
3021153032
3021160966
3021169633
3021178117
3021186113
3021195207
3021203447
3021211687
3021219804
3021227373
3021235795
3021245683
3021254655
3021262224
3021271318
3021278886
3021287065
3021296037
3021303788
3021313798
3021322160
3021330217
3021338212
3021346635
3021355119
3021362870
3021372148
3021381181
3021389909
3021398759
3021406388
3021413773
3021422135
3021432084
3021439469
3021448563
3021461137
3021474442
3021484330
3021491959
3021506425
3021515458
3021524369
3021533097
3021540848
3021548905
3021559220
3021568375
3021576920
3021584671
3021594498
3021602494
3021611039
3021620133
3021627396
3021636917
3021644425
3021652237
3021661209
3021671036
3021680191
3021688187
3021696732
3021704605
3021714310
3021723221
3021731766
3021741104
3021750076
3021758865
3021767593
3021776016
3021784622
3021792313
3021802688
3021810013
3021818680
3021825760
3021834854
3021842605
3021852493
3021862442
3021871597
3021880142
3021887222
3021894729
3021904861
3021915725
3021926467
3021934036
3021942703
3021950088
3021957168
3021967178
3021973525
3021983413
3021991409
3022000564
3022008254
3022017104
3022024551
3022033218
3022042678
3022049880
3022060500
3022068130
3022076369
3022083816
3022092361
3022101882
3022108596
3022117324
3022126418
3022132583
3022142409
3022151198
3022160720
3022167861
3022176955
3022185378
3022193862
3022203444
3022211928
3022221999
3022231642
3022237685
3022248061
3022256240
3022263747
3022273512
3022281935
3022289015
3022299574
3022309157
3022317214
3022325819
3022335707
3022345351
3022353835
3022361098
3022369521
3022377028
3022385817
3022394972
3022402907
3022410536
3022419142
3022427992
3022435866
3022444166
3022452345
3022462233
3022469618
3022478773
3022486769
3022495131
3022503981
3022511732
3022520887
3022528334
3022537794
3022545545
3022554090
3022561476
3022571424
3022580152
3022590162
3022599195
3022607557
3022615186
3022623731
3022632520
3022641859
3022650526
3022658887
3022666517
3022674451
3022683485
3022691297
3022701124
3022709119
3022717420
3022725599
3022733899
3022741773
3022750257
3022760328
3022768689
3022776685
3022785718
3022794568
3022803601
3022811780
3022821363
3022829297
3022838025
3022845777
3022854688
3022862622
3022871778
3022880200
3022888074
3022896069
3022904736
3022912549
3022920789
3022928784
3022937451
3022945142
3022953809
3022961743
3022970593
3022978711
3022987012
3022996045
3023004346
3023011914
3023020581
3023028393
3023035107
3023044018
3023055005
3023063000
3023071362
3023077649
3023087231
3023095227
3023104138
3023111828
3023121228
3023128186
3023136669
3023143749
3023152600
3023160473
3023169506
3023178173
3023185925
3023193188
3023202770
3023211132
3023218029
3023226696
3023233959
3023241955
3023248974
3023260143
3023267223
3023276623
3023283153
3023292858
3023301586
3023307751
3023316784
3023326610
3023334240
3023342296
3023352306
3023359142
3023368663
3023376232
3023384777
3023394725
3023400829
3023410595
3023418407
3023425914
3023435375
3023444408
3023452648
3023459972
3023469859
3023477489
3023484752
3023492320
3023502513
3023510570
3023519115
3023529186
3023535960
3023546092
3023553966
3023563243
3023570811
3023576915
3023588878
3023597179
3023604198
3023612681
3023621470
3023629588
3023635753
3023646983
3023653880
3023663890
3023671214
3023679942
3023686961
3023696299
3023704356
3023714183
3023722300
3023730479
3023739939
3023747874
3023756785
3023765574
3023774546
3023782359
3023791941
3023799387
3023807566
3023816660
3023824046
3023834727
3023842661
3023850657
3023859995
3023867258
3023873972
3023883311
3023892100
3023900034
3023907114
3023917429
3023924570
3023933848
3023943003
3023951731
3023959299
3023968210
3023976267
3023985361
3023992136
3024002512
3024011057
3024018259
3024027048
3024036875
3024043588
3024052561
3024060739
3024070261
3024078317
3024086740
3024096628
3024103647
3024112985
3024120187
3024129770
3024137704
3024145273
3024154855
3024161508
3024171030
3024178903
3024186166
3024193918
3024203439
3024211008
3024219552
3024227548
3024234201
3024243539
3024253854
3024260019
3024270517
3024277658
3024287057
3024293283
3024302682
3024310250
3024319223
3024328561
3024337411
3024344979
3024353097
3024360055
3024368173
3024376718
3024386605
3024395455
3024403207
3024411385
3024421395
3024429879
3024438729
3024446908
3024455453
3024465035
3024471810
3024481576
3024490060
3024498849
3024506966
3024513863
3024523568
3024531930
3024538765
3024548836
3024555428
3024564156
3024572701
3024581002
3024587716
3024596932
3024604622
3024614449
3024621956
3024629830
3024638130
3024646187
3024656197
3024665474
3024671578
3024681343
3024689522
3024697029
3024706245
3024713997
3024720711
3024730110
3024739571
3024745918
3024755012
3024764229
3024771736
3024779304
3024789192
3024795967
3024805183
3024812996
3024822395
3024830147
3024838936
3024848579
3024856575
3024864387
3024872871
3024880745
3024887947
3024897285
3024904975
3024913826
3024920906
3024930244
3024940010
3024946906
3024956550
3024962654
3024971931
3024980049
3024989692
3024997077
3025005256
3025015205
3025023383
3025031989
3025039436
3025048164
3025057441
3025064277
3025073798
3025080390
3025089789
3025098395
3025105659
3025113654
3025122504
3025128974
3025139533
3025147345
3025156134
3025163581
3025171759
3025181586
3025188727
3025198493
3025209235
3025216803
3025226264
3025234137
3025243842
3025250434
3025260504
3025270270
3025278937
3025286444
3025295172
3025301947
3025310553
3025319403
3025328375
3025337225
3025344550
3025351752
3025360602
3025368658
3025376288
3025384222
3025394293
3025402716
3025411322
3025420721
3025429083
3025436895
3025444525
3025454779
3025462652
3025471930
3025479437
3025489141
3025496344
3025506903
3025514593
3025522528
3025531439
3025539190
3025547247
3025557867
3025572942
3025584600
3025597234
3025609075
3025619817
3025631231
3025640508
3025649175
3025656988
3025665472
3025673711
3025681463
3025690252
3025700139
3025707403
3025714971
3025722967
3025730047
3025737859
3025745977
3025754583
3025762944
3025771001
3025778325
3025785955
3025793340
3025802312
3025811406
3025819829
3025827825
3025836003
3025843389
3025850774
3025858830
3025868779
3025877629
3025885564
3025892400
3025900639
3025907964
3025916264
3025925542
3025934453
3025942143
3025948796
3025956364
3025965092
3025971806
3025981145
3025989140
3025997746
3026007207
3026012517
3026022282
3026030034
3026040654
3026055546
3026067082
3026078556
3026088322
3026099430
3026108586
3026116886
3026125614
3026134709
3026142887
3026150517
3026159733
3026168156
3026177372
3026185185
3026196171
3026206059
3026220707
3026233585
3026245243
3026253849
3026263126
3026271000
3026278934
3026287784
3026296512
3026305790
3026313663
3026321293
3026330387
3026338260
3026345585
3026353946
3026362918
3026371830
3026380130
3026387088
3026395145
3026402652
3026410587
3026419864
3026427555
3026436222
3026444217
3026451908
3026460574
3026468143
3026478153
3026485782
3026494998
3026503482
3026511722
3026519656
3026529544
3026537967
3026546573
3026554141
3026562015
3026569888
3026577457
3026585635
3026595340
3026603030
3026611148
3026619388
3026627627
3026634707
3026642947
3026651919
3026660647
3026669192
3026677615
3026685916
3026694033
3026702639
3026710696
3026718447
3026728152
3026733767
3026743838
3026750369
3026759463
3026769106
3026775515
3026783083
3026791384
3026798342
3026806704
3026816103
3026826907
3026837588
3026848330
3026859255
3026867617
3026877688
3026886294
3026894472
3026902041
3026909548
3026917849
3026926394
3026933840
3026941530
3026950747
3026959230
3026968019
3026976320
3026985292
3026994997
3027004152
3027012392
3027020571
3027028627
3027036745
3027044985
3027054140
3027063112
3027071779
3027079958
3027089174
3027096864
3027104738
3027113222
3027121828
3027131166
3027139101
3027148439
3027157106
3027165346
3027173830
3027182435
3027192689
3027200990
3027209291
3027217775
3027225892
3027234071
3027241029
3027250856
3027259095
3027267945
3027276490
3027285096
3027293824
3027301942
3027311097
3027319886
3027328919
3027337525
3027345399
3027354066
3027362061
3027373780
3027383790
3027393311
3027401795
3027409913
3027417970
3027426453
3027435731
3027443482
3027451844
3027460206
3027468018
3027476868
3027485779
3027495362
3027503968
3027511902
3027519837
3027528199
3027537049
3027544678
3027554444
3027564331
3027571839
3027579407
3027588562
3027595948
3027603272
3027613220
3027622132
3027628357
3027638489
3027645020
3027654663
3027663025
3027671753
3027679016
3027687500
3027694519
3027704346
3027713318
3027720459
3027730164
3027738159
3027747009
3027755432
3027763245
3027772339
3027779968
3027789367
3027798523
3027806579
3027814941
3027822937
3027831604
3027839233
3027848571
3027856323
3027864135
3027873352
3027880554
3027889709
3027898376
3027905822
3027915405
3027925231
3027933044
3027940429
3027949645
3027958557
3027966308
3027976257
3027983703
3027991454
3027998779
3028008056
3028016051
3028025146
3028035094
3028042174
3028051208
3028058837
3028066344
3028076293
3028083373
3028092650
3028101745
3028109496
3028117797
3028128722
3028136535
3028147277
3028156920
3028164183
3028173400
3028181090
3028190123
3028199828
3028207884
3028215453
3028225646
3028235167
3028243956
3028250670
3028260985
3028269164
3028278685
3028286375
3028294676
3028301390
3028311034
3028318053
3028326720
3028334654
3028343138
3028352110
3028358458
3028366209
3028375365
3028383909
3028392637
3028400145
3028408445
3028415892
3028424559
3028431578
3028439879
3028449278
3028455992
3028463743
3028473448
3028480406
3028490354
3028499998
3028507200
3028517820
3028526914
3028536497
3028544309
3028552732
3028560667
3028568968
3028577879
3028584898
3028593626
3028601499
3028611387
3028620420
3028626707
3028635313
3028641233
3028650205
3028659299
3028669187
3028676694
3028685361
3028694578
3028702451
3028710813
3028722593
3028730344
3028739560
3028748410
3028755368
3028765195
3028773252
3028780454
3028791196
3028798398
3028806821
3028813352
3028822263
3028830625
3028837644
3028846250
3028854550
3028862546
3028869626
3028878720
3028885556
3028894162
3028901364
3028909909
3028919186
3028928036
3028936825
3028943478
3028951108
3028960202
3028966061
3028975216
3028982724
3028990231
3028999081
3029006772
3029015072
3029024411
3029033200
3029040890
3029048153
3029056454
3029062985
3029072079
3029080380
3029088070
3029095883
3029103939
3029111019
3029118649
3029126583
3029134701
3029144406
3029152950
3029160641
3029170162
3029177853
3029187374
3029195675
3029204647
3029212826
3029221432
3029229977
3029238399
3029245235
3029254391
3029263058
3029271663
3029281429
3029289181
3029298519
3029308101
3029317440
3029325008
3029333797
3029342403
3029350277
3029358272
3029367366
3029376461
3029385005
3029393489
3029403072
3029409419
3029417903
3029428523
3029436580
3029445125
3029453548
3029459773
3029467525
3029475276
3029483882
3029493282
3029500850
3029508235
3029517024
3029524470
3029532466
3029541133
3029550532
3029558040
3029566279
3029575191
3029581416
3029589839
3029596675
3029607234
3029616694
3029624873
3029633357
3029642573
3029650691
3029659724
3029666682
3029676203
3029686824
3029692317
3029701533
3029709956
3029719172
3029727961
3029734431
3029741023
3029749323
3029757990
3029766474
3029775141
3029783320
3029790400
3029797175
3029805781
3029813593
3029821223
3029829829
3029838496
3029845881
3029855219
3029864069
3029871699
3029880732
3029888178
3029896479
3029905268
3029913080
3029921930
3029930109
3029938837
3029946650
3029955194
3029963983
3029972528
3029981073
3029988886
3029997187
3030006159
3030014826
3030023859
3030032343
3030040888
3030048761
3030057123
3030065668
3030074884
3030081293
3030089960
3030099603
3030105829
3030116815
3030124017
3030134027
3030143060
3030149896
3030159967
3030168329
3030175470
3030182977
3030192315
3030200921
3030207879
3030215570
3030224603
3030233270
3030241754
3030249871
3030258599
3030266046
3030274224
3030282952
3030291131
3030297784
3030305535
3030314446
3030324029
3030333001
3030341180
3030350335
3030358331
3030367791
3030377251
3030385918
3030394646
3030402276
3030411492
3030418999
3030429314
3030438225
3030446099
3030453972
3030461419
3030470940
3030478203
3030486992
3030493950
3030505181
3030512688
3030522515
3030530816
3030537651
3030547417
3030556572
3030564141
3030571709
3030580986
3030587517
3030596489
3030602715
3030615105
3030622429
3030629448
3030638420
3030646843
3030655510
3030663078
3030671989
3030681267
3030687370
3030697136
3030705925
3030713615
3030719597
3030729546
3030738579
3030746147
3030755546
3030762199
3030772087
3030780998
3030790825
3030797477
3030806633
3030816093
3030822075
3030831047
3030841667
3030852165
3030863029
3030873161
3030884391
3030893486
3030905021
3030913688
3030922721
3030931999
3030939445
3030948173
3030957084
3030965812
3030974540
3030983939
3030992912
3031001517
3031008964
3031016593
3031025626
3031034171
3031043021
3031051932
3031059623
3031068229
3031077506
3031085868
3031092948
3031101676
3031109733
3031118949
3031126578
3031134330
3031143607
3031151786
3031160819
3031170890
3031178763
3031185965
3031195304
3031203055
3031211966
3031220877
3031227957
3031235526
3031246146
3031253409
3031263297
3031269583
3031279044
3031286368
3031295401
3031302359
3031312186
3031319571
3031328543
3031338248
3031347525
3031355093
3031364432
3031372427
3031379934
3031388846
3031398367
3031405874
3031414602
3031423147
3031431082
3031439260
3031447744
3031455862
3031464224
3031472402
3031481558
3031489736
3031497854
3031506643
3031514944
3031522756
3031531301
3031539968
3031546804
3031552541
3031564993
3031574758
3031581716
3031591177
3031598501
3031607412
3031614065
3031623464
3031631338
3031641042
3031649343
3031656972
3031666128
3031673086
3031681936
3031688466
3031698720
3031707876
3031715932
3031723134
3031732473
3031739553
3031747609
3031757131
3031764577
3031775197
3031782826
3031791066
3031799184
3031808827
3031817922
3031826528
3031835988
3031844045
3031852223
3031859670
3031868764
3031877553
3031885915
3031892384
3031903432
3031910817
3031918446
3031925893
3031935475
3031943226
3031952016
3031959035
3031968983
3031976368
3031984730
3031996205
3032003834
3032012745
3032020863
3032027028
3032036732
3032046864
3032054737
3032064198
3032071278
3032078541
3032086964
3032095814
3032105580
3032113087
3032120533
3032130238
3032137013
3032142689
3032151112
3032156788
3032164539
3032172779
3032178211
3032184803
3032192554
3032199085
3032207020
3032214161
3032222156
3032228321
3032237720
3032244922
3032252552
3032258533
3032267322
3032273731
3032280384
3032287830
3032293567
3032301075
3032306873
3032316456
3032323719
3032329151
3032336475
3032342578
3032349536
3032354785
3032364429
3032370594
3032376880
3032382556
3032389087
3032396289
3032402515
3032412280
3032419299
3032425647
3032432300
3032439624
3032447925
3032453723
3032462390
3032469592
3032477039
3032485034
3032490832
3032499866
3032507129
3032513721
3032521838
3032529651
3032537219
3032544421
3032551135
3032558764
3032567370
3032574084
3032582324
3032590381
3032597094
3032602771
3032612780
3032620410
3032629016
3032637011
3032642993
3032652087
3032658313
3032665332
3032673632
3032680285
3032687060
3032695544
3032701647
3032706652
3032716479
3032722704
3032730639
3032735949
3032743701
3032750048
3032758532
3032766772
3032773425
3032779833
3032787829
3032793871
3032804674
3032811755
3032820360
3032826769
3032834215
3032843432
3032850146
3032858751
3032866381
3032872912
3032881456
3032889818
3032896471
3032904162
3032911974
3032918871
3032927050
3032933825
3032943224
3032951281
3032957079
3032965258
3032974169
3032982897
3032990282
3032998644
3033005235
3033012987
3033018663
3033027574
3033036669
3033043504
3033051256
3033059862
3033066576
3033074144
3033081346
3033088853
3033096544
3033103990
3033110338
3033117296
3033125963
3033131822
3033141832
3033148973
3033155504
3033162767
3033170274
3033176866
3033184190
3033191331
3033200975
3033208421
3033214952
3033222703
3033228990
3033237962
3033245591
3033253648
3033259568
3033267564
3033274644
3033280992
3033288377
3033296983
3033303636
3033312058
3033318467
3033327012
3033332932
3033340745
3033349046
3033356004
3033364304
3033370408
3033376389
3033383836
3033393052
3033399583
3033407517
3033415208
3033420762
3033429307
3033436631
3033444565
3033459214
3033471238
3033479599
3033491806
3033502549
3033510544
3033517258
3033526291
3033533615
3033541794
3033549851
3033557480
3033566025
3033572800
3033580734
3033587754
3033596726
3033603928
3033611252
3033619431
3033626206
3033634934
3033640976
3033646469
3033655319
3033661606
3033666916
3033675339
3033683640
3033690781
3033697617
3033705002
3033712448
3033719772
3033727280
3033734665
3033743515
3033749801
3033756332
3033765304
3033772690
3033780075
3033789169
3033796066
3033803634
3033810043
3033819015
3033825180
3033831832
3033841110
3033849227
3033855697
3033863754
3033872421
3033878707
3033887680
3033895980
3033902938
3033910995
3033918441
3033925033
3033932662
3033939925
3033948837
3033955123
3033962753
3033970626
3033977340
3033983932
3033992599
3034000472
3034008102
3034014632
3034022140
3034028548
3034036300
3034043014
3034051009
3034058883
3034067550
3034074202
3034083480
3034090987
3034098739
3034105697
3034112655
3034120711
3034126876
3034132674
3034141646
3034149825
3034156661
3034163375
3034169783
3034177657
3034183516
3034192855
3034199690
3034207747
3034215376
3034221907
3034232100
3034237532
3034246321
3034253462
3034259627
3034269087
3034276472
3034283614
3034290144
3034299055
3034306074
3034314863
3034320906
3034328352
3034336226
3034343245
3034350081
3034357161
3034365523
3034372114
3034377974
3034385115
3034392683
3034400679
3034409163
3034416304
3034422468
3034430403
3034436506
3034444075
3034450727
3034460676
3034467146
3034476301
3034483442
3034496015
3034503340
3034511091
3034520429
3034526960
3034534406
3034539838
3034548322
3034555830
3034562849
3034572309
3034578779
3034584943
3034593854
3034602094
3034608015
3034615217
3034625654
3034632429
3034639387
3034648542
3034656598
3034664167
3034673261
3034680951
3034686872
3034693952
3034702436
3034708295
3034715863
3034723493
3034729901
3034737592
3034745343
3034751264
3034759259
3034767194
3034774762
3034783917
3034791425
3034799359
3034806867
3034815228
3034822919
3034831891
3034839520
3034847516
3034854535
3034861310
3034868268
3034875653
3034883527
3034891888
3034897626
3034905560
3034914899
3034923566
3034931500
3034939618
3034946332
3034953229
3034961285
3034968548
3034974347
3034982831
3034991436
3034998089
3035005780
3035011822
3035017987
3035024639
3035035199
3035042095
3035048504
3035056500
3035063031
3035070782
3035078228
3035084454
3035094708
3035102215
3035109783
3035118023
3035124798
3035135174
3035141949
3035148602
3035157513
3035163494
3035173626
3035181560
3035188457
3035195110
3035204876
3035211773
3035219036
3035225689
3035233867
3035240825
3035249370
3035255901
3035262432
3035271099
3035279400
3035286297
3035293865
3035303081
3035309246
3035318157
3035325481
3035332195
3035338054
3035346111
3035352825
3035359783
3035367961
3035375225
3035382121
3035388103
3035396648
3035402202
3035411601
3035418498
3035426250
3035434551
3035442302
3035449809
3035458965
3035466289
3035474406
3035482158
3035488383
3035496135
3035503947
3035510539
3035517863
3035525737
3035532023
3035539836
3035545390
3035554484
3035563945
3035570109
3035578593
3035585185
3035592448
3035599284
3035608561
3035616984
3035623332
3035630717
3035637797
3035644816
3035651408
3035659281
3035666972
3035673869
3035682170
3035688822
3035695719
3035704691
3035711100
3035718791
3035725810
3035733256
3035740397
3035748820
3035757487
3035763773
3035771769
3035779642
3035787394
3035794291
3035800761
3035809794
3035817789
3035825785
3035832316
3035839701
3035846598
3035854349
3035861124
3035868693
3035877237
3035883463
3035890848
3035897074
3035905436
3035911905
3035922342
3035929361
3035936075
3035943155
3035949625
3035958231
3035964517
3035973184
3035980936
3035989054
3035994852
3036002481
3036009805
3036017069
3036025736
3036034464
3036040994
3036046671
3036053873
3036059671
3036066263
3036075357
3036081827
3036088724
3036097085
3036104654
3036112710
3036119180
3036127054
3036134744
3036142373
3036149942
3036155069
3036162210
3036169534
3036178079
3036185708
3036193094
3036199563
3036207742
3036213723
3036222268
3036230142
3036238748
3036245217
3036253884
3036260720
3036266885
3036276040
3036285012
3036293496
3036300210
3036305642
3036314858
3036320657
3036327248
3036334695
3036343301
3036351723
3036359170
3036365395
3036372597
3036381936
3036388711
3036398171
3036407509
3036417824
3036429055
3036439858
3036450356
3036459206
3036466713
3036473549
3036480385
3036488625
3036495217
3036502724
3036511574
3036518471
3036524636
3036533730
3036540383
3036549111
3036555763
3036563881
3036571022
3036577492
3036584877
3036593239
3036601601
3036610085
3036617348
3036624855
3036632912
3036638344
3036646645
3036653175
3036661293
3036667885
3036675331
3036682533
3036689674
3036696510
3036704262
3036712440
3036719642
3036726539
3036734352
3036741859
3036749244
3036755653
3036764503
3036772560
3036779518
3036786598
3036794532
3036800880
3036808387
3036815895
3036823646
3036831337
3036839149
3036846656
3036853614
3036860511
3036869300
3036877662
3036883949
3036891456
3036897071
3036903419
3036911353
3036920936
3036927894
3036933753
3036941688
3036947547
3036955299
3036960242
3036969215
3036978004
3036984229
3036992591
3037000342
3037006507
3037015845
3037023536
3037030128
3037037513
3037044471
3037052466
3037060279
3037067237
3037075415
3037083472
3037090430
3037098121
3037104041
3037110083
3037119666
3037128028
3037135047
3037142981
3037149085
3037154883
3037162512
3037170752
3037176489
3037185462
3037192236
3037201087
3037206641
3037215125
3037222571
3037230139
3037238928
3037246375
3037253699
3037261084
3037267676
3037274817
3037281042
3037289892
3037298804
3037305212
3037312231
3037320044
3037326697
3037334814
3037342871
3037348547
3037356421
3037362280
3037370459
3037376928
3037384619
3037392370
3037400610
3037406775
3037413610
3037421728
3037428503
3037437109
3037445166
3037452368
3037458837
3037466223
3037472570
3037479162
3037487341
3037495092
3037503210
3037511450
3037517553
3037525854
3037532446
3037538793
3037545873
3037553869
3037560461
3037568395
3037574743
3037581701
3037588903
3037597631
3037605199
3037611608
3037617284
3037625280
3037630529
3037638524
3037648412
3037657567
3037664464
3037671972
3037678502
3037684423
3037693578
3037702733
3037711400
3037718114
3037724218
3037731420
3037737279
3037746068
3037751805
3037760472
3037767674
3037774877
3037781774
3037788365
3037795873
3037803380
3037811742
3037820348
3037827367
3037834569
3037841222
3037848058
3037856847
3037863255
3037869664
3037876500
3037884251
3037890660
3037899876
3037906773
3037916295
3037923192
3037929173
3037937230
3037943760
3037951390
3037958775
3037966465
3037973057
3037980076
3037988682
3037995701
3038002476
3038010533
3038019383
3038027500
3038034336
3038042942
3038048863
3038057163
3038064060
3038074375
3038081394
3038088596
3038097569
3038105015
3038113194
3038122166
3038129063
3038137241
3038144138
3038153233
3038159336
3038166782
3038173923
3038181431
3038188938
3038197483
3038205234
3038212009
3038219211
3038227878
3038234165
3038242466
3038249790
3038255588
3038263767
3038269077
3038279331
3038286228
3038294407
3038300693
3038308506
3038314792
3038320957
3038327487
3038336093
3038344089
3038351474
3038360263
3038367832
3038373996
3038383335
3038390964
3038397434
3038406650
3038412570
3038421298
3038429172
3038436191
3038443027
3038450290
3038458652
3038465305
3038471835
3038478610
3038487277
3038496493
3038502963
3038509494
3038517550
3038525668
3038532016
3038538547
3038546237
3038553256
3038560824
3038566745
3038573520
3038581210
3038587558
3038594149
3038602938
3038610568
3038616793
3038622775
3038630831
3038635958
3038645175
3038654208
3038659823
3038666537
3038674105
3038680026
3038687350
3038694064
3038701449
3038709628
3038715609
3038723422
3038730257
3038735384
3038743319
3038749178
3038758273
3038766329
3038772982
3038779391
3038787081
3038793185
3038799593
3038808016
3038815523
3038823580
3038831576
3038837557
3038844576
3038853182
3038860628
3038867708
3038876314
3038882296
3038890413
3038898104
3038904818
3038915316
3038923372
3038930025
3038937654
3038944429
3038952547
3038960848
3038966890
3038975801
3038982271
3038990633
3038997347
3039004732
3039013399
3039019136
3039026216
3039035493
3039042390
3039048860
3039056123
3039064729
3039072542
3039078157
3039085786
3039093416
3039099702
3039106233
3039115144
3039123445
3039132783
3039139192
3039147004
3039153413
3039161409
3039168489
3039177705
3039184724
3039191255
3039198396
3039206880
3039212922
3039222077
3039229585
3039236726
3039245271
3039250764
3039258698
3039266084
3039272248
3039279939
3039284760
3039294648
3039300141
3039308076
3039315156
3039321809
3039330659
3039336884
3039343415
3039351655
3039358002
3039364228
3039370637
3039380830
3039387177
3039393586
3039401520
3039409150
3039414765
3039423493
3039430756
3039437714
3039444794
3039451020
3039459015
3039465363
3039472016
3039480866
3039488984
3039494599
3039503022
3039509186
3039515412
3039523468
3039530426
3039537812
3039546112
3039553742
3039561615
3039568329
3039575348
3039583710
3039592743
3039598175
3039605805
3039614410
3039620758
3039627350
3039634369
3039642120
3039650299
3039658356
3039664520
3039672882
3039679535
3039686493
3039694671
3039701385
3039708587
3039714691
3039721222
3039728546
3039735748
3039745453
3039752472
3039759674
3039767608
3039775055
3039784576
3039791656
3039799652
3039807098
3039814422
3039822418
3039829010
3039836639
3039843597
3039852752
3039859100
3039865386
3039873016
3039879241
3039885833
3039895171
3039901824
3039910003
3039917144
3039924529
3039930267
3039936797
3039946075
3039953521
3039960784
3039968230
3039975494
3039981292
3039990081
3039996734
3040003142
3040010955
3040018645
3040026824
3040033660
3040041778
3040048919
3040058135
3040066008
3040071318
3040079680
3040087737
3040094085
3040100371
3040110686
3040117705
3040123748
3040131438
3040137969
3040146269
3040152922
3040163054
3040169219
3040177275
3040183684
3040191069
3040197234
3040205595
3040214079
3040222258
3040229460
3040236418
3040244170
3040250212
3040256621
3040266142
3040274016
3040280119
3040288359
3040297209
3040304655
3040311125
3040318205
3040327543
3040334440
3040341337
3040349516
3040357267
3040363676
3040374357
3040381681
3040389555
3040395658
3040403837
3040411039
3040419950
3040426969
3040434904
3040443327
3040448637
3040456205
3040463468
3040471037
3040477812
3040486112
3040492277
3040501371
3040508268
3040515409
3040524259
3040533353
3040541349
3040546598
3040555509
3040561002
3040569364
3040576810
3040584928
3040590909
3040598173
3040604825
3040612943
3040620267
3040630521
3040636991
3040645047
3040652250
3040658353
3040667936
3040674344
3040683072
3040690335
3040697904
3040703275
3040710721
3040715665
3040723600
3040732511
3040740140
3040747586
3040756497
3040763761
3040772977
3040781827
3040788480
3040795865
3040803555
3040811551
3040816251
3040824002
3040833157
3040842129
3040847928
3040855313
3040861661
3040868252
3040875882
3040884793
3040892666
3040899441
3040906766
3040913662
3040921719
3040928677
3040937527
3040944363
3040952481
3040957730
3040967556
3040975308
3040981839
3040989773
3040997586
3041004849
3041012722
3041019558
3041026394
3041032925
3041042568
3041050137
3041056668
3041064175
3041072537
3041079861
3041086880
3041096401
3041102261
3041110867
3041116909
3041123623
3041131618
3041138332
3041145840
3041153530
3041160488
3041168728
3041174404
3041181911
3041188381
3041198269
3041206569
3041214504
3041220730
3041227810
3041234096
3041241543
3041248317
3041254665
3041263576
3041270290
3041276821
3041283107
3041289516
3041298122
3041306911
3041314968
3041321804
3041328639
3041336940
3041343471
3041351833
3041358058
3041367458
3041374416
3041382106
3041388210
3041395900
3041402858
3041410304
3041418056
3041424586
3041431667
3041439906
3041446437
3041455897
3041463283
3041468959
3041476832
3041484218
3041490626
3041497767
3041504542
3041514186
3041520778
3041527430
3041535243
3041541224
3041549952
3041556239
3041565028
3041572840
3041578639
3041586512
3041595546
3041602504
3041609339
3041617884
3041625331
3041634120
3041640833
3041647181
3041654566
3041661280
3041670680
3041677882
3041683619
3041691004
3041696681
3041704310
3041710780
3041719324
3041726038
3041735316
3041741907
3041751673
3041758082
3041767359
3041773157
3041780787
3041789515
3041795984
3041804102
3041810694
3041817530
3041826258
3041832789
3041839197
3041846582
3041852503
3041861597
3041868128
3041876368
3041883020
3041890345
3041896082
3041901941
3041909082
3041915979
3041924524
3041931299
3041938440
3041944727
3041951563
3041959741
3041966394
3041974329
3041983057
3041990015
3041997400
3042003809
3042012292
3042019006
3042027429
3042035364
3042042078
3042048181
3042057764
3042065332
3042071680
3042079675
3042088220
3042096216
3042104028
3042110620
3042117883
3042124414
3042134424
3042140710
3042147058
3042155420
3042161523
3042168115
3042176782
3042184716
3042190942
3042198754
3042205957
3042214929
3042222863
3042230187
3042237023
3042245141
3042252648
3042260644
3042267358
3042275536
3042282433
3042290673
3042297509
3042306603
3042311669
3042320824
3042327721
3042334557
3042343774
3042350243
3042356530
3042364159
3042371972
3042377709
3042386681
3042394494
3042402550
3042409569
3042415612
3042425560
3042432824
3042439415
3042449242
3042455712
3042463829
3042469628
3042478234
3042486779
3042493431
3042501000
3042507958
3042513878
3042521691
3042528465
3042534386
3042541405
3042549706
3042555687
3042563744
3042571800
3042577416
3042585411
3042592430
3042601585
3042609642
3042615501
3042622398
3042630821
3042637596
3042644737
3042653160
3042661461
3042667015
3042674766
3042681114
3042688133
3042696678
3042703636
3042712364
3042718528
3042726585
3042735191
3042741905
3042750145
3042756309
3042765098
3042771812
3042779502
3042785057
3042790672
3042799522
3042806297
3042814842
3042822776
3042829734
3042836387
3042843467
3042849998
3042858909
3042867088
3042873313
3042883323
3042890159
3042898704
3042905112
3042911826
3042920249
3042926292
3042933372
3042940086
3042947593
3042956077
3042963279
3042971335
3042977256
3042985068
3042991233
3042999106
3043005271
3043013511
3043021811
3043027488
3043035727
3043042685
3043051352
3043056357
3043066123
3043074668
3043080710
3043088584
3043095786
3043102439
3043109763
3043116660
3043125754
3043134177
3043141074
3043146506
3043154807
3043159934
3043168417
3043174948
3043182761
3043189414
3043197592
3043205344
3043212729
3043220236
3043229452
3043236533
3043242636
3043249472
3043257590
3043267233
3043273092
3043281698
3043287924
3043296774
3043303854
3043311728
3043319418
3043327841
3043335226
3043341513
3043348959
3043355795
3043362997
3043370077
3043378988
3043386496
3043394369
3043402120
3043407064
3043414755
3043422201
3043428121
3043438131
3043444601
3043453329
3043460897
3043467245
3043475424
3043480856
3043489401
3043495382
3043503622
3043510824
3043519125
3043525838
3043534017
3043542623
3043549276
3043557332
3043565877
3043573568
3043580404
3043588521
3043594442
3043603048
3043608358
3043617330
3043623494
3043629903
3043639791
3043645955
3043653280
3043660848
3043666951
3043673360
3043682576
3043690389
3043698690
3043704915
3043712300
3043718465
3043725972
3043732503
3043741536
3043748006
3043754476
3043762105
3043770223
3043777425
3043784505
3043792439
3043800618
3043807881
3043815816
3043822591
3043830281
3043836385
3043844868
3043852620
3043858784
3043866414
3043874592
3043880940
3043888875
3043895649
3043903340
3043911519
3043918904
3043925190
3043932820
3043939534
3043948689
3043955891
3043964314
3043971455
3043977497
3043984944
3043992573
3044000691
3044007954
3044014851
3044022724
3044030354
3044036396
3044045551
3044052448
3044059712
3044068440
3044073933
3044082233
3044089069
3044097370
3044105976
3044112202
3044120319
3044125568
3044133137
3044139057
3044148640
3044156330
3044163044
3044171223
3044176410
3044184467
3044191791
3044198078
3044206012
3044214679
3044220112
3044227558
3044233905
3044241291
3044250080
3044258075
3044265033
3044273029
3044279377
3044288227
3044296405
3044302753
3044310687
3044319538
3044327716
3044333576
3044340351
3044349628
3044355731
3044365253
3044371661
3044379047
3044387531
3044394550
3044402545
3044409320
3044417255
3044425494
3044433612
3044440570
3044447406
3044455401
3044461627
3044470416
3044475299
3044484576
3044490985
3044499713
3044505389
3044514911
3044521502
3044529132
3044537310
3044543719
3044551898
3044558429
3044563983
3044573321
3044580889
3044588458
3044593280
3044600787
3044609027
3044616412
3044626605
3044634539
3044639788
3044649310
3044656939
3044665118
3044672747
3044679583
3044687884
3044694170
3044700579
3044708697
3044714983
3044722246
3044731036
3044737932
3044744952
3044752947
3044760576
3044769121
3044776201
3044782671
3044790789
3044798540
3044804766
3044813189
3044822649
3044829668
3044836565
3044845293
3044852007
3044859880
3044865618
3044873735
3044881670
3044889971
3044897173
3044904558
3044911333
3044919939
3044926409
3044935198
3044940813
3044947893
3044955339
3044961931
3044969438
3044976213
3044984758
3044992937
3044998125
3045005510
3045011003
3045019426
3045026140
3045033464
3045041521
3045047685
3045055559
3045064226
3045069963
3045078325
3045086076
3045093583
3045099870
3045107927
3045114641
3045122514
3045128923
3045137468
3045144487
3045151567
3045159562
3045165422
3045172746
3045179399
3045189897
3045196488
3045204423
3045209855
3045218217
3045224809
3045233109
3045241166
3045248124
3045254655
3045263261
3045269303
3045276933
3045283891
3045292252
3045300309
3045308427
3045316300
3045322343
3045330277
3045337723
3045343827
3045351395
3045359513
3045367264
3045375016
3045381669
3045389542
3045397538
3045405411
3045410416
3045417679
3045425065
3045431656
3045439835
3045448685
3045455521
3045461441
3045467362
3045475052
3045483475
3045488907
3045498612
3045506119
3045512589
3045521317
3045527176
3045535599
3045543228
3045551163
3045558487
3045566055
3045572342
3045579605
3045587479
3045594986
3045603287
3045610550
3045616653
3045625870
3045632217
3045640457
3045646622
3045655289
3045660843
3045668228
3045675064
3045683304
3045689895
3045695633
3045704971
3045712539
3045720352
3045727066
3045733169
3045740493
3045746719
3045757522
3045763626
3045769668
3045777114
3045782608
3045789260
3045797683
3045804641
3045812332
3045819717
3045827102
3045833083
3045840164
3045848098
3045855911
3045862808
3045870803
3045876907
3045884414
3045891006
3045896621
3045906325
3045912856
3045920974
3045927261
3045935073
3045941909
3045948134
3045958510
3045964919
3045971328
3045979384
3045985488
3045993361
3046000441
3046009902
3046018142
3046024733
3046032302
3046040480
3046046096
3046054702
3046060622
3046067092
3046075209
3046082045
3046089614
3046098464
3046106337
3046112990
3046121169
3046127028
3046133803
3046142165
3046150465
3046158522
3046167250
3046175307
3046181960
3046190932
3046199538
3046206496
3046215041
3046223585
3046231459
3046240004
3046246962
3046254408
3046262587
3046274183
3046282789
3046289808
3046297804
3046304274
3046315260
3046322950
3046329664
3046337904
3046345411
3046350904
3046358656
3046368544
3046377455
3046384657
3046391676
3046399488
3046406019
3046413282
3046419447
3046427686
3046433790
3046440687
3046446790
3046455335
3046462049
3046469679
3046478284
3046484998
3046493787
3046499097
3046508741
3046514783
3046523450
3046529188
3046539442
3046547559
3046553480
3046561780
3046568372
3046576795
3046583326
3046591016
3046598890
3046604017
3046612012
3046617322
3046625684
3046633619
3046641492
3046647840
3046656079
3046663709
3046668897
3046677625
3046686109
3046692700
3046699658
3046707471
3046715833
3046722974
3046731702
3046740796
3046748425
3046756604
3046762647
3046770764
3046779065
3046784558
3046792981
3046799878
3046808118
3046815503
3046821362
3046830395
3046836804
3046845349
3046851269
3046859387
3046866528
3046872876
3046881543
3046889843
3046896863
3046905957
3046914380
3046920849
3046926587
3046936901
3046945874
3046952343
3046960827
3046969128
3046975476
3046984143
3046990063
3046999706
3047008312
3047015087
3047022167
3047028759
3047036816
3047044872
3047052868
3047058117
3047066723
3047072460
3047081249
3047087597
3047095959
3047102428
3047110851
3047116955
3047123852
3047131847
3047139843
3047147106
3047155956
3047162121
3047170666
3047178722
3047184765
3047191356
3047197887
3047207897
3047215770
3047222057
3047229686
3047236095
3047243602
3047249950
3047259166
3047265270
3047273937
3047281444
3047287975
3047294506
3047300731
3047307750
3047315685
3047322643
3047330638
3047338329
3047346080
3047352611
3047360545
3047368175
3047373973
3047381236
3047388438
3047396678
3047403270
3047411693
3047418651
3047425426
3047432933
3047439036
3047446666
3047454844
3047461802
3047470103
3047475902
3047484080
3047491588
3047499583
3047507335
3047513133
3047522654
3047528819
3047537059
3047543345
3047551219
3047557994
3047567698
3047574534
3047583506
3047590647
3047598887
3047606883
3047613108
3047621836
3047629588
3047638011
3047643931
3047650828
3047660655
3047668040
3047677744
3047685801
3047692026
3047699961
3047708384
3047715891
3047722239
3047730845
3047738413
3047746165
3047752634
3047759653
3047765024
3047772593
3047781687
3047789377
3047795786
3047803660
3047810007
3047817514
3047824533
3047834665
3047840830
3047849009
3047856516
3047863779
3047872080
3047877512
3047886057
3047894663
3047900827
3047908396
3047926523
3047952280
3047976755
3047999338
3048023202
3048047433
3048072030
3048095102
3048118417
3048142709
3048166696
3048190927
3048213204
3048236703
3048252694
3048265572
3048274056
3048281319
3048289071
3048295663
3048304208
3048311593
3048319100
3048327889
3048336312
3048343880
3048351754
3048358712
3048366341
3048374642
3048382027
3048389290
3048397225
3048404000
3048411995
3048419503
3048427376
3048433724
3048442452
3048448983
3048456673
3048462471
3048470040
3048478340
3048485787
3048494271
3048501229
3048507515
3048516243
3048524056
3048535469
3048542610
3048549995
3048557930
3048565437
3048570808
3048579903
3048586006
3048593758
3048600105
3048608833
3048615608
3048622993
3048632027
3048640083
3048648201
3048654487
3048661934
3048669929
3048675606
3048684150
3048691963
3048700508
3048706978
3048713203
3048721687
3048728462
3048736824
3048746040
3048753669
3048760017
3048766975
3048774848
3048781562
3048787910
3048797309
3048805366
3048812507
3048820503
3048826362
3048833198
3048841132
3048847480
3048855354
3048861579
3048869086
3048877509
3048883552
3048891791
3048900397
3048905891
3048916694
3048924933
3048932746
3048939582
3048947455
3048956489
3048963874
3048971503
3048978888
3048987311
3048995002
3049001838
3049009345
3049018439
3049026496
3049033210
3049041449
3049049750
3049060858
3049069770
3049080756
3049090094
3049098883
3049107489
3049116339
3049123663
3049130560
3049138739
3049145819
3049153326
3049160284
3049168707
3049177191
3049185431
3049193060
3049200201
3049206854
3049214789
3049223639
3049230597
3049238287
3049245184
3049252447
3049259588
3049266668
3049274176
3049282110
3049289496
3049297003
3049303961
3049309820
3049317572
3049326056
3049333929
3049341009
3049348333
3049355719
3049362432
3049371649
3049379888
