3347039038
3347045996
3347051368
3347058509
3347065161
3347070716
3347077063
3347081885
3347090125
3347096961
3347102698
3347109107
3347116736
3347124304
3347131629
3347140112
3347147559
3347156104
3347161292
3347170203
3347176062
3347186743
3347192603
3347199499
3347206580
3347213782
3347220801
3347229224
3347237585
3347245886
3347255591
3347260840
3347269812
3347275732
3347284399
3347290991
3347299048
3347305945
3347315344
3347322180
3347331823
3347338964
3347346594
3347354956
3347360815
3347368383
3347377417
3347385290
3347392248
3347400488
3347405798
3347413976
3347422643
3347430578
3347439367
3347446874
3347454260
3347460607
3347468969
3347476171
3347483862
3347493078
3347498876
3347508031
3347513769
3347521520
3347528905
3347538122
3347543859
3347554052
3347560766
3347569311
3347575719
3347584691
3347588537
3347600316
3347606847
3347615270
3347622777
3347629369
3347636144
3347644262
3347653112
3347660436
3347668065
3347675939
3347685155
3347691075
3347701940
3347710362
3347716771
3347725255
3347732884
3347741368
3347748692
3347757604
3347763402
3347772923
3347778539
3347787511
3347793126
3347801305
3347806920
3347817052
3347823460
3347833104
3347847508
3347854832
3347867222
3347876195
3347884800
3347892308
3347901707
3347908726
3347916417
3347923680
3347931675
3347939915
3347946812
3347957127
3347965123
3347973057
3347979893
3347988743
3347996128
3348002781
3348012058
3348019993
3348027012
3348033909
3348041172
3348048313
3348053257
3348061070
3348069065
3348076450
3348083775
3348090733
3348098606
3348105442
3348111851
3348119053
3348127354
3348134556
3348142185
3348149814
3348155735
3348163120
3348170994
3348178562
3348186069
3348194126
3348201267
3348208469
3348215610
3348222934
3348230014
3348238803
3348246311
3348254123
3348260044
3348267307
3348275852
3348282138
3348288425
3348298740
3348306186
3348313571
3348322971
3348329318
3348340854
3348349033
3348357272
3348365756
3348371799
3348380710
3348387424
3348395602
3348401218
3348411349
3348419589
3348426913
3348433566
3348441257
3348450351
3348455966
3348465793
3348474032
3348481540
3348487277
3348495089
3348503024
3348510470
3348516635
3348525607
3348531771
3348540683
3348547030
3348556063
3348563205
3348572360
3348580905
3348589633
3348595980
3348604342
3348613009
3348620211
3348626376
3348633883
3348641818
3348649325
3348659213
3348665804
3348675204
3348682040
3348690340
3348698031
3348705477
3348709994
3348719088
3348726290
3348734713
3348740999
3348749300
3348757357
3348766695
3348773897
3348781283
3348788302
3348795443
3348800997
3348808260
3348816317
3348823641
3348830904
3348838839
3348846895
3348852632
3348861116
3348869417
3348878145
3348882723
3348891817
3348899385
3348907442
3348915132
3348922457
3348930574
3348937715
3348943636
3348950960
3348958772
3348966280
3348973909
3348981294
3348989473
3348997041
3349003877
3349011507
3349020296
3349025972
3349034028
3349042085
3349051362
3349057161
3349065278
3349071809
3349079500
3349087861
3349095491
3349103242
3349110627
3349119111
3349125642
3349134248
3349142305
3349150239
3349157319
3349166963
3349173432
3349181489
3349190644
3349198396
3349205903
3349213349
3349221528
3349229340
3349237580
3349243989
3349254914
3349259492
3349269440
3349281098
3349292084
3349299897
3349309418
3349318024
3349326203
3349335358
3349342499
3349350312
3349358552
3349366120
3349374604
3349380341
3349391694
3349400422
3349408722
3349415375
3349424530
3349433686
3349439728
3349449677
3349456330
3349465119
3349469513
3349480133
3349485993
3349496247
3349502838
3349508637
3349515289
3349522553
3349528412
3349535065
3349541840
3349548981
3349555328
3349561066
3349566193
3349574738
3349580170
3349586639
3349593109
3349599396
3349607086
3349612335
3349618622
3349625641
3349631073
3349637909
3349645111
3349650482
3349657440
3349661163
3349669647
3349675628
3349681793
3349687896
3349694854
3349700287
3349706329
3349711395
3349715667
3349722686
3349728119
3349735870
3349741851
3349747222
3349752838
3349758209
3349764190
3349770172
3349778289
3349783538
3349791412
3349798370
3349802520
3349809295
3349816253
3349821868
3349826751
3349833892
3349838348
3349843597
3349849883
3349855499
3349862151
3349866729
3349874297
3349880157
3349886871
3349895049
3349900359
3349908721
3349914703
3349920318
3349927703
3349932097
3349938628
3349944915
3349951568
3349957488
3349963836
3349970611
3349976714
3349981292
3349988799
3349994902
3349999053
3350006133
3350010527
3350016753
3350022979
3350028899
3350033110
3350040740
3350045562
3350052764
3350058501
3350064788
3350068083
3350075896
3350081450
3350088408
3350093169
3350098967
3350105559
3350111174
3350117034
3350123259
3350128691
3350136809
3350142363
3350148467
3350154265
3350158354
3350166106
3350171660
3350177336
3350182829
3350188506
3350194365
3350200529
3350206328
3350210722
3350218718
3350224028
3350228972
3350233916
3350240813
3350246428
3350252897
3350259794
3350265776
3350271940
3350277556
3350282194
3350287932
3350294767
3350299650
3350307280
3350311430
3350318754
3350325102
3350332060
3350337919
3350343718
3350350004
3350356230
3350362455
3350368681
3350374845
3350379301
3350386503
3350391386
3350398283
3350402921
3350409513
3350414579
3350420927
3350426359
3350432951
3350441862
3350451933
3350458097
3350463712
3350469755
3350476896
3350481168
3350488493
3350493009
3350499967
3350503080
3350509733
3350515836
3350522672
3350529203
3350535306
3350542631
3350546171
3350554838
3350560453
3350566312
3350573209
3350577787
3350584684
3350588895
3350596586
3350599332
3350607877
3350610685
3350619291
3350625272
3350631131
3350637052
3350642728
3350649564
3350655789
3350662259
3350666471
3350673856
3350677030
3350684537
3350689359
3350696866
3350701993
3350708402
3350714383
3350720059
3350726346
3350731961
3350737821
3350743558
3350748746
3350756436
3350761441
3350767545
3350773099
3350777371
3350784390
3350789212
3350797940
3350804654
3350810208
3350815762
3350819852
3350827481
3350832608
3350839688
3350846036
3350851590
3350857388
3350863431
3350868496
3350874844
3350882168
3350889370
3350894131
3350901761
3350907681
3350912991
3350919156
3350924893
3350931546
3350936245
3350943508
3350948635
3350954922
3350960903
3350966702
3350972317
3350978298
3350984829
3350989773
3350997769
3351003140
3351009792
3351014919
3351022732
3351026028
3351033657
3351039761
3351045376
3351051418
3351057034
3351063564
3351069180
3351075466
3351082302
3351088283
3351092922
3351099453
3351104092
3351111294
3351117153
3351123073
3351129543
3351135219
3351142055
3351149624
3351155544
3351160183
3351166836
3351171657
3351178005
3351182827
3351189907
3351195034
3351201198
3351207729
3351213527
3351218044
3351224208
3351230434
3351236354
3351242885
3351247219
3351253932
3351258083
3351264430
3351269985
3351275905
3351282131
3351288112
3351292385
3351299953
3351304836
3351311550
3351318874
3351324794
3351329616
3351335292
3351341884
3351347682
3351352565
3351358363
3351365443
3351369411
3351376735
3351381557
3351388759
3351394313
3351402431
3351408717
3351413356
3351420680
3351426234
3351432216
3351437892
3351443324
3351449367
3351455348
3351461757
3351465968
3351473781
3351479396
3351485682
3351489039
3351497401
3351502528
3351508876
3351515345
3351521083
3351526393
3351532313
3351539271
3351544154
3351554957
3351561366
3351568202
3351574305
3351579249
3351585353
3351589808
3351597926
3351604334
3351609950
3351616297
3351621974
3351627711
3351634119
3351642237
3351645045
3351653040
3351655909
3351664515
3351668055
3351677882
3351682398
3351689478
3351695032
3351700648
3351706690
3351710902
3351717921
3351722193
3351728419
3351734156
3351741053
3351745447
3351752649
3351757410
3351763697
3351768519
3351775599
3351780909
3351787195
3351790613
3351797815
3351803675
3351809839
3351816004
3351821680
3351827906
3351833582
3351839685
3351845667
3351851770
3351859033
3351864893
3351868860
3351876367
3351880823
3351887537
3351892725
3351898950
3351904321
3351910425
3351916467
3351921289
3351928003
3351933740
3351940149
3351946252
3351951685
3351956506
3351961877
3351968591
3351972681
3351983240
3351990747
3351996484
3352002954
3352007898
3352014795
3352021387
3352028161
3352033288
3352038232
3352045434
3352051172
3352057519
3352061242
3352069055
3352074548
3352079980
3352085656
3352090478
3352098779
3352103723
3352112817
3352118982
3352125207
3352131250
3352137109
3352143212
3352148889
3352155297
3352160791
3352166223
3352172265
3352179406
3352184411
3352191796
3352196923
3352203271
3352208581
3352214990
3352220727
3352226403
3352232446
3352238122
3352244164
3352249780
3352255456
3352261193
3352268456
3352273400
3352279504
3352283776
3352291772
3352297082
3352303307
3352308800
3352314599
3352317956
3352325524
3352332665
3352339074
3352347130
3352352074
3352357323
3352361535
3352369164
3352373986
3352381554
3352387108
3352393090
3352399010
3352404747
3352411583
3352415734
3352422875
3352429100
3352435387
3352440880
3352446923
3352452843
3352458397
3352464195
3352470421
3352475304
3352481407
3352487084
3352493370
3352499779
3352505638
3352512047
3352516502
3352522423
3352528465
3352535179
3352541100
3352545677
3352555321
3352561241
3352566612
3352572533
3352576927
3352584373
3352589134
3352595055
3352599632
3352607139
3352613121
3352618675
3352625023
3352630760
3352637413
3352644066
3352653831
3352659874
3352666160
3352673179
3352677635
3352684105
3352690513
3352695396
3352699852
3352707725
3352712730
3352719688
3352725364
3352732811
3352739463
3352745140
3352751548
3352757347
3352763389
3352767662
3352774009
3352779624
3352786399
3352790794
3352798545
3352803123
3352810081
3352816306
3352822654
3352827110
3352833518
3352838218
3352844505
3352850120
3352858054
3352864341
3352870567
3352875816
3352882041
3352888145
3352892844
3352898765
3352903281
3352911887
3352917686
3352924094
3352927451
3352934592
3352941123
3352946921
3352954001
3352959556
3352964560
3352970420
3352976889
3352983054
3352988486
3352992881
3353000632
3353005515
3353012290
3353018027
3353024314
3353030234
3353035910
3353040244
3353048484
3353054282
3353059653
3353064780
3353071005
3353077048
3353079856
3353087790
3353094565
3353100974
3353107138
3353112875
3353119040
3353123251
3353130454
3353136923
3353142783
3353147421
3353153830
3353158530
3353166769
3353170187
3353178000
3353181235
3353189169
3353195822
3353201681
3353208212
3353214682
3353219809
3353226095
3353232992
3353241476
3353248068
3353250937
3353260519
3353266501
3353272116
3353279257
3353285482
3353290792
3353295858
3353303915
3353309713
3353316183
3353319479
3353327597
3353333944
3353339559
3353345236
3353350912
3353356588
3353362692
3353368429
3353374410
3353381124
3353385397
3353395895
3353400961
3353407552
3353413046
3353419515
3353425802
3353431539
3353436056
3353442464
3353448751
3353454671
3353464498
3353469076
3353475057
3353481222
3353487752
3353492635
3353499349
3353505453
3353510335
3353516866
3353521871
3353527181
3353533529
3353541707
3353547628
3353553487
3353557760
3353564657
3353571248
3353576925
3353581136
3353588582
3353592794
3353600118
3353605123
3353611715
3353614705
3353623372
3353629354
3353636129
3353642232
3353647969
3353654622
3353658895
3353665975
3353671590
3353678182
3353684041
3353690938
3353697102
3353702229
3353708577
3353714986
3353719258
3353727132
3353732137
3353737752
3353743245
3353748982
3353755452
3353761128
3353768330
3353773030
3353784993
3353789998
3353796895
3353803670
3353808858
3353815571
3353820820
3353826985
3353832966
3353838704
3353844868
3353851033
3353857380
3353863789
3353871663
3353874958
3353882893
3353888447
3353895466
3353901448
3353907551
3353912861
3353917134
3353924641
3353929524
3353935810
3353940693
3353948567
3353951802
3353959736
3353965229
3353971516
3353974751
3353982807
3353987629
3353995320
3354001728
3354006550
3354013630
3354017841
3354025349
3354029804
3354037495
3354042866
3354049274
3354054096
3354060566
3354066059
3354071674
3354074909
3354084247
3354090107
3354095844
3354101154
3354106891
3354111957
3354118183
3354124286
3354130146
3354136616
3354140766
3354147053
3354153156
3354159504
3354164203
3354170978
3354176227
3354182514
3354187580
3354193988
3354197467
3354204670
3354212604
3354218158
3354227191
3354232868
3354238178
3354243061
3354249652
3354254718
3354261554
3354269611
3354275348
3354280475
3354285358
3354292072
3354298541
3354304523
3354310748
3354316791
3354322101
3354329242
3354334613
3354339984
3354347797
3354354449
3354360980
3354367267
3354372882
3354378741
3354384723
3354390521
3354396136
3354403949
3354409686
3354416217
3354422076
3354428912
3354435077
3354440631
3354447833
3354452899
3354460650
3354466754
3354472552
3354477313
3354484759
3354490008
3354495745
3354501483
3354507037
3354512774
3354518817
3354525286
3354530047
3354536883
3354540118
3354547869
3354552325
3354558245
3354563189
3354569659
3354576190
3354582537
3354589434
3354594866
3354600543
3354606646
3354612261
3354617510
3354623187
3354630450
3354637164
3354642779
3354649371
3354655962
3354660113
3354667742
3354673418
3354679095
3354684466
3354690081
3354697039
3354701433
3354711199
3354716326
3354724261
3354728533
3354735064
3354741961
3354747454
3354753740
3354759661
3354765276
3354770952
3354779558
3354783892
3354792315
3354799089
3354803423
3354810442
3354814775
3354821672
3354829668
3354833635
3354840044
3354843950
3354851763
3354854265
3354862261
3354867510
3354874895
3354881670
3354888506
3354897478
3354904375
3354909074
3354915239
3354921098
3354927568
3354932878
3354938554
3354944780
3354950090
3354961381
3354966753
3354973222
3354979021
3354984575
3354990434
3354994401
3355001726
3355007524
3355012956
3355018510
3355024125
3355029680
3355033769
3355041581
3355047319
3355052873
3355058732
3355064714
3355071000
3355076616
3355082719
3355088823
3355094316
3355100724
3355107072
3355112992
3355117936
3355124101
3355130754
3355134049
3355141557
3355148576
3355154374
3355160050
3355165727
3355171037
3355176835
3355183183
3355187455
3355194840
3355200578
3355206925
3355211564
3355218034
3355225480
3355229874
3355235917
3355240434
3355248368
3355252641
3355260880
3355266373
3355270646
3355277787
3355282365
3355288041
3355292802
3355300675
3355305436
3355312455
3355318314
3355323807
3355330582
3355334733
3355342789
3355349381
3355354874
3355361710
3355365799
3355373063
3355378189
3355386063
3355390946
3355396439
3355402481
3355406937
3355414810
3355420426
3355429886
3355433548
3355440750
3355446182
3355452286
3355458328
3355463516
3355469986
3355475907
3355481339
3355488175
3355493179
3355498734
3355507401
3355512955
3355517838
3355524002
3355529984
3355535965
3355538834
3355546951
3355553665
3355560440
3355566971
3355571365
3355578140
3355584427
3355589432
3355593887
3355601639
3355606277
3355613663
3355616958
3355625747
3355630630
3355636368
3355643448
3355649612
3355655899
3355661697
3355667617
3355673782
3355679153
3355683548
3355691116
3355695999
3355703811
3355707962
3355716568
3355721939
3355727554
3355733413
3355740615
3355745376
3355751174
3355757400
3355763137
3355770278
3355774917
3355782302
3355785659
3355793472
3355799148
3355804824
3355808120
3355817092
3355822707
3355828689
3355834243
3355839980
3355845901
3355851821
3355857741
3355864638
3355872024
3355877395
3355883620
3355890517
3355896499
3355901809
3355907851
3355914565
3355920363
3355925918
3355932082
3355937331
3355943435
3355949355
3355954055
3355961989
3355964980
3355974318
3355981215
3355987441
3355992629
3355999343
3356005263
3356011122
3356016860
3356022475
3356028212
3356033889
3356039809
3356046157
3356052382
3356059462
3356067153
3356073195
3356078749
3356084548
3356090224
3356095290
3356101027
3356107008
3356112746
3356117384
3356121291
3356128615
3356132948
3356140150
3356145766
3356153151
3356158339
3356163893
3356171034
3356175246
3356183851
3356189101
3356197035
3356200392
3356207777
3356214796
3356220350
3356226759
3356232557
3356237745
3356243483
3356249281
3356255140
3356262220
3356266493
3356273695
3356278761
3356285658
3356290968
3356297316
3356302992
3356308668
3356314894
3356320631
3356326185
3356331800
3356337293
3356343092
3356349073
3356354627
3356360914
3356366651
3356372816
3356379163
3356385328
3356390089
3356396253
3356400465
3356409742
3356415662
3356421888
3356427625
3356433424
3356439344
3356445325
3356450513
3356459425
3356465589
3356472303
3356478101
3356484083
3356488477
3356495496
3356501661
3356508375
3356513990
3356520948
3356524366
3356531995
3356538404
3356544874
3356552442
3356558667
3356564405
3356570142
3356577161
3356581372
3356588330
3356592969
3356600598
3356607434
3356613172
3356619153
3356625257
3356631238
3356636914
3356642346
3356648450
3356653638
3356660047
3356666150
3356670361
3356680432
3356685193
3356691296
3356698438
3356704480
3356709668
3356715894
3356721204
3356728162
3356733105
3356737805
3356745251
3356751172
3356756177
3356761853
3356768079
3356773877
3356780835
3356785779
3356789868
3356796887
3356801282
3356808423
3356813855
3356820691
3356826672
3356832348
3356838635
3356845410
3356852551
3356863598
3356869336
3356876294
3356881237
3356886608
3356894238
3356900158
3356905041
3356910717
3356916210
3356921398
3356925915
3356933361
3356937634
3356944653
3356949047
3356955334
3356963879
3356970410
3356976147
3356981213
3356987621
3356993298
3356997265
3357004589
3357009167
3357016003
3357020580
3357027599
3357032116
3357037426
3357045788
3357052074
3357058300
3357064281
3357070324
3357076488
3357082348
3357088451
3357093639
3357099682
3357105358
3357110668
3357115978
3357121288
3357127269
3357134594
3357140453
3357145458
3357151928
3357158214
3357163524
3357169628
3357174633
3357181347
3357185802
3357192455
3357198253
3357203502
3357209545
3357214916
3357220958
3357227367
3357232006
3357236339
3357243053
3357249523
3357254955
3357261058
3357266185
3357271556
3357276073
3357282726
3357289073
3357295909
3357300731
3357306834
3357311778
3357318980
3357324413
3357329356
3357335277
3357342296
3357348521
3357354137
3357360667
3357366405
3357372264
3357378001
3357383006
3357388743
3357395335
3357401561
3357406810
3357411021
3357418162
3357422984
3357430980
3357436107
3357441417
3357448192
3357452342
3357458995
3357465159
3357471263
3357478160
3357485484
3357493846
3357499827
3357505625
3357512706
3357517161
3357525279
3357531199
3357538645
3357543467
3357550181
3357555796
3357562754
3357569041
3357575022
3357579844
3357587290
3357593211
3357600169
3357609934
3357615672
3357621043
3357626963
3357632334
3357639658
3357645335
3357649973
3357656565
3357662485
3357669382
3357675486
3357680918
3357686655
3357692270
3357696665
3357703928
3357709299
3357717173
3357720774
3357729380
3357735117
3357740854
3357746347
3357751963
3357757273
3357762888
3357769846
3357774302
3357781076
3357787180
3357792856
3357797068
3357804697
3357809763
3357816782
3357821604
3357828806
3357835214
3357841074
3357846994
3357852732
3357858652
3357864450
3357871713
3357876108
3357882944
3357887216
3357895212
3357900217
3357906747
3357912363
3357918771
3357924814
3357930429
3357936288
3357941965
3357947946
3357953561
3357959177
3357964792
3357970407
3357976205
3357982797
3357987131
3357996042
3358001840
3358010141
3358013681
3358021493
3358024789
3358032541
3358036386
3358046273
3358051828
3358057870
3358063668
3358069345
3358075326
3358082040
3358088082
3358094247
3358099252
3358103524
3358112069
3358117562
3358123239
3358126535
3358134591
3358139535
3358146920
3358154122
3358160470
3358167428
3358172311
3358180612
3358185311
3358191598
3358195260
3358202645
3358208321
3358214608
3358221017
3358227242
3358233834
3358240182
3358246651
3358252389
3358257577
3358263192
3358270028
3358274422
3358280831
3358286934
3358291817
3358298714
3358303780
3358308663
3358317269
3358321785
3358328133
3358334725
3358340523
3358345650
3358351326
3358358345
3358364327
3358370308
3358374703
3358381478
3358385689
3358393318
3358398384
3358404854
3358410042
3358416451
3358419930
3358427803
3358434273
3358439888
3358446114
3358451912
3358456734
3358462349
3358468941
3358475044
3358480538
3358486824
3358492012
3358499153
3358504768
3358510689
3358516060
3358521431
3358526924
3358533821
3358540413
3358545235
3358549507
3358556648
3358563545
3358568367
3358573067
3358581856
3358586433
3358593086
3358598335
3358604561
3358610298
3358616707
3358623298
3358629280
3358635444
3358638862
3358647529
3358650398
3358658699
3358664192
3358670601
3358676643
3358682197
3358686225
3358692451
3358698860
3358704963
3358712898
3358723152
3358728950
3358734443
3358740119
3358746955
3358751167
3358758308
3358763069
3358769416
3358774116
3358781928
3358785224
3358793220
3358799262
3358805732
3358812385
3358818061
3358822456
3358829658
3358835395
3358841071
3358846137
3358851691
3358858161
3358862800
3358869880
3358874274
3358880866
3358887092
3358893561
3358898322
3358905646
3358910041
3358916511
3358922858
3358928534
3358934272
3358940070
3358945441
3358951117
3358957099
3358963385
3358969489
3358973883
3358982428
3358989386
3358995551
3359003546
3359010626
3359018256
3359026129
3359033209
3359039374
3359047492
3359055365
3359061286
3359066535
3359072150
3359078375
3359084479
3359090460
3359095404
3359101447
3359107245
3359112860
3359119452
3359125311
3359131110
3359136175
3359142096
3359147406
3359151556
3359158087
3359164862
3359170172
3359175665
3359180975
3359186590
3359191900
3359198370
3359204352
3359210516
3359214483
3359222174
3359226996
3359232977
3359238531
3359245550
3359251959
3359256659
3359264837
3359269415
3359275946
3359283270
3359290472
3359296881
3359302313
3359308172
3359313360
3359318670
3359324407
3359330145
3359336309
3359343084
3359348638
3359355718
3359360784
3359366644
3359369695
3359378484
3359383062
3359388311
3359394109
3359399664
3359405828
3359412054
3359418706
3359423833
3359430303
3359435369
3359441900
3359444707
3359452947
3359459051
3359465398
3359471197
3359476873
3359482793
3359488531
3359494329
3359500005
3359506109
3359512517
3359517888
3359523992
3359529973
3359534795
3359541814
3359546514
3359553167
3359559636
3359565068
3359571721
3359577581
3359583684
3359589727
3359595037
3359599309
3359606633
3359611455
3359618840
3359623784
3359630071
3359635503
3359644231
3359650029
3359655583
3359660466
3359665532
3359673161
3359679021
3359685429
3359690923
3359696538
3359703923
3359708379
3359716130
3359721379
3359729985
3359732060
3359740666
3359747746
3359751958
3359758855
3359764958
3359771062
3359775212
3359782719
3359789067
3359795415
3359800358
3359807316
3359814091
3359821965
3359829289
3359832951
3359841862
3359847416
3359853093
3359858708
3359864567
3359870854
3359876591
3359881718
3359887516
3359894352
3359899052
3359906559
3359910954
3359918522
3359924381
3359930973
3359935429
3359942387
3359949345
3359955143
3359960819
3359966984
3359973148
3359978092
3359984623
3359989384
3359997685
3360001286
3360008732
3360014164
3360019779
3360025578
3360031315
3360039005
3360043827
3360050358
3360055546
3360062076
3360068485
3360073551
3360079716
3360085880
3360092106
3360097782
3360104069
3360108341
3360114444
3360120060
3360125980
3360132206
3360138981
3360144169
3360150516
3360156131
3360161075
3360165775
3360173099
3360179447
3360185245
3360190921
3360196476
3360203189
3360207523
3360215579
3360219791
3360228275
3360231754
3360239566
3360245792
3360252078
3360256290
3360264896
3360270877
3360277164
3360283511
3360289127
3360295352
3360302066
3360307864
3360312503
3360318912
3360324527
3360331729
3360336795
3360342410
3360348636
3360354861
3360360721
3360365298
3360372256
3360377017
3360387759
3360393924
3360400210
3360406436
3360411563
3360416263
3360420718
3360428103
3360433841
3360440188
3360447940
3360452945
3360459719
3360466494
3360472171
3360478823
3360484927
3360491214
3360495974
3360503176
3360508242
3360514468
3360522036
3360527896
3360534060
3360538516
3360544924
3360551028
3360556704
3360561038
3360568606
3360573245
3360580813
3360584414
3360592104
3360597598
3360603335
3360610903
3360617617
3360623965
3360628298
3360635500
3360640017
3360646853
3360652163
3360658388
3360662905
3360670656
3360676211
3360682009
3360687563
3360693239
3360698610
3360704287
3360710390
3360716677
3360722475
3360726870
3360733645
3360737917
3360745668
3360751650
3360758181
3360764467
3360769960
3360776186
3360780275
3360788149
3360791201
3360799929
3360805666
3360812563
3360818422
3360824220
3360830629
3360834963
3360842043
3360846864
3360854433
3360857729
3360865053
3360871584
3360877382
3360883363
3360888979
3360895204
3360901430
3360906496
3360910951
3360919923
3360925661
3360933107
3360939149
3360945497
3360948854
3360956239
3360962099
3360967958
3360974550
3360980348
3360986696
3360991456
3360998659
3361003358
3361011720
3361015931
3361022767
3361027528
3361033876
3361038942
3361045411
3361050355
3361057557
3361063905
3361070314
3361074159
3361080567
3361087525
3361093385
3361099000
3361104737
3361110841
3361116883
3361122499
3361126832
3361133729
3361138062
3361145631
3361152039
3361156922
3361161744
3361168824
3361175294
3361180360
3361187074
3361192200
3361198731
3361204530
3361210328
3361216004
3361221314
3361227235
3361233216
3361238892
3361245179
3361249512
3361257142
3361261475
3361268677
3361273682
3361280640
3361285767
3361292054
3361297425
3361303834
3361310608
3361316346
3361321351
3361327576
3361333924
3361339478
3361345581
3361351441
3361358521
3361363221
3361371826
3361378907
3361384033
3361389649
3361395996
3361399292
3361407044
3361414856
3361421021
3361427612
3361433228
3361437927
3361443604
3361449646
3361456665
3361462830
3361469360
3361474243
3361481812
3361487488
3361494324
3361500061
3361506592
3361512634
3361518310
3361524475
3361530273
3361535950
3361541565
3361547546
3361553955
3361559326
3361567688
3361573547
3361576843
3361584411
3361590942
3361596618
3361602783
3361608520
3361614807
3361619201
3361625671
3361631286
3361638122
3361642517
3361650268
3361655151
3361661560
3361666320
3361673217
3361679199
3361686035
3361692687
3361698303
3361704284
3361709899
3361715270
3361720947
3361728210
3361733032
3361739929
3361744811
3361752258
3361755309
3361763549
3361769470
3361775939
3361782043
3361787902
3361793334
3361798888
3361804626
3361810058
3361816161
3361822448
3361829223
3361834472
3361840636
3361845641
3361851928
3361857421
3361863585
3361870177
3361875976
3361880919
3361884765
3361891662
3361895507
3361903319
3361909789
3361915892
3361921569
3361929503
3361935485
3361939452
3361947203
3361953063
3361958617
3361964659
3361970397
3361976744
3361983458
3361989012
3361995543
3361999388
3362008299
3362013243
3362019469
3362026793
3362034789
3362040770
3362049742
3362055663
3362061217
3362067809
3362071898
3362078612
3362083189
3362092650
3362097227
3362103636
3362113036
3362118895
3362124144
3362131224
3362135985
3362141844
3362148619
3362154600
3362161741
3362168211
3362173216
3362179136
3362184202
3362191954
3362198179
3362203550
3362208738
3362216734
3362222960
3362231077
3362237791
3362242430
3362248838
3362255552
3362260862
3362266905
3362273252
3362278990
3362284422
3362291258
3362296934
3362302976
3362310606
3362317381
3362322935
3362328916
3362332517
3362339597
3362343748
3362350218
3362356626
3362360532
3362367002
3362372556
3362377805
3362382261
3362390440
3362395994
3362401548
3362407407
3362412717
3362417783
3362422971
3362429136
3362433530
3362441282
3362446287
3362452451
3362458188
3362463560
3362470456
3362477537
3362482480
3362488218
3362494260
3362500669
3362505796
3362511045
3362516782
3362523435
3362529416
3362536252
3362542356
3362548459
3362556821
3362562558
3362569821
3362574216
3362581540
3362587400
3362593076
3362600400
3362604978
3362612668
3362616025
3362624936
3362630551
3362636289
3362642636
3362648679
3362654050
3362660947
3362666928
3362671567
3362678586
3362684445
3362692624
3362698483
3362702817
3362710263
3362716183
3362722775
3362728818
3362734372
3362741147
3362746823
3362752682
3362758298
3362764950
3362770444
3362776852
3362782712
3362788632
3362795102
3362800290
3362807736
3362814694
3362820614
3362826657
3362831479
3362838437
3362842770
3362850094
3362856747
3362861508
3362868405
3362874996
3362880856
3362889340
3362895260
3362901547
3362908810
3362913204
3362920223
3362927548
3362932308
3362938534
3362944515
3362950131
3362957455
3362962704
3362971676
3362977352
3362982601
3362988827
3362994625
3363000179
3363006954
3363012447
3363019222
3363025143
3363031612
3363036068
3363041866
3363049129
3363056515
3363063717
3363068844
3363075191
3363080806
3363086666
3363092037
3363098507
3363102840
3363111141
3363116512
3363122554
3363130916
3363136348
3363142208
3363146663
3363153743
3363159542
3363164974
3363171199
3363177059
3363180843
3363187740
3363192867
3363199459
3363206905
3363213680
3363218257
3363224788
3363230220
3363236690
3363242915
3363247005
3363253902
3363258785
3363265437
3363271053
3363275996
3363283138
3363289424
3363294185
3363301021
3363305415
3363312495
3363318111
3363324519
3363330134
3363335689
3363341670
3363347835
3363352901
3363358882
3363364558
3363370967
3363376399
3363382991
3363389216
3363395747
3363401057
3363406550
3363412654
3363417476
3363425288
3363431880
3363437495
3363445063
3363450801
3363456782
3363462764
3363469599
3363474665
3363481379
3363489436
3363495844
3363501521
3363506770
3363512812
3363519343
3363526301
3363534174
3363539240
3363547785
3363552851
3363558711
3363563899
3363568293
3363574519
3363579829
3363587153
3363593012
3363600764
3363606074
3363612482
3363617304
3363623530
3363630244
3363634638
3363642451
3363646296
3363652216
3363659174
3363665156
3363670283
3363676996
3363682612
3363689325
3363695429
3363701166
3363709040
3363714594
3363721125
3363726252
3363731195
3363737787
3363744501
3363749994
3363755854
3363762140
3363767694
3363773859
3363779779
3363785089
3363790949
3363797479
3363803278
3363808161
3363814447
3363820490
3363826105
3363833246
3363839533
3363845270
3363852228
3363858392
3363863397
3363870355
3363875604
3363880670
3363887445
3363895013
3363900995
3363905389
3363913629
3363919244
3363926996
3363933404
3363939508
3363945062
3363952203
3363956415
3363963983
3363970453
3363976617
3363982843
3363989801
3363994928
3364001581
3364006280
3364014154
3364020929
3364025628
3364032891
3364037591
3364044244
3364049493
3364056695
3364061456
3364067620
3364072198
3364079278
3364084649
3364090936
3364096490
3364102471
3364108758
3364114617
3364120477
3364125848
3364131646
3364137689
3364144158
3364149712
3364154900
3364159783
3364166985
3364172845
3364178277
3364183709
3364189935
3364195855
3364201470
3364207696
3364213433
3364219964
3364225701
3364231866
3364236443
3364242974
3364249383
3364255303
3364261712
3364266900
3364273308
3364279473
3364284234
3364291008
3364296685
3364302422
3364308709
3364314690
3364321770
3364326104
3364331597
3364337273
3364343438
3364349297
3364355645
3364360466
3364367791
3364373467
3364378777
3364383232
3364390312
3364395378
3364402031
3364408623
3364415093
3364420342
3364424797
3364431572
3364437187
3364441399
3364450310
3364457329
3364463432
3364469658
3364473808
3364482292
3364487968
3364494255
3364500053
3364505363
3364511223
3364517265
3364522819
3364528129
3364534599
3364540581
3364546989
3364553825
3364560173
3364567680
3364574028
3364580009
3364584770
3364592094
3364595512
3364603264
3364608879
3364615715
3364621818
3364627555
3364633415
3364639885
3364645927
3364651969
3364657768
3364662223
3364670036
3364675651
3364681938
3364685234
3364692863
3364698173
3364706108
3364711845
3364717704
3364722648
3364728263
3364734245
3364740043
3364746879
3364751090
3364758048
3364762870
3364770683
3364775565
3364782340
3364787162
3364793510
3364801261
3364806998
3364812064
3364817741
3364822623
3364829032
3364835929
3364842155
3364847892
3364852164
3364859488
3364864249
3364871085
3364876029
3364883048
3364887931
3364894217
3364899833
3364906302
3364912406
3364918021
3364922660
3364928946
3364935538
3364941275
3364947501
3364951956
3364959098
3364963248
3364970816
3364975211
3364982474
3364987418
3364993827
3364998526
3365005667
3365012259
3365017874
3365025198
3365030875
3365037100
3365042655
3365049124
3365053397
3365061270
3365066092
3365072501
3365077505
3365083365
3365086539
3365093375
3365100394
3365106985
3365117239
3365123099
3365129874
3365136832
3365142142
3365148794
3365151541
3365160940
3365166983
3365172537
3365178702
3365183096
3365192068
3365196646
3365205252
3365210867
3365217215
3365220816
3365229116
3365235159
3365240957
3365246695
3365252310
3365258108
3365263845
3365270010
3365275747
3365280996
3365286795
3365293386
3365299612
3365304800
3365311331
3365316335
3365322500
3365328848
3365334341
3365340749
3365346121
3365351675
3365357046
3365363027
3365369131
3365375173
3365381460
3365387197
3365392934
3365398550
3365404775
3365409292
3365416006
3365420583
3365428335
3365433095
3365439748
3365445180
3365451589
3365455129
3365462819
3365468496
3365473745
3365480520
3365486440
3365492055
3365497854
3365504323
3365510854
3365516408
3365521169
3365529164
3365532460
3365540212
3365546987
3365553334
3365559804
3365564687
3365571767
3365576894
3365583241
3365589223
3365595326
3365600026
3365606374
3365613149
3365619374
3365624928
3365630727
3365636464
3365642079
3365649281
3365653554
3365660817
3365666249
3365672475
3365677235
3365687062
3365692860
3365699086
3365704335
3365710744
3365716237
3365722035
3365729176
3365735402
3365741383
3365747548
3365754445
3365761159
3365766774
3365772816
3365778309
3365784962
3365791249
3365794606
3365801747
3365807423
3365813893
3365819813
3365825550
3365831532
3365837208
3365842945
3365848683
3365854542
3365860340
3365865834
3365871632
3365877980
3365884205
3365890492
3365895252
3365901661
3365906422
3365913746
3365924671
3365930164
3365935597
3365941456
3365947193
3365953480
3365960072
3365964893
3365970936
3365975697
3365984425
3365989124
3365994862
3366001881
3366008045
3366013050
3366019276
3366024708
3366031422
3366036487
3366043140
3366049610
3366055469
3366061146
3366067188
3366072803
3366078357
3366083728
3366089344
3366096973
3366102222
3366108753
3366114917
3366120655
3366126758
3366132190
3366140125
3366145252
3366151599
3366157825
3366164234
3366169910
3366176197
3366181995
3366186878
3366192066
3366198718
3366202625
3366209400
3366216358
3366222827
3366229236
3366236133
3366246143
3366252490
3366257129
3366263904
3366270312
3366276416
3366282092
3366287891
3366294238
3366300342
3366307239
3366314380
3366320788
3366325610
3366331286
3366337695
3366344043
3366346850
3366355334
3366360400
3366368030
3366373828
3366379443
3366384936
3366390735
3366396350
3366402636
3366408984
3366414782
3366420642
3366426928
3366432299
3366438342
3366445483
3366450427
3366458056
3366461962
3366468432
3366475329
3366481494
3366485766
3366493579
3366499011
3366506213
3366512133
3366516955
3366523791
3366529894
3366534960
3366541918
3366546862
3366551562
3366558642
3366564440
3366571032
3366577074
3366582934
3366588183
3366593920
3366601366
3366605334
3366609545
3366612780
3366618761
3366624560
3366628283
3366631762
3366637377
3366641527
3366645800
3366649889
3366654528
3366661791
3366664904
3366669726
3366674059
3366678209
3366683947
3366687243
3366692614
3366696947
3366701891
3366705614
3366710314
3366714647
3366720385
3366724047
3366728075
3366732958
3366738146
3366743517
3366747423
3366754076
3366758592
3366763903
3366767198
3366772386
3366776781
3366780321
3366786241
3366791124
3366796678
3366801439
3366805773
3366811266
3366815538
3366819933
3366825426
3366828294
3366835313
3366839403
3366844164
3366849901
3366855089
3366861253
3366866380
3366870103
3366873888
3366880235
3366884080
3366888658
3366894151
3366900987
3366906236
3366910081
3366914537
3366917894
3366923814
3366927537
3366931932
3366935411
3366942796
3366946763
3366951768
3366955736
3366960801
3366964769
3366970140
3366974717
3366979417
3366984178
3366987657
3366993455
3366997056
3367002977
3367007371
3367012986
3367016343
3367022630
3367026475
3367031602
3367035386
3367040696
3367046006
3367050889
3367055406
3367059983
3367064439
3367068162
3367072679
3367076829
3367083787
3367088243
3367092637
3367096848
3367100511
3367107163
3367111863
3367117295
3367122544
3367127183
3367131699
3367134934
3367139939
3367146348
3367152695
3367157334
3367162217
3367167222
3367171983
3367177171
3367183518
3367189988
3367195237
3367200669
3367205369
3367211594
3367216172
3367220444
3367224595
3367230149
3367233018
3367239548
3367244797
3367249924
3367253769
3367262192
3367267380
3367272873
3367277146
3367282090
3367286728
3367292160
3367296616
3367302048
3367307724
3367311936
3367316819
3367320481
3367326828
3367330918
3367335923
3367342453
3367347153
3367351242
3367356735
3367360825
3367365891
3367369797
3367375778
3367381943
3367387070
3367391770
3367396835
3367400803
3367407700
3367412033
3367417832
3367426010
3367430588
3367436386
3367441025
3367445358
3367454269
3367458542
3367464462
3367472336
3367478134
3367482284
3367488266
3367492477
3367498093
3367503403
3367508041
3367514328
3367520004
3367525436
3367529892
3367535385
3367540390
3367545700
3367550216
3367556015
3367561630
3367567001
3367570846
3367576339
3367582199
3367586471
3367589767
3367597091
3367603317
3367610214
3367615951
3367620834
3367628768
3367633651
3367640853
3367646286
3367651657
3367656051
3367662399
3367667160
3367673080
3367676254
3367682479
3367687118
3367693710
3367698898
3367703903
3367708358
3367715377
3367720382
3367728072
3367734481
3367739486
3367745284
3367749923
3367754684
3367760604
3367765121
3367770126
3367776534
3367782699
3367785689
3367793197
3367798507
3367805221
3367810103
3367815658
3367820968
3367827193
3367831710
3367837264
3367841414
3367847579
3367851546
3367857772
3367864242
3367869368
3367873641
3367878951
3367885787
3367891402
3367895430
3367900801
3367906905
3367913131
3367917342
3367923445
3367928878
3367932845
3367938216
3367944197
3367949141
3367954878
3367960555
3367964705
3367970687
3367974593
3367980635
3367984175
3367990584
3367995345
3368002669
3368008345
3368013655
3368018538
3368024031
3368028731
3368037093
3368042830
3368048201
3368054732
3368059554
3368063948
3368070784
3368075301
3368081221
3368087447
3368091902
3368097761
3368102522
3368109053
3368113631
3368118757
3368123823
3368131392
3368137434
3368144636
3368148176
3368155684
3368161299
3368166487
3368172468
3368179426
3368184492
3368191816
3368196394
3368202131
3368207930
3368213667
3368219709
3368224958
3368231855
3368238447
3368243025
3368248945
3368254927
3368260664
3368266950
3368272688
3368279524
3368286360
3368291487
3368300825
3368305830
3368313032
3368318769
3368324751
3368329755
3368335127
3368340498
3368346174
3368351789
3368356611
3368363447
3368369428
3368377485
3368380170
3368386823
3368391157
3368398603
3368403181
3368408857
3368413679
3368418683
3368424421
3368428449
3368433881
3368439741
3368443830
3368448957
3368455671
3368462079
3368466718
3368471540
3368477521
3368481855
3368488507
3368494306
3368498944
3368505170
3368510541
3368516645
3368521833
3368526715
3368532758
3368538129
3368543500
3368551557
3368557233
3368561688
3368567426
3368573407
3368577985
3368583905
3368589154
3368594037
3368600324
3368605390
3368610944
3368616010
3368620831
3368626325
3368630902
3368637494
3368642316
3368650189
3368655255
3368659589
3368666730
3368672345
3368676800
3368682965
3368689740
3368695477
3368701398
3368706158
3368712018
3368716595
3368722455
3368726422
3368733624
3368737103
3368744183
3368747662
3368756512
3368759930
3368766888
3368771893
3368778180
3368783917
3368791851
3368796368
3368801678
3368807476
3368812481
3368818707
3368824017
3368830487
3368836956
3368841595
3368848065
3368854656
3368861004
3368868206
3368876690
3368884808
3368888775
3368894940
3368898785
3368904949
3368909222
3368914288
3368921246
3368927471
3368934551
3368939556
3368947186
3368953838
3368958843
3368963970
3368969463
3368976177
3368981304
3368986492
3368992779
3368997906
3369002544
3369007915
3369013836
3369019512
3369024883
3369030498
3369034588
3369040020
3369045452
3369050457
3369057232
3369063701
3369068340
3369073589
3369079448
3369084575
3369090191
3369094097
3369101482
3369107402
3369113079
3369118877
3369124431
3369129680
3369135051
3369139995
3369146404
3369151409
3369157146
3369161540
3369168132
3369172649
3369177715
3369182842
3369188884
3369193706
3369200725
3369205119
3369211467
3369217815
3369222820
3369227336
3369233196
3369239665
3369245036
3369250774
3369255962
3369260539
3369266826
3369271281
3369277690
3369284038
3369287517
3369295940
3369300578
3369306071
3369311503
3369316752
3369321330
3369329448
3369334697
3369342021
3369346843
3369353007
3369357646
3369364055
3369369853
3369374736
3369381144
3369386760
3369392680
3369396769
3369402690
3369407023
3369413737
3369417277
3369425456
3369431376
3369438578
3369447123
3369453166
3369459086
3369464640
3369468669
3369474955
3369480998
3369486430
3369492228
3369496623
3369503520
3369508402
3369515055
3369522318
3369527995
3369532633
3369538615
3369543925
3369549845
3369554728
3369560099
3369564921
3369570841
3369574808
3369581461
3369585429
3369591288
3369596781
3369601359
3369608866
3369615214
3369619242
3369624979
3369629069
3369634623
3369639994
3369644571
3369652079
3369657389
3369661478
3369666971
3369672709
3369678812
3369683268
3369688578
3369694620
3369701395
3369705667
3369712015
3369719217
3369724832
3369729715
3369735636
3369742044
3369749063
3369753702
3369761026
3369767679
3369773538
3369778604
3369785318
3369791666
3369798502
3369803507
3369809427
3369814249
3369820657
3369825601
3369830240
3369838358
3369845010
3369849527
3369855020
3369860818
3369865945
3369871805
3369877298
3369882120
3369888650
3369895059
3369899270
3369906595
3369909952
3369917032
3369922037
3369927713
3369932596
3369940225
3369944558
3369951455
3369955789
3369962014
3369967691
3369973245
3369980874
3369986734
3369991616
3369997171
3370003213
3370007669
3370015542
3370020669
3370027200
3370033731
3370040994
3370045754
3370050515
3370055459
3370060098
3370064431
3370071877
3370078103
3370083108
3370088967
3370095559
3370101479
3370105813
3370111428
3370116982
3370122720
3370128152
3370134194
3370139016
3370143716
3370150124
3370152810
3370160439
3370165078
3370170083
3370174355
3370180215
3370186135
3370191140
3370195107
3370200417
3370207192
3370213601
3370217873
3370223977
3370228005
3370232277
3370239358
3370244973
3370250588
3370255532
3370261513
3370267434
3370273476
3370279702
3370287026
3370292702
3370299721
3370305703
3370310952
3370319557
3370324868
3370332253
3370337319
3370343849
3370349770
3370355873
3370361733
3370367714
3370372231
3370378212
3370382668
3370386147
3370395729
3370400307
3370406471
3370413429
3370420204
3370426613
3370432899
3370438149
3370444679
3370450294
3370456459
3370463051
3370467873
3370473549
3370479957
3370486671
3370492775
3370497963
3370505287
3370509620
3370516151
3370520485
3370527260
3370530922
3370537513
3370543251
3370549843
3370554786
3370561561
3370566566
3370571815
3370576332
3370582496
3370588905
3370597694
3370601234
3370608802
3370614296
3370620094
3370625648
3370632484
3370639747
3370644020
3370649269
3370655189
3370660316
3370664466
3370670753
3370676307
3370682289
3370688941
3370692176
3370699012
3370705299
3370710059
3370715980
3370721351
3370726295
3370732764
3370735938
3370743324
3370747901
3370752967
3370758094
3370764320
3370773109
3370778113
3370781104
3370787818
3370792335
3370798743
3370803138
3370809913
3370816871
3370821387
3370827308
3370831946
3370837928
3370844031
3370848365
3370851844
3370860755
3370868323
3370873145
3370876807
3370884192
3370887122
3370894202
3370899268
3370906226
3370911841
3370917762
3370922461
3370929541
3370933997
3370939612
3370945655
3370951209
3370956519
3370963294
3370967688
3370973486
3370979407
3370983679
3370988806
3370993872
3371000098
3371006873
3371012244
3371017249
3371023352
3371028357
3371033972
3371040015
3371045264
3371051733
3371058325
3371064246
3371069495
3371076147
3371081824
3371086706
3371092444
3371099035
3371105871
3371112341
3371115820
3371122473
3371127600
3371133642
3371137976
3371144507
3371151465
3371156897
3371161291
3371168554
3371172888
3371179419
3371185156
3371191504
3371199316
3371207617
3371212439
3371217138
3371221167
3371228247
3371232702
3371237097
3371243627
3371249365
3371253576
3371260839
3371264990
3371270849
3371276891
3371282629
3371288244
3371295263
3371299352
3371305029
3371310461
3371314672
3371320104
3371324621
3371330480
3371335973
3371341833
3371346716
3371353429
3371359838
3371366796
3371373388
3371380529
3371386266
3371392370
3371397924
3371404272
3371410497
3371416784
3371422460
3371429906
3371435827
3371440404
3371446447
3371452367
3371457677
3371462316
3371467931
3371473424
3371480626
3371486364
3371489782
3371496556
3371501622
3371507299
3371511693
3371518895
3371523717
3371529943
3371534337
3371540868
3371546788
3371551488
3371557286
3371561681
3371568578
3371573766
3371579442
3371585301
3371590367
3371595921
3371600926
3371607457
3371613194
3371620213
3371626012
3371632481
3371637669
3371642125
3371648350
3371652867
3371657750
3371665806
3371672032
3371677952
3371683263
3371689305
3371695042
3371700047
3371703465
3371712437
3371718846
3371724156
3371729161
3371735692
3371741185
3371746312
3371751194
3371757298
3371762669
3371772252
3371778172
3371782933
3371788914
3371796116
3371801304
3371808079
3371813572
3371819310
3371824131
3371830479
3371837742
3371842869
3371849522
3371857701
3371863621
3371870030
3371878025
3371882786
3371889439
3371894627
3371900608
3371906834
3371913975
3371917210
3371924717
3371930637
3371935215
3371939976
3371945347
3371951267
3371957188
3371961582
3371967869
3371971470
3371978550
3371982456
3371988010
3371993259
3371999912
3372004612
3372011020
3372015659
3372021091
3372026645
3372032932
3372039219
3372044407
3372047764
3372054050
3372056797
3372064975
3372070163
3372076328
3372081516
3372088901
3372094638
3372099643
3372104709
3372109714
3372114414
3372120090
3372128330
3372135227
3372140109
3372145175
3372151401
3372156589
3372159458
3372165927
3372174411
3372179965
3372185031
3372190891
3372195407
3372201083
3372207065
3372212009
3372218845
3372223178
3372228854
3372234225
3372240573
3372246127
3372251559
3372256625
3372262851
3372268405
3372272861
3372278049
3372283359
3372288363
3372293613
3372298434
3372302890
3372309176
3372315280
3372319980
3372325900
3372331576
3372337191
3372342135
3372350802
3372357394
3372363925
3372370150
3372376254
3372382540
3372388583
3372392733
3372398349
3372405246
3372407687
3372416659
3372420260
3372427584
3372431735
3372438510
3372444369
3372449984
3372454928
3372462557
3372468051
3372473361
3372480502
3372486239
3372490817
3372496188
3372502047
3372507113
3372512240
3372517855
3372523959
3372531222
3372537447
3372543124
3372548128
3372554232
3372560396
3372566012
3372571749
3372577181
3372582796
3372588656
3372592989
3372600313
3372603975
3372611056
3372616549
3372620577
3372627596
3372631319
3372637056
3372642794
3372650545
3372655184
3372661531
3372667635
3372671297
3372677279
3372685396
3372691805
3372697786
3372703463
3372708956
3372714449
3372719332
3372727693
3372734041
3372739351
3372744722
3372751009
3372755037
3372760408
3372768465
3372773531
3372780611
3372785310
3372789644
3372797273
3372804170
3372808931
3372814546
3372820772
3372826448
3372831575
3372837801
3372842317
3372849092
3372855562
3372863557
3372869478
3372877229
3372881624
3372887666
3372894319
3372900178
3372903291
3372910615
3372916047
3372921357
3372927278
3372932161
3372941011
3372945283
3372951448
3372956941
3372961030
3372964204
3372971284
3372974946
3372982270
3372987031
3372991426
3372997895
3373004243
3373011323
3373017304
3373022248
3373028718
3373034699
3373039216
3373042329
3373049958
3373054963
3373060883
3373065888
3373070649
3373076753
3373082673
3373089021
3373094392
3373101106
3373107270
3373111787
3373117707
3373123627
3373129792
3373135834
3373140534
3373147065
3373151154
3373157685
3373162812
3373169587
3373176606
3373182648
3373189057
3373193390
3373199006
3373204316
3373210053
3373215058
3373222809
3373226594
3373233796
3373237946
3373243012
3373248566
3373253144
3373261689
3373265107
3373272553
3373278351
3373283478
3373289154
3373294220
3373300812
3373305878
3373311432
3373315949
3373321625
3373326203
3373334259
3373338654
3373346405
3373351898
3373358307
3373363617
3373369904
3373376129
3373382294
3373388764
3373394135
3373401154
3373407562
3373412506
3373417023
3373423248
3373427948
3373435333
3373438812
3373445770
3373451446
3373458038
3373463470
3373469879
3373475860
3373480560
3373485504
3373491180
3373496856
3373501129
3373505890
3373511871
3373517791
3373522125
3373528778
3373533050
3373538299
3373544830
3373549957
3373556183
3373563324
3373567169
3373574798
3373579803
3373585968
3373592071
3373597625
3373603912
3373607696
3373615264
3373620574
3373625640
3373629974
3373637542
3373643157
3373647552
3373654266
3373659698
3373664886
3373669402
3373676544
3373683807
3373688384
3373694244
3373699004
3373703887
3373709625
3373714629
3373720245
3373725677
3373730621
3373734527
3373740447
3373745208
3373750213
3373758147
3373764678
3373769622
3373775542
3373779632
3373785003
3373789824
3373798064
3373803679
3373809478
3373814300
3373819243
3373825408
3373829558
3373836394
3373843230
3373849517
3373854583
3373861846
3373865752
3373872039
3373875457
3373883391
3373886992
3373894805
3373901946
3373906707
3373912078
3373919280
3373924346
3373930449
3373936370
3373940520
3373946257
3373952910
3373959685
3373963042
3373971037
3373977202
3373984343
3373990630
3373995696
3374003630
3374008147
3374014494
3374018950
3374024931
3374029875
3374036406
3374039336
3374046477
3374050871
3374057463
3374062407
3374069426
3374075773
3374080412
3374086333
3374091337
3374097136
3374101469
3374107756
3374112394
3374119230
3374123076
3374129789
3374133329
3374140287
3374145414
3374150724
3374159330
3374164885
3374169889
3374175016
3374179411
3374185820
3374191679
3374196623
3374203398
3374210173
3374216642
3374222502
3374227201
3374234159
3374239347
3374247099
3374252958
3374259855
3374264066
3374270902
3374277372
3374281461
3374287443
3374292936
3374299467
3374305387
3374309904
3374315519
3374321500
3374326627
3374331510
3374337492
3374343107
3374349699
3374355253
3374360380
3374366727
3374372159
3374378629
3374383939
3374389982
3374398038
3374402738
3374408475
3374413602
3374419523
3374425199
3374429532
3374436002
3374440824
3374446683
3374452787
3374456754
3374463285
3374468900
3374473355
3374478421
3374484830
3374490628
3374499234
3374504361
3374511991
3374516324
3374523160
3374527738
3374533231
3374540311
3374545804
3374551602
3374556668
3374563504
3374568753
3374576322
3374582730
3374589261
3374596585
3374601712
3374607693
3374612149
3374618497
3374622830
3374628873
3374633145
3374639249
3374644925
3374649258
3374654690
3374657864
3374665372
3374669095
3374677762
3374681668
3374688382
3374693326
3374699185
3374704068
3374709744
3374715542
3374720791
3374727749
3374733181
3374739163
3374744046
3374749966
3374755459
3374759976
3374766079
3374770840
3374777676
3374784695
3374788174
3374794644
3374799526
3374805813
3374810452
3374816616
3374821377
3374828213
3374833889
3374839382
3374845547
3374850063
3374855984
3374861355
3374866116
3374873135
3374878018
3374881435
3374889126
3374892605
3374900112
3374905117
3374910061
3374918301
3374924099
3374928554
3374934536
3374939358
3374945827
3374951809
3374957119
3374962063
3374967983
3374975368
3374981899
3374986538
3374992519
3374996914
3375004970
3375009670
3375015712
3375022609
3375026882
3375033657
3375037380
3375043178
3375049526
3375055202
3375060512
3375066494
3375072902
3375078395
3375083583
3375090419
3375097133
3375102443
3375108913
3375114650
3375120632
3375125148
3375130702
3375135524
3375139614
3375144252
3375150783
3375157314
3375162563
3375167507
3375174465
3375179958
3375185756
3375189113
3375196010
3375201137
3375207423
3375211024
3375217372
3375221889
3375227626
3375232265
3375237941
3375243068
3375248683
3375254726
3375260036
3375264369
3375270045
3375276149
3375280787
3375287440
3375294215
3375298732
3375304957
3375309413
3375315577
3375319972
3375323634
3375332240
3375336451
3375344630
3375348109
3375354640
3375359767
3375365992
3375370875
3375377345
3375382716
3375388941
3375393519
3375400965
3375405970
3375414149
3375420436
3375427455
3375433619
3375439723
3375445643
3375451258
3375455836
3375461390
3375467249
3375472987
3375478114
3375485194
3375489710
3375496058
3375500452
3375505396
3375512965
3375517481
3375522974
3375526820
3375535303
3375538782
3375546290
3375552515
3375558192
3375563318
3375569056
3375577296
3375583704
3375588770
3375594141
3375598536
3375603907
3375609766
3375614771
3375621790
3375628077
3375632593
3375638514
3375643091
3375648829
3375654078
3375658960
3375665857
3375675013
3375681482
3375686914
3375692285
3375696802
3375703882
3375708155
3375713709
3375720789
3375727258
3375731592
3375737695
3375744653
3375751917
3375756738
3375762903
3375768823
3375775537
3375779504
3375785608
3375791589
3375796838
3375800989
3375807275
3375812036
3375818750
3375823083
3375829248
3375833276
3375839990
3375844324
3375849451
3375856225
3375862207
3375868127
3375875329
3375880273
3375884973
3375889490
3375894861
3375900171
3375907007
3375911584
3375917688
3375924279
3375929162
3375935632
3375940576
3375947473
3375953881
3375958459
3375965234
3375969690
3375974755
3375980615
3375985376
3375991479
3375996301
3376003381
3376008386
3376014977
3376019067
3376025537
3376028466
3376035546
3376041772
3376050012
3376053735
3376060265
3376065331
3376071679
3376076684
3376081628
3376090173
3376095605
3376099877
3376105981
3376110131
3376115868
3376119958
3376125268
3376131310
3376139123
3376144494
3376151147
3376156762
3376161706
3376165978
3376172753
3376178490
3376184044
3376190331
3376195824
3376201928
3376206810
3376212548
3376218285
3376222741
3376230004
3376234948
3376241051
3376249352
3376257897
3376261742
3376272606
3376278099
3376282433
3376286583
3376293053
3376298729
3376304100
3376308495
3376314232
3376318810
3376326317
3376332176
3376336449
3376343834
3376349144
3376354210
3376361351
3376365685
3376370567
3376376854
3376382225
3376387657
3376392723
3376398277
3376404198
3376409752
3376414146
3376418968
3376426781
3376430443
3376437279
3376444054
3376448692
3376454918
3376459434
3376464500
3376467796
3376475181
3376480552
3376488121
3376494713
3376499534
3376505272
3376511131
3376514610
3376522667
3376528038
3376533409
3376539390
3376544456
3376547630
3376555809
3376560752
3376565879
3376572776
3376579490
3376584007
3376590965
3376595359
3376601951
3376606529
3376612327
3376618369
3376624229
3376630332
3376634971
3376641380
3376648094
3376652549
3376658286
3376663780
3376670738
3376676353
3376681297
3376686668
3376691306
3376699424
3376703880
3376710166
3376717368
3376721702
3376727683
3376733237
3376739219
3376745444
3376750144
3376756187
3376761252
3376768577
3376774070
3376777793
3376784629
3376789512
3376795371
3376799949
3376806357
3376814414
3376821494
3376829245
3376834739
3376839560
3376845786
3376850058
3376855674
3376862265
3376867148
3376872946
3376878257
3376884787
3376891257
3376896994
3376905356
3376909751
3376916648
3376921225
3376927573
3376933432
3376939536
3376944541
