3438081774
3438086779
3438092089
3438097643
3438103136
3438109057
3438114550
3438120165
3438125475
3438131518
3438137255
3438143481
3438150194
3438156115
3438162951
3438170275
3438174792
3438181994
3438188830
3438195421
3438200914
3438208544
3438214708
3438220751
3438226305
3438232225
3438239367
3438246325
3438254381
3438263109
3438269457
3438277574
3438284838
3438293444
3438301317
3438307543
3438314134
3438322618
3438329820
3438335130
3438346483
3438354356
3438360826
3438367784
3438374864
3438382860
3438390062
3438397447
3438404039
3438411729
3438418809
3438426439
3438433031
3438441881
3438447313
3438454820
3438463609
3438469896
3438477647
3438487352
3438494737
3438500657
3438508348
3438516343
3438524034
3438529649
3438540147
3438548021
3438554551
3438562364
3438571092
3438578965
3438587022
3438595994
3438603135
3438609910
3438617784
3438625901
3438631700
3438639756
3438648057
3438657517
3438665513
3438674729
3438681870
3438690598
3438696397
3438706834
3438714951
3438720566
3438731064
3438737595
3438747849
3438758957
3438764390
3438774338
3438781724
3438788987
3438795395
3438805161
3438813706
3438820115
3438827561
3438836777
3438843918
3438851853
3438858933
3438865464
3438873276
3438881027
3438890061
3438895920
3438903916
3438912216
3438919602
3438929062
3438937058
3438944870
3438953720
3438959641
3438968124
3438974960
3438985031
3438993271
3439002243
3439008224
3439014450
3439024216
3439031601
3439039596
3439047470
3439055221
3439063156
3439070602
3439080734
3439091781
3439098556
3439105087
3439113937
3439120651
3439128463
3439137436
3439146225
3439152572
3439159103
3439166976
3439174423
3439183212
3439195663
3439202072
3439208419
3439218368
3439224655
3439233016
3439240951
3439254257
3439263351
3439269943
3439276656
3439286605
3439293258
3439304610
3439311751
3439320113
3439328292
3439336593
3439345260
3439353744
3439361861
3439370894
3439377486
3439385848
3439394149
3439401839
3439408980
3439416610
3439428023
3439435347
3439444625
3439450850
3439459700
3439464888
3439474715
3439481673
3439489302
3439495040
3439502486
3439508650
3439516097
3439521895
3439531722
3439538924
3439544417
3439551741
3439556990
3439566573
3439572005
3439580733
3439587935
3439596480
3439601485
3439609663
3439614729
3439622847
3439630293
3439638960
3439644148
3439651594
3439657698
3439665388
3439671614
3439678999
3439683882
3439692244
3439701338
3439706343
3439714582
3439721479
3439727888
3439735029
3439742231
3439749189
3439757856
3439762983
3439771528
3439778852
3439784773
3439790327
3439799604
3439806074
3439813459
3439821760
3439830122
3439837263
3439843122
3439853498
3439860090
3439868452
3439874250
3439883283
3439890241
3439897932
3439903242
3439911420
3439921064
3439926618
3439935285
3439942426
3439949872
3439955793
3439965253
3439972211
3439979474
3439986921
3439994428
3440001020
3440007795
3440016767
3440025495
3440034284
3440041181
3440048017
3440055829
3440063275
3440071698
3440079145
3440086408
3440093671
3440102765
3440111127
3440123700
3440131513
3440139020
3440147443
3440156781
3440165326
3440171246
3440177899
3440185529
3440193829
3440202862
3440208844
3440215863
3440222272
3440233136
3440238690
3440247845
3440254498
3440261578
3440268719
3440275250
3440282391
3440291363
3440299542
3440307049
3440315411
3440323040
3440330365
3440336590
3440345257
3440352887
3440358441
3440368145
3440374798
3440383404
3440390179
3440396099
3440404522
3440410137
3440417645
3440422650
3440429913
3440435894
3440443646
3440450543
3440456585
3440462383
3440469097
3440474163
3440480206
3440487957
3440494244
3440498333
3440505047
3440509563
3440517010
3440521587
3440530193
3440536663
3440543255
3440548626
3440553631
3440558574
3440564922
3440571819
3440578594
3440584881
3440591167
3440597088
3440601604
3440607708
3440613018
3440620403
3440626628
3440632671
3440637127
3440643474
3440649761
3440656108
3440661235
3440667705
3440673748
3440678020
3440683940
3440687908
3440695537
3440701579
3440707317
3440712749
3440717326
3440724651
3440727825
3440736553
3440743022
3440747051
3440754131
3440759380
3440765727
3440771281
3440776469
3440783000
3440788798
3440793620
3440800212
3440805095
3440810771
3440816081
3440823100
3440828532
3440835002
3440839335
3440846171
3440851420
3440856730
3440865886
3440871135
3440876384
3440882792
3440888469
3440894877
3440900431
3440906169
3440910930
3440917094
3440922709
3440927958
3440934855
3440940531
3440946574
3440951457
3440956828
3440961894
3440966654
3440973429
3440978739
3440984782
3440990275
3440994181
3441001444
3441007060
3441013712
3441018107
3441023661
3441031107
3441036845
3441043131
3441049784
3441056193
3441061747
3441067667
3441073344
3441079386
3441083475
3441092020
3441094706
3441102640
3441108256
3441114481
3441120280
3441126017
3441131693
3441137125
3441145243
3441149943
3441155619
3441161722
3441167521
3441172342
3441179239
3441184855
3441190104
3441196024
3441202250
3441207926
3441214396
3441219584
3441225382
3441230204
3441237223
3441242533
3441248575
3441255167
3441261087
3441266214
3441273538
3441278238
3441283548
3441290933
3441297220
3441301676
3441308634
3441313394
3441319620
3441325418
3441331644
3441337930
3441344339
3441349954
3441355447
3441361002
3441368021
3441373697
3441379800
3441384378
3441391153
3441395975
3441401834
3441408304
3441413736
3441420206
3441424966
3441431497
3441436563
3441442605
3441449075
3441454324
3441459329
3441465799
3441470865
3441476785
3441481424
3441487466
3441493509
3441499124
3441504251
3441511270
3441517373
3441521646
3441527932
3441534585
3441540506
3441547219
3441551248
3441559121
3441565591
3441570962
3441578408
3441584390
3441588906
3441595132
3441601418
3441609231
3441615090
3441621743
3441626748
3441632851
3441638528
3441643227
3441649758
3441655434
3441661294
3441667580
3441672280
3441676980
3441681863
3441689797
3441694802
3441700844
3441706826
3441711343
3441718300
3441725747
3441732888
3441737710
3441744179
3441751320
3441755532
3441762673
3441767434
3441772988
3441779702
3441785256
3441790810
3441797463
3441802163
3441808999
3441814797
3441819741
3441826393
3441832741
3441838417
3441843911
3441848976
3441854286
3441861306
3441865151
3441871498
3441876808
3441882668
3441889198
3441894631
3441902382
3441908547
3441914467
3441919228
3441925148
3441929115
3441935036
3441942116
3441948280
3441953835
3441959511
3441965004
3441969765
3441975990
3441980324
3441990272
3441994789
3442001320
3442006996
3442012977
3442018043
3442021889
3442028908
3442034889
3442040443
3442046852
3442051552
3442056190
3442062721
3442068397
3442075233
3442080787
3442084755
3442091835
3442096168
3442102394
3442106666
3442114540
3442120887
3442126258
3442131019
3442137306
3442142555
3442148475
3442154457
3442159217
3442164894
3442171058
3442176612
3442182838
3442188087
3442194251
3442199684
3442205299
3442212013
3442217323
3442223609
3442231544
3442237037
3442244544
3442249854
3442256568
3442260963
3442266822
3442271888
3442277991
3442283790
3442290626
3442296058
3442301246
3442306251
3442311561
3442317908
3442322913
3442328284
3442334449
3442340735
3442346717
3442353370
3442358619
3442365455
3442371009
3442375953
3442382850
3442388892
3442395057
3442400855
3442405127
3442413001
3442418738
3442424292
3442430274
3442436133
3442441504
3442446631
3442451575
3442457801
3442464759
3442469824
3442475073
3442480872
3442485571
3442491431
3442497473
3442503211
3442508643
3442513892
3442518836
3442524207
3442531043
3442535193
3442541968
3442547644
3442553626
3442560034
3442565649
3442570715
3442576269
3442582800
3442589514
3442594885
3442599585
3442605994
3442611059
3442616858
3442621191
3442628576
3442635534
3442639868
3442647131
3442651037
3442657568
3442663183
3442669287
3442675696
3442680578
3442686560
3442691137
3442696753
3442703039
3442706945
3442713659
3442718847
3442724646
3442730200
3442736303
3442741369
3442747351
3442752478
3442757849
3442765051
3442771520
3442778295
3442785986
3442791296
3442797155
3442802160
3442809179
3442813879
3442820654
3442825292
3442832067
3442837743
3442844152
3442848669
3442855199
3442861120
3442866674
3442872716
3442876867
3442883642
3442890111
3442895727
3442901891
3442907018
3442911779
3442918188
3442923559
3442930211
3442935399
3442941259
3442945470
3442951391
3442957189
3442962499
3442968602
3442972753
3442979894
3442983922
3442990697
3442996312
3443001439
3443006566
3443013158
3443019689
3443024877
3443030431
3443034276
3443041539
3443046178
3443052648
3443058324
3443064488
3443070104
3443075048
3443082067
3443089025
3443095128
3443100804
3443107518
3443112157
3443118443
3443124608
3443128575
3443135533
3443141454
3443148167
3443152440
3443158910
3443164159
3443170384
3443175267
3443182408
3443189244
3443194188
3443200658
3443205113
3443211339
3443216954
3443223485
3443229344
3443233372
3443239598
3443245946
3443251072
3443256138
3443263524
3443269566
3443275975
3443282200
3443286473
3443294957
3443300633
3443308628
3443314305
3443320591
3443325413
3443331700
3443338902
3443343357
3443350010
3443354832
3443361424
3443366001
3443372227
3443377110
3443382969
3443388828
3443395115
3443399998
3443406590
3443411839
3443418186
3443422886
3443429478
3443434116
3443441380
3443446812
3443452000
3443457249
3443463901
3443470432
3443477634
3443481907
3443487888
3443494297
3443498264
3443504001
3443510471
3443515720
3443520298
3443526829
3443533298
3443537998
3443543125
3443549045
3443556125
3443561924
3443567295
3443573093
3443578220
3443583286
3443588413
3443594516
3443600620
3443606357
3443611789
3443615940
3443621921
3443627597
3443631565
3443638462
3443645298
3443651035
3443656894
3443662021
3443667575
3443672763
3443677402
3443684055
3443689548
3443695834
3443702487
3443706516
3443713168
3443717502
3443725436
3443730624
3443735873
3443741611
3443747653
3443752963
3443757724
3443763827
3443770541
3443776706
3443782321
3443787387
3443792026
3443798373
3443803561
3443809787
3443816562
3443823337
3443828708
3443833285
3443842196
3443847384
3443854587
3443860324
3443866488
3443870700
3443876498
3443881259
3443887057
3443893466
3443899508
3443905001
3443910556
3443915744
3443920504
3443926791
3443931185
3443938632
3443944674
3443950839
3443957919
3443963046
3443968234
3443973055
3443980685
3443985751
3443991671
3443999178
3444005221
3444010531
3444016757
3444023837
3444028964
3444034884
3444038851
3444045931
3444051119
3444056368
3444061678
3444068514
3444073885
3444078280
3444084688
3444087313
3444095125
3444099337
3444106356
3444111483
3444117281
3444121920
3444127901
3444133089
3444139071
3444145662
3444152010
3444157381
3444162325
3444167452
3444173433
3444179354
3444185213
3444191805
3444198214
3444204134
3444209444
3444215059
3444220491
3444226778
3444232637
3444237886
3444244783
3444249361
3444255281
3444259798
3444265718
3444272371
3444276399
3444283357
3444289583
3444294893
3444300203
3444305208
3444310823
3444318391
3444323824
3444329866
3444335054
3444339693
3444345003
3444351350
3444357881
3444362032
3444369966
3444375459
3444380586
3444385469
3444391817
3444396821
3444403840
3444409028
3444414827
3444420625
3444426301
3444431489
3444437166
3444442903
3444446870
3444455049
3444459382
3444465852
3444470552
3444476899
3444482332
3444489045
3444496003
3444501374
3444506318
3444511872
3444518525
3444522920
3444530122
3444537263
3444542695
3444548066
3444553071
3444559480
3444563691
3444570832
3444576570
3444582307
3444587251
3444592439
3444599275
3444604218
3444611421
3444616120
3444623017
3444628571
3444633332
3444638337
3444644318
3444649628
3444656770
3444662080
3444667512
3444672578
3444677949
3444684296
3444688752
3444695405
3444701020
3444707368
3444712372
3444718293
3444722321
3444728180
3444734467
3444739899
3444745942
3444751923
3444758515
3444762909
3444769318
3444774506
3444782013
3444787323
3444792572
3444797943
3444803803
3444808747
3444814240
3444820771
3444826935
3444832367
3444838959
3444843659
3444849762
3444854462
3444860016
3444868012
3444873749
3444878876
3444884247
3444890656
3444895661
3444901276
3444907074
3444912018
3444917938
3444925385
3444930206
3444936554
3444942719
3444949310
3444953461
3444959259
3444965424
3444971466
3444976410
3444982330
3444988617
3444994842
3445001373
3445007110
3445013397
3445020172
3445025116
3445032135
3445036773
3445043548
3445048797
3445055084
3445059845
3445066192
3445071502
3445078094
3445083954
3445087799
3445094390
3445099945
3445105072
3445109222
3445116607
3445122039
3445127655
3445132659
3445139068
3445144439
3445150238
3445154144
3445162689
3445168304
3445172393
3445178558
3445182647
3445190399
3445196014
3445201995
3445207000
3445213653
3445217742
3445224151
3445229400
3445236175
3445241180
3445247283
3445253020
3445257171
3445263763
3445269805
3445275115
3445280303
3445287688
3445293670
3445299956
3445304046
3445309905
3445315093
3445321013
3445326873
3445333281
3445338530
3445342803
3445349578
3445354888
3445360015
3445365569
3445372832
3445377715
3445383635
3445389617
3445396819
3445402251
3445407866
3445415313
3445419646
3445425811
3445432891
3445437957
3445444243
3445450286
3445457366
3445463042
3445466948
3445474394
3445479094
3445484221
3445489897
3445496916
3445502776
3445507720
3445513274
3445519316
3445524626
3445530547
3445535918
3445544035
3445549467
3445554716
3445559660
3445565214
3445570341
3445576384
3445582915
3445586699
3445592558
3445597929
3445604643
3445610441
3445614409
3445621306
3445625456
3445632048
3445636931
3445643278
3445647856
3445654265
3445658110
3445665922
3445671660
3445677641
3445684721
3445688993
3445696989
3445703886
3445709074
3445714811
3445721525
3445726957
3445733793
3445739103
3445745024
3445750456
3445757292
3445762419
3445767973
3445774076
3445780790
3445784696
3445791532
3445796598
3445803373
3445809660
3445816190
3445821623
3445825712
3445832121
3445839872
3445845487
3445851224
3445856351
3445861600
3445866544
3445872831
3445880460
3445884855
3445890714
3445895353
3445901151
3445907377
3445911283
3445917570
3445923978
3445929593
3445935819
3445941190
3445947477
3445952359
3445958524
3445965299
3445969999
3445975736
3445981168
3445985196
3445991910
3445996183
3446002530
3446009671
3446015103
3446020841
3446025846
3446030545
3446036832
3446041226
3446048917
3446054898
3446060636
3446065640
3446071927
3446076932
3446082547
3446087918
3446093411
3446099820
3446104398
3446110318
3446116422
3446120633
3446126981
3446133633
3446140225
3446145718
3446150662
3446156277
3446162198
3446166592
3446173245
3446178860
3446184598
3446191312
3446195340
3446201321
3446206814
3446212185
3446218289
3446223782
3446228055
3446234341
3446240078
3446244839
3446250027
3446256253
3446261624
3446267605
3446273892
3446279324
3446284451
3446290432
3446295987
3446301785
3446306790
3446312954
3446317715
3446324185
3446330654
3446334561
3446342251
3446348110
3446354092
3446359402
3446364834
3446371243
3446375637
3446382412
3446387783
3446393581
3446399441
3446405544
3446410549
3446416164
3446421474
3446427273
3446433437
3446437710
3446443569
3446449184
3446455532
3446459682
3446466579
3446473049
3446478664
3446483669
3446489101
3446494106
3446499477
3446505764
3446513393
3446518215
3446523891
3446528469
3446534328
3446540188
3446546901
3446551601
3446558315
3446564113
3446569118
3446574428
3446579372
3446585476
3446590969
3446595729
3446602138
3446607875
3446613979
3446618007
3446623867
3446629909
3446636013
3446641567
3446646388
3446652858
3446658046
3446664516
3446668483
3446677394
3446681362
3446687221
3446693263
3446698634
3446704372
3446708461
3446715480
3446720302
3446727809
3446731960
3446738185
3446742641
3446748988
3446753139
3446760097
3446766444
3446773036
3446779750
3446785670
3446791102
3446797816
3446804530
3446809901
3446815639
3446821681
3446827662
3446833278
3446839503
3446846278
3446851283
3446857692
3446864650
3446870326
3446876307
3446880946
3446887782
3446894313
3446900538
3446905360
3446910792
3446917079
3446921778
3446928431
3446934107
3446939479
3446945826
3446950648
3446955287
3446961207
3446967310
3446972865
3446978480
3446984095
3446990748
3446996119
3447002467
3447008936
3447014979
3447020350
3447027003
3447032069
3447038111
3447044703
3447051112
3447058680
3447063929
3447069910
3447076990
3447084070
3447090357
3447098292
3447104151
3447111231
3447117273
3447123499
3447130640
3447137598
3447143641
3447148768
3447154810
3447160547
3447165796
3447171778
3447178675
3447184534
3447190027
3447194971
3447200891
3447207483
3447213465
3447219568
3447225611
3447230738
3447236902
3447240991
3447246790
3447252588
3447258508
3447265894
3447270777
3447275476
3447279993
3447286829
3447292383
3447297693
3447303186
3447309290
3447313867
3447319666
3447325281
3447332056
3447338159
3447344568
3447349756
3447355920
3447361902
3447368738
3447376062
3447382715
3447387048
3447393091
3447398157
3447403833
3447409387
3447414880
3447421289
3447425744
3447431909
3447438501
3447443872
3447450403
3447455041
3447461633
3447466638
3447472619
3447477929
3447484704
3447491235
3447497277
3447501489
3447507531
3447513879
3447518945
3447523950
3447530847
3447536401
3447542565
3447547753
3447553185
3447559777
3447564233
3447570703
3447576501
3447582482
3447588464
3447593530
3447599145
3447605309
3447609277
3447616601
3447622094
3447628197
3447633691
3447639428
3447645165
3447651208
3447656274
3447661584
3447667870
3447674218
3447679589
3447684960
3447690087
3447696435
3447701562
3447707482
3447712548
3447719018
3447725121
3447731164
3447737694
3447743126
3447748558
3447753258
3447760033
3447764977
3447771264
3447777306
3447783715
3447789818
3447797081
3447801293
3447808495
3447814659
3447818688
3447827050
3447832726
3447837303
3447841942
3447848961
3447854515
3447859825
3447866173
3447871910
3447877892
3447883751
3447890404
3447896935
3447903221
3447907372
3447914269
3447918785
3447924706
3447930748
3447935631
3447940147
3447946129
3447951073
3447956932
3447961571
3447970238
3447975487
3447981346
3447987816
3447992760
3447999290
3448003197
3448010460
3448016380
3448022117
3448026939
3448031639
3448038292
3448044029
3448048790
3448053978
3448060081
3448065147
3448070152
3448075340
3448081443
3448088218
3448093895
3448099571
3448105369
3448111290
3448117637
3448122764
3448129783
3448136314
3448141136
3448150962
3448156333
3448162620
3448168784
3448173545
3448179466
3448185142
3448190879
3448196800
3448201926
3448208213
3448214011
3448217735
3448223960
3448229881
3448236167
3448241477
3448248252
3448254050
3448258994
3448264976
3448270103
3448275413
3448282371
3448286643
3448293662
3448298728
3448304587
3448309775
3448314170
3448322104
3448328940
3448334739
3448339560
3448345176
3448352683
3448357322
3448364890
3448371848
3448376487
3448383017
3448389426
3448395713
3448401145
3448406821
3448412802
3448417746
3448423972
3448430136
3448436179
3448443991
3448448813
3448454917
3448461020
3448466879
3448471762
3448478354
3448486166
3448493430
3448499594
3448505209
3448509482
3448515341
3448522726
3448527792
3448534445
3448538657
3448544516
3448551108
3448556845
3448562094
3448567221
3448573508
3448579306
3448585165
3448590109
3448595236
3448602682
3448609152
3448614218
3448620627
3448626059
3448632101
3448639853
3448644552
3448651144
3448656149
3448662069
3448669088
3448674765
3448680380
3448686300
3448692099
3448699362
3448703878
3448710958
3448716329
3448723287
3448728170
3448734091
3448739889
3448744345
3448750021
3448755148
3448763021
3448768881
3448774984
3448780538
3448784506
3448790304
3448796713
3448801534
3448808797
3448815389
3448820943
3448827047
3448832784
3448838155
3448842611
3448849447
3448855917
3448860311
3448867452
3448872213
3448878622
3448884786
3448890401
3448897054
3448902547
3448907857
3448912435
3448920614
3448926290
3448930867
3448937276
3448942647
3448948873
3448954976
3448961812
3448966634
3448973165
3448979390
3448985433
3448990682
3448997823
3449003499
3449009114
3449015584
3449020162
3449025960
3449031514
3449036824
3449041158
3449049458
3449054219
3449059224
3449065206
3449069478
3449074849
3449081319
3449087666
3449093099
3449099141
3449104146
3449109883
3449114583
3449121724
3449126485
3449133382
3449138936
3449143147
3449148885
3449156575
3449161580
3449168294
3449172993
3449179097
3449183735
3449191121
3449196370
3449201558
3449207600
3449213765
3449217976
3449224629
3449228718
3449235981
3449241780
3449247212
3449252705
3449258564
3449264668
3449270955
3449276509
3449282002
3449287556
3449294087
3449298847
3449305805
3449310505
3449318196
3449324116
3449329304
3449335346
3449340351
3449347553
3449353047
3449358601
3449364765
3449371662
3449376667
3449381672
3449387043
3449392780
3449398457
3449405537
3449411213
3449415730
3449423542
3449428852
3449435261
3449441181
3449447285
3449453083
3449457477
3449464313
3449469074
3449475788
3449483295
3449489887
3449494709
3449499470
3449506244
3449511310
3449518940
3449524433
3449529682
3449535846
3449540424
3449545185
3449551899
3449558368
3449563984
3449569660
3449574726
3449579914
3449584735
3449591388
3449597309
3449604694
3449610736
3449616718
3449623187
3449629291
3449635150
3449641559
3449647357
3449653827
3449658222
3449663349
3449669574
3449677020
3449682636
3449688495
3449693012
3449699298
3449706195
3449710712
3449717303
3449722675
3449729083
3449734149
3449739886
3449745257
3449750506
3449756000
3449762591
3449768634
3449774676
3449779803
3449786334
3449790301
3449797381
3449804095
3449809527
3449815265
3449819964
3449826800
3449831744
3449838885
3449843890
3449849627
3449856402
3449862811
3449869891
3449876178
3449882708
3449888018
3449892840
3449898638
3449904132
3449910418
3449916522
3449924212
3449928729
3449934039
3449939959
3449945452
3449951434
3449957171
3449961810
3449968462
3449973956
3449979937
3449985552
3449992327
3449997698
3450003619
3450008807
3450014422
3450020281
3450024798
3450030413
3450036455
3450040423
3450047381
3450052630
3450058611
3450063311
3450069048
3450074663
3450081194
3450086687
3450091997
3450096880
3450101641
3450108355
3450113848
3450120073
3450125322
3450130694
3450137102
3450142534
3450147478
3450153582
3450158648
3450165056
3450171343
3450176409
3450182329
3450188005
3450194780
3450199602
3450206011
3450211382
3450216875
3450221697
3450227800
3450233293
3450240373
3450246294
3450251787
3450255754
3450262773
3450267412
3450274614
3450279192
3450286333
3450291216
3450296648
3450303117
3450308550
3450314104
3450320512
3450325273
3450330156
3450336259
3450341814
3450348039
3450353899
3450360918
3450367692
3450373613
3450377458
3450383012
3450388872
3450394365
3450399797
3450405778
3450410966
3450415971
3450423234
3450429094
3450435930
3450441789
3450447526
3450452714
3450457780
3450462968
3450469011
3450474687
3450481584
3450488237
3450493852
3450499467
3450505326
3450510514
3450516069
3450521684
3450527970
3450532121
3450538590
3450543351
3450549149
3450555070
3450561540
3450567033
3450572831
3450577836
3450582353
3450588212
3450593339
3450601151
3450607804
3450611893
3450618424
3450623246
3450629410
3450635209
3450640397
3450646378
3450651932
3450657609
3450663346
3450669266
3450675797
3450680558
3450686173
3450693497
3450698685
3450703507
3450709488
3450716263
3450722306
3450728104
3450734024
3450739457
3450745255
3450750748
3450757523
3450763443
3450769242
3450774857
3450780594
3450786209
3450792008
3450797745
3450804764
3450809647
3450815567
3450821488
3450827347
3450832657
3450838150
3450844254
3450850662
3450857193
3450862442
3450868668
3450875870
3450881790
3450887100
3450893204
3450899429
3450905106
3450909256
3450917496
3450923660
3450928665
3450934280
3450940872
3450944961
3450952408
3450958572
3450963821
3450968948
3450974991
3450982132
3450988113
3450993728
3450999832
3451005691
3451011123
3451017715
3451022659
3451028213
3451034744
3451039138
3451046646
3451051406
3451057205
3451063125
3451069412
3451076431
3451081314
3451087905
3451093521
3451097305
3451103103
3451109024
3451115310
3451121353
3451126235
3451134353
3451139053
3451145278
3451151260
3451156326
3451163406
3451168227
3451173171
3451179214
3451184341
3451191604
3451196853
3451202224
3451207595
3451213821
3451218459
3451224197
3451231643
3451237136
3451242507
3451249465
3451253738
3451259902
3451265029
3451271438
3451278152
3451283278
3451288100
3451292983
3451298964
3451304519
3451309951
3451316909
3451322463
3451327529
3451332473
3451337478
3451343459
3451350356
3451357253
3451363173
3451368605
3451374404
3451379409
3451385817
3451392165
3451398207
3451404250
3451410109
3451415846
3451419875
3451425795
3451433302
3451438551
3451443862
3451450209
3451455397
3451461012
3451464674
3451471693
3451477797
3451484084
3451489150
3451494399
3451500136
3451508070
3451512709
3451519301
3451524245
3451529921
3451536391
3451540785
3451547560
3451554091
3451558668
3451563490
3451569105
3451575758
3451581312
3451586622
3451593397
3451598890
3451604994
3451609755
3451616224
3451620497
3451626906
3451632765
3451639784
3451646070
3451652113
3451657728
3451662733
3451670851
3451675672
3451680616
3451686842
3451691542
3451697462
3451702894
3451708937
3451715772
3451720899
3451727186
3451731642
3451737684
3451743299
3451748121
3451755262
3451760572
3451767103
3451772108
3451778272
3451784803
3451790479
3451795850
3451801282
3451807691
3451813551
3451819898
3451825452
3451831373
3451837598
3451843030
3451849317
3451854505
3451860670
3451866468
3451874891
3451880323
3451886793
3451892591
3451898755
3451905469
3451910840
3451918165
3451923047
3451928602
3451932813
3451938550
3451944654
3451951551
3451957349
3451961805
3451968274
3451973951
3451979932
3451984143
3451992078
3451998059
3452003614
3452009107
3452014356
3452019055
3452027539
3452032300
3452039014
3452044934
3452049451
3452056897
3452062695
3452069226
3452075330
3452080823
3452087903
3452093945
3452099255
3452104749
3452111340
3452117383
3452123608
3452130078
3452135327
3452139966
3452145154
3452152966
3452158398
3452163952
3452168896
3452173474
3452180188
3452184826
3452191601
3452198498
3452203808
3452208630
3452214245
3452219006
3452223584
3452230786
3452236645
3452242199
3452248608
3452252697
3452258984
3452264416
3452271191
3452275891
3452282177
3452289135
3452295910
3452302258
3452307629
3452315319
3452321301
3452326977
3452330700
3452337658
3452342907
3452349438
3452355053
3452361279
3452367504
3452373241
3452379467
3452385204
3452390636
3452397350
3452402904
3452409374
3452414684
3452419872
3452425121
3452432201
3452438305
3452444469
3452449291
3452454235
3452460277
3452465710
3452472240
3452479015
3452483532
3452489208
3452494579
3452500866
3452508373
3452513378
3452519237
3452525951
3452530956
3452536327
3452541210
3452547618
3452553600
3452559520
3452564952
3452570018
3452575023
3452581249
3452586315
3452591930
3452597545
3452604686
3452609203
3452615489
3452620189
3452625560
3452632274
3452636791
3452642894
3452648326
3452654125
3452659618
3452665416
3452672252
3452676585
3452683910
3452688915
3452694957
3452700023
3452707774
3452714366
3452720225
3452726268
3452731700
3452735728
3452743236
3452749766
3452754466
3452761485
3452765391
3452773021
3452777476
3452784739
3452789805
3452795848
3452802440
3452805308
3452813670
3452818431
3452824962
3452831981
3452837718
3452846202
3452852793
3452859202
3452865611
3452870921
3452876536
3452883616
3452889109
3452895152
3452899363
3452906321
3452912730
3452918467
3452924632
3452929270
3452935008
3452942820
3452949168
3452954234
3452959910
3452965952
3452973032
3452978953
3452984812
3452990366
3452995982
3453001536
3453007334
3453012705
3453018748
3453024241
3453031321
3453036753
3453043162
3453049021
3453054209
3453060801
3453066721
3453073313
3453078379
3453085215
3453089304
3453095408
3453101999
3453107859
3453112619
3453119272
3453125620
3453130991
3453136789
3453142527
3453148996
3453154062
3453158884
3453164682
3453170420
3453176340
3453182688
3453187693
3453194223
3453200205
3453204782
3453210764
3453214670
3453220285
3453227365
3453233164
3453238779
3453243662
3453249826
3453254526
3453259409
3453265634
3453272592
3453279123
3453284067
3453288889
3453295236
3453299875
3453306222
3453312509
3453318491
3453323923
3453329355
3453335702
3453341806
3453347787
3453355295
3453360849
3453366952
3453372201
3453379587
3453385202
3453390390
3453396371
3453401864
3453407602
3453414010
3453420114
3453425729
3453431955
3453437631
3453443368
3453449655
3453454477
3453462106
3453467965
3453474130
3453480355
3453486825
3453493661
3453497689
3453505197
3453511727
3453516854
3453522164
3453527780
3453533395
3453539559
3453544747
3453550179
3453556283
3453561593
3453567208
3453574044
3453578561
3453585641
3453590951
3453597482
3453602120
3453607674
3453613045
3453618783
3453624520
3453630318
3453635201
3453640328
3453646798
3453650948
3453657296
3453661934
3453668831
3453674019
3453680001
3453685311
3453690621
3453696663
3453700997
3453707589
3453713570
3453719185
3453725655
3453731148
3453737008
3453742440
3453748726
3453754586
3453760628
3453766182
3453772042
3453776497
3453782479
3453789437
3453795357
3453800850
3453806648
3453812874
3453819039
3453825813
3453832894
3453838448
3453843697
3453849739
3453855171
3453861153
3453867012
3453872566
3453879219
3453884895
3453890572
3453895454
3453901375
3453906990
3453913155
3453919380
3453925056
3453930061
3453936348
3453940620
3453948433
3453953438
3453960029
3453965950
3453971992
3453977424
3453982612
3453989753
3453994697
3454000679
3454007209
3454012031
3454018623
3454024421
3454031318
3454036689
3454042671
3454048896
3454053718
3454060493
3454066108
3454072761
3454078620
3454083503
3454089607
3454096260
3454100837
3454107124
3454112312
3454118293
3454123725
3454129279
3454135627
3454140998
3454147712
3454152961
3454159248
3454164130
3454170417
3454176093
3454182746
3454189277
3454194831
3454200263
3454206794
3454211494
3454217292
3454223273
3454229804
3454236518
3454242011
3454247687
3454252936
3454258368
3454263862
3454269050
3454274787
3454279670
3454285956
3454291083
3454297492
3454302314
3454309943
3454315986
3454322394
3454327277
3454333625
3454338935
3454346076
3454351935
3454357856
3454363471
3454368354
3454373725
3454379218
3454384955
3454391547
3454397528
3454401435
3454408087
3454414374
3454420416
3454426337
3454432684
3454438727
3454444159
3454449042
3454455084
3454462103
3454469428
3454474188
3454480597
3454486334
3454491827
3454497748
3454505072
3454510016
3454515875
3454521612
3454527411
3454532110
3454539374
3454544562
3454550238
3454555487
3454561712
3454567816
3454573248
3454579168
3454585638
3454591986
3454598089
3454601996
3454608526
3454612860
3454619940
3454625616
3454631598
3454636908
3454642279
3454649176
3454653570
3454660345
3454666265
3454672491
3454676824
3454682684
3454688665
3454694708
3454700018
3454704901
3454711309
3454716802
3454721014
3454728033
3454732855
3454739996
3454746282
3454751714
3454756841
3454762457
3454767828
3454774114
3454779913
3454786138
3454792364
3454797124
3454802984
3454808172
3454813177
3454819768
3454824712
3454830633
3454837041
3454842962
3454849492
3454855718
3454861272
3454865972
3454871526
3454878789
3454884343
3454889043
3454895147
3454901433
3454906377
3454912236
3454918462
3454924566
3454930242
3454935125
3454943853
3454949041
3454955144
3454961187
3454966558
3454972356
3454979680
3454984197
3454990361
3454997136
3455002751
3455008550
3455016789
3455021916
3455028935
3455034184
3455040227
3455045659
3455050542
3455056523
3455062444
3455069402
3455090886
3455096806
3455102849
3455108769
3455112981
3455118474
3455125310
3455130742
3455136296
3455140813
3455146977
3455151921
3455157414
3455163273
3455169621
3455174565
3455181035
3455185246
3455190739
3455195744
3455203495
3455208500
3455213322
3455219181
3455225163
3455229130
3455235295
3455241459
3455248173
3455252751
3455258671
3455263371
3455268803
3455274235
3455281498
3455288578
3455293522
3455299320
3455304691
3455310978
3455316532
3455322697
3455328556
3455334477
3455340153
3455345280
3455350346
3455356632
3455361576
3455367741
3455373295
3455379581
3455384586
3455390507
3455396854
3455403385
3455408390
3455413334
3455418888
3455424808
3455429447
3455437992
3455443973
3455448856
3455455814
3455461063
3455466678
3455470707
3455477115
3455484134
3455489872
3455496402
3455500370
3455506351
3455511478
3455518009
3455523624
3455529911
3455536319
3455541019
3455547428
3455553043
3455560001
3455565921
3455571842
3455577884
3455582584
3455588199
3455594119
3455601505
3455607364
3455612491
3455618656
3455623355
3455629215
3455635318
3455640445
3455647830
3455653873
3455658389
3455663394
3455670413
3455676151
3455681583
3455688235
3455692630
3455698245
3455703738
3455710208
3455715396
3455721805
3455728946
3455734500
3455739993
3455744754
3455750613
3455758365
3455764102
3455770755
3455775638
3455782046
3455787967
3455792788
3455798953
3455805423
3455811099
3455816104
3455823489
3455828921
3455836856
3455841616
3455847964
3455853945
3455857852
3455863955
3455867800
3455875796
3455881899
3455886782
3455893862
3455899844
3455905215
3455910220
3455917910
3455923464
3455930727
3455935977
3455943606
3455948367
3455954958
3455961306
3455966311
3455972842
3455978640
3455983340
3455990725
3455996523
3456003054
3456009768
3456015322
3456020449
3456027956
3456032900
3456039004
3456045168
3456051516
3456057314
3456062746
3456067995
3456073855
3456080874
3456087099
3456094179
3456098940
3456104067
3456109560
3456114199
3456122133
3456127321
3456133303
3456138857
3456142397
3456148622
3456154848
3456160524
3456165590
3456171022
3456177309
3456182314
3456187807
3456193361
3456200624
3456205995
3456212038
3456217958
3456223329
3456227480
3456233278
3456240297
3456245668
3456251588
3456256349
3456262758
3456267946
3456274049
3456280336
3456286195
3456291994
3456298280
3456303285
3456309144
3456313478
3456320985
3456326539
3456332704
3456337709
3456343202
3456349000
3456354860
3456362489
3456368226
3456374025
3456379396
3456384095
3456389955
3456394593
3456402284
3456407472
3456412904
3456418153
3456424379
3456428895
3456434022
3456439820
3456447389
3456451783
3456458619
3456464967
3456471314
3456477052
3456481446
3456488099
3456494203
3456498170
3456505067
3456510133
3456515321
3456520936
3456527039
3456532105
3456538209
3456542970
3456548524
3456554444
3456561402
3456566041
3456573060
3456578370
3456583680
3456588990
3456594849
3456601136
3456606446
3456612366
3456617921
3456624634
3456628968
3456636902
3456641419
3456645264
3456649781
3456654358
3456658265
3456662659
3456667420
3456671021
3456675293
3456680481
3456685181
3456689576
3456693787
3456698243
3456703186
3456706726
3456711731
3456715577
3456719422
3456724060
3456728211
3456731629
3456735779
3456741883
3456750977
3456754578
3456760803
3456765442
3456771668
3456776673
3456783692
3456789795
3456794373
3456799805
3456804810
3456810059
3456814087
3456819031
3456824707
3456828980
3456834961
3456841248
3456846008
3456850830
3456855164
3456860291
3456865906
3456871094
3456875854
3456881348
3456886536
3456892029
3456897400
3456903015
3456907104
3456910766
3456914917
3456919739
3456923889
3456931152
3456935608
3456941467
3456945129
3456950500
3456955932
3456961975
3456967895
3456972717
3456976684
3456981445
3456986206
3456991272
3456994995
3457000854
3457006469
3457010986
3457015075
3457018859
3457023132
3457028930
3457033142
3457037170
3457042907
3457047058
3457052063
3457057189
3457060852
3457066162
3457071105
3457074401
3457079711
3457084289
3457088806
3457092468
3457098266
3457104003
3457108581
3457113098
3457117370
3457122009
3457125976
3457130431
3457135375
3457139587
3457143249
3457148681
3457154174
3457157592
3457162780
3457167968
3457172240
3457176635
3457181579
3457185607
3457191894
3457197509
3457201842
3457206847
3457211364
3457217223
3457222350
3457227965
3457231505
3457235534
3457239806
3457245238
3457250915
3457254699
3457258910
3457264647
3457269225
3457274718
3457279967
3457284911
3457293395
3457297606
3457302672
3457307616
3457311583
3457317321
3457321288
3457326781
3457331542
3457336303
3457340148
3457344237
3457349913
3457355529
3457359313
3457365050
3457369322
3457374938
3457381652
3457387084
3457391356
3457395262
3457400817
3457406432
3457411559
3457416869
3457421996
3457426451
3457432005
3457437010
3457442625
3457448058
3457452757
3457457823
3457462157
3457466124
3457471739
3457476134
3457481749
3457487364
3457492857
3457497862
3457503416
3457508848
3457514647
3457521361
3457526976
3457531309
3457536314
3457540281
3457545164
3457549803
3457553709
3457559324
3457563475
3457569151
3457573485
3457578734
3457583311
3457587156
3457591063
3457596556
3457600645
3457606993
3457611204
3457619627
3457625059
3457629454
3457634336
3457639463
3457645140
3457655210
3457660398
3457664915
3457673338
3457678343
3457682615
3457687803
3457692442
3457697813
3457703184
3457708372
3457711424
3457719175
3457723753
3457730100
3457735166
3457740904
3457748045
3457753416
3457758360
3457762815
3457768308
3457774595
3457778928
3457784238
3457790464
3457795957
3457801450
3457806333
3457811338
3457815855
3457820981
3457825864
3457830930
3457837339
3457842710
3457846982
3457853574
3457857541
3457862180
3457868711
3457874936
3457879514
3457886106
3457890683
3457896543
3457901548
3457907529
3457913022
3457918576
3457923947
3457928830
3457934384
3457939878
3457946347
3457951657
3457957395
3457963498
3457969419
3457973813
3457979550
3457985227
3457990842
3457995236
3458000852
3458007749
3458012570
3458019284
3458024472
3458029538
3458034421
3458040585
3458045346
3458051999
3458056821
3458064206
3458067624
3458074155
3458079709
3458084286
3458089963
3458096188
3458100705
3458109860
3458115475
3458119748
3458126279
3458130246
3458135434
3458142331
3458148739
3458157345
3458163388
3458170895
3458177792
3458184384
3458190976
3458197079
3458202938
3458207821
3458212643
3458218502
3458223507
3458228451
3458236080
3458240353
3458247372
3458251950
3458257443
3458262326
3458267086
3458271786
3458277035
3458281979
3458289669
3458296383
3458302120
3458307552
3458312863
3458317989
3458325070
3458330135
3458334408
3458340694
3458346615
3458351254
3458355648
3458361141
3458368771
3458373653
3458378963
3458383541
3458387813
3458393795
3458398556
3458404049
3458409359
3458415645
3458420833
3458426327
3458432674
3458437008
3458441402
3458448116
3458452694
3458459835
3458464229
3458470943
3458475521
3458480709
3458485775
3458491817
3458498104
3458505306
3458511348
3458515926
3458521541
3458526485
3458531978
3458537960
3458543636
3458549129
3458555294
3458561092
3458565242
3458571651
3458575313
3458581905
3458586849
3458592220
3458597896
3458604976
3458611385
3458617000
3458625362
3458630977
3458637325
3458645381
3458652644
3458658565
3458664912
3458670345
3458676448
3458682674
3458689632
3458696284
3458704158
3458709651
3458713923
3458719661
3458725032
3458731318
3458734492
3458743464
3458749507
3458756465
3458761104
3458767268
3458771541
3458776484
3458783137
3458788936
3458794246
3458800410
3458805598
3458810847
3458816706
3458821101
3458826716
3458832453
3458838130
3458844721
3458850825
3458856867
3458861201
3458865718
3458872431
3458877070
3458885676
3458891108
3458897334
3458904414
3458911067
3458916804
3458922663
3458928217
3458934138
3458940302
3458946345
3458951350
3458957209
3458961542
3458968012
3458972529
3458977167
3458984064
3458989252
3458997126
3459002070
3459007136
3459011408
3459018305
3459022700
3459028559
3459033747
3459041376
3459045160
3459052057
3459056513
3459062189
3459067438
3459072870
3459077753
3459085993
3459091181
3459095392
3459101191
3459106989
3459111750
3459119013
3459125055
3459130793
3459137567
3459141779
3459148249
3459153742
3459158686
3459162653
3459168451
3459174372
3459180536
3459183527
3459191767
3459197748
3459203851
3459210626
3459216974
3459223138
3459228937
3459232660
3459240167
3459247186
3459251398
3459255792
3459262750
3459270502
3459277948
3459283319
3459288568
3459293817
3459299921
3459303827
3459310296
3459316827
3459322320
3459330011
3459334772
3459341424
3459347467
3459352289
3459358148
3459364129
3459369745
3459375360
3459380426
3459386163
3459391229
3459395623
3459402581
3459409600
3459415643
3459420953
3459425225
3459429620
3459436456
3459440728
3459447076
3459453118
3459462274
3459468743
3459475274
3459481561
3459487603
3459492974
3459499261
3459505364
3459511529
3459517083
3459522576
3459527825
3459533257
3459539056
3459543267
3459550774
3459556634
3459559441
3459566582
3459570916
3459577386
3459581780
3459587762
3459595391
3459599419
3459605889
3459612359
3459617669
3459625847
3459630974
3459638726
3459643731
3459649590
3459655327
3459660637
3459665093
3459671685
3459676262
3459682732
3459689080
3459697075
3459701653
3459706353
3459713921
3459719353
3459724358
3459728630
3459734734
3459740410
3459746697
3459751335
3459756890
3459762993
3459768608
3459773003
3459778618
3459784172
3459791374
3459797661
3459803764
3459808525
3459813713
3459817864
3459824211
3459831108
3459836662
3459841057
3459847221
3459852226
3459856560
3459861687
3459868034
3459875847
3459882622
3459886345
3459892387
3459895866
3459904106
3459908012
3459914482
3459921318
3459927116
3459932304
3459938774
3459944633
3459950309
3459955864
3459959221
3459966179
3459972038
3459976371
3459983390
3459988456
3459994072
3459999199
3460003776
3460010124
3460015922
3460021904
3460026664
3460033927
3460038139
3460043693
3460049064
3460056388
3460065788
3460071037
3460077506
3460082878
3460087394
3460093376
3460097892
3460103019
3460110282
3460115470
3460122489
3460128593
3460133109
3460139030
3460144096
3460148551
3460154594
3460161552
3460167106
3460171439
3460177055
3460182609
3460188224
3460192802
3460198478
3460204398
3460211844
3460216727
3460225150
3460237845
3460244925
3460248771
3460256217
3460262809
3460268729
3460274100
3460278434
3460285392
3460290091
3460296988
3460303458
3460309561
3460314200
3460319937
3460324210
3460330619
3460336417
3460341117
3460347891
3460351798
3460358756
3460363272
3460369986
3460376944
3460382437
3460388724
3460393973
3460400504
3460405142
3460413199
3460418204
3460423880
3460429129
3460434866
3460440604
3460447256
3460453543
3460459097
3460464468
3460470389
3460475333
3460481192
3460486990
3460494498
3460502127
3460508169
3460513846
3460519095
3460523062
3460531058
3460536978
3460541617
3460546499
3460551016
3460555960
3460560965
3460566580
3460572134
3460578665
3460583365
3460587942
3460592276
3460597342
3460602529
3460607717
3460613638
3460620108
3460627859
3460632742
3460638784
3460643728
3460649221
3460655569
3460660513
3460665273
3460671926
3460676382
3460681082
3460686147
3460691702
3460696951
3460702505
3460707388
3460712454
3460718313
3460723379
3460727590
3460732717
3460738577
3460744558
3460749258
3460754385
3460758413
3460764211
3460770071
3460775259
3460778799
3460787099
3460791250
3460797536
3460801992
3460807790
3460812856
3460819814
3460826040
3460831228
3460837575
3460840932
3460849599
3460854360
3460860097
3460865407
3460870961
3460875661
3460883168
3460887990
3460893483
3460898061
3460902455
3460909108
3460913930
3460921804
3460926015
3460933278
3460938893
3460943227
3460950185
3460955922
3460961537
3460966542
3460973500
3460978200
3460983754
3460989125
3460993215
3461000539
3461005483
3461011830
3461017934
3461024220
3461029164
3461034718
3461040761
3461044911
3461051625
3461057973
3461063283
3461070241
3461074513
3461081715
3461086049
3461091786
3461097035
3461102955
3461108449
3461114613
3461120167
3461125844
3461132008
3461138600
3461144459
3461149952
3461156117
3461161915
3461167408
3461172841
3461180104
3461184559
3461191761
3461198597
3461205067
3461210743
3461217274
3461221669
3461227589
3461233326
3461237599
3461243519
3461249256
3461254444
3461260792
3461266590
3461270802
3461275929
3461281971
3461286793
3461291920
3461297169
3461302296
3461308277
3461312977
3461316944
3461322132
3461327198
3461332630
3461342030
3461347462
3461352161
3461357655
3461363514
3461367786
3461374012
3461379505
3461385486
3461390186
3461394581
3461401234
3461406971
3461410877
3461417408
3461423023
3461428455
3461433765
3461440845
3461445911
3461451099
3461455555
3461461170
3461467762
3461472095
3461479114
3461483936
3461490467
3461494495
3461500476
3461506214
3461510852
3461516162
3461522388
3461528430
3461535572
3461540393
3461545642
3461551013
3461556140
3461560962
3461566821
3461575305
3461581470
3461586780
3461592029
3461598560
3461602832
3461608875
3461614368
3461618945
3461625720
3461632556
3461638538
3461645068
3461651477
3461655749
3461661853
3461667468
3461674304
3461680469
3461685962
3461690295
3461695910
3461700976
3461706286
3461711841
3461718860
3461724170
3461729968
3461735034
3461739489
3461745166
3461751086
3461757068
3461763842
3461771167
3461776294
3461783496
3461790210
3461796252
3461800463
3461806201
3461812121
3461817736
3461822985
3461828784
3461833544
3461839221
3461844592
3461850268
3461857165
3461863024
3461868701
3461874316
3461879626
3461885058
3461889636
3461894579
3461900927
3461906420
3461913500
3461918566
3461923571
3461929430
3461934496
3461938769
3461944323
3461950915
3461956835
3461962878
3461967089
3461973620
3461977709
3461983935
3461990343
3461995348
3462001818
3462006273
3462013537
3462018847
3462026842
3462031786
3462038683
3462044237
3462052111
3462056871
3462062548
3462070543
3462076220
3462082384
3462086412
3462094835
3462101488
3462107103
3462111315
3462116808
3462122057
3462128099
3462132555
3462137010
3462143968
3462149889
3462156236
3462162340
3462168077
3462176317
3462181261
3462188890
3462194078
3462200792
3462205614
3462212572
3462219225
3462223680
3462229234
3462237596
3462244371
3462251207
3462257494
3462263536
3462268480
3462272874
3462278612
3462284410
3462290208
3462297777
3462303941
3462308702
3462316331
3462322740
3462328233
3462331224
3462337938
3462344102
3462351365
3462355882
3462361741
3462367540
3462371568
3462378526
3462384996
3462391709
3462396958
3462405015
3462410447
3462415696
3462421311
3462426499
3462432542
3462438157
3462445481
3462451402
3462456834
3462461961
3462466722
3462472276
3462477952
3462483811
3462489243
3462495408
3462500962
3462506516
3462511765
3462517381
3462522019
3462527940
3462533860
3462539964
3462546189
3462549729
3462556260
3462561631
3462566636
3462572007
3462577744
3462584702
3462590012
3462595322
3462600754
3462605637
3462611130
3462617417
3462622910
3462629563
3462635788
3462641953
3462648667
3462654526
3462660508
3462663620
3462671128
3462678940
3462684922
3462690659
3462694931
3462700241
3462707321
3462712265
3462718247
3462723984
3462731064
3462736191
3462742844
3462748337
3462753952
3462760178
3462765793
3462771835
3462776596
3462787094
3462791611
3462798935
3462803879
3462810837
3462817246
3462824020
3462829758
3462835861
3462840988
3462845322
3462853378
3462859299
3462864120
3462870529
3462874740
3462881393
3462885849
3462891281
3462896164
3462904587
3462910202
3462915512
3462920517
3462925827
3462930465
3462935531
3462942550
3462951523
3462958236
3462965622
3462970504
3462975204
3462982589
3462988510
3462994064
3462999923
3463004501
3463010910
3463015609
3463020675
3463026962
3463032760
3463038497
3463043868
3463049972
3463054489
3463059982
3463065475
3463072677
3463078048
3463083297
3463089095
3463095687
3463100204
3463105087
3463110702
3463116927
3463122482
3463129867
3463135055
3463140487
3463145797
3463152328
3463159713
3463165023
3463171004
3463174789
3463180892
3463185958
3463192611
3463197860
3463203231
3463207992
3463214095
3463218734
3463223739
3463230330
3463236983
3463241622
3463247786
3463252303
3463258712
3463264510
3463269149
3463276290
3463282332
3463288069
3463293990
3463299483
3463303206
3463311629
3463317061
3463322982
3463328902
3463333663
3463340132
3463346785
3463353255
3463359541
3463365279
3463371932
3463375777
3463382124
3463388045
3463393599
3463399031
3463405074
3463410567
3463417281
3463422957
3463428023
3463434004
3463439070
3463445052
3463450667
3463456038
3463461836
3463467757
3463473860
3463481306
3463487349
3463493330
3463500410
3463505293
3463511336
3463516646
3463521711
3463527815
3463532942
3463535750
3463542769
3463548323
3463553206
3463558088
3463563398
3463568647
3463574263
3463579329
3463584578
3463590376
3463595198
3463600141
3463605329
3463611250
3463616072
3463622114
3463626020
3463631208
3463635420
3463640486
3463646589
3463651655
3463657392
3463663008
3463668562
3463673994
3463679243
3463685041
3463690168
3463696516
3463700849
3463705915
3463710859
3463716413
3463723371
3463728620
3463732893
3463738081
3463741804
3463748334
3463755659
3463760480
3463765607
3463771284
3463776716
3463780927
3463785688
3463793439
3463799177
3463804670
3463808759
3463814802
3463820783
3463825055
3463831647
3463836713
3463842206
3463848127
3463853498
3463858564
3463864484
3463871076
3463876813
3463882184
3463887128
3463893109
3463897992
3463903791
3463909223
3463915814
3463922895
3463927838
3463934186
3463939069
3463943402
3463950971
3463956220
3463963727
3463970136
3463976239
3463982892
3463988934
3463993756
3464000165
3464004193
3464010785
3464015546
3464021832
3464025494
3464033490
3464038007
3464044232
3464049481
3464055829
3464061078
3464065777
3464071393
3464077618
3464084454
3464089703
3464094281
3464099774
3464104291
3464109723
3464115765
3464121563
3464127240
3464132550
3464137616
3464142987
3464150433
3464158368
3464162762
3464169415
3464174481
3464179669
3464185772
3464191754
3464197369
3464204144
3464210491
3464215985
3464221112
3464227642
3464234539
3464241375
3464245831
3464252850
3464256878
3464263043
3464267681
3464273174
3464278057
3464285259
3464289837
3464295269
3464300884
3464305706
3464311871
3464318523
3464324322
3464330914
3464336346
3464341228
3464346600
3464352825
3464359966
3464369549
3464374248
3464379375
3464385601
3464390667
3464395244
3464400921
3464407818
3464413067
3464417461
3464424541
3464428814
3464435955
3464442363
3464446514
3464454326
3464460003
3464464702
3464470562
3464475811
3464481426
3464485820
3464491436
3464498699
3464505168
3464511272
3464518901
3464523357
3464528728
3464535381
3464539287
3464546794
3464552043
3464558818
3464562297
3464569255
3464573406
3464578899
3464584026
3464591228
3464595500
3464604167
3464608989
3464614726
3464621379
3464626567
3464630962
3464636638
3464642985
3464649150
3464654643
3464660319
3464663310
3464670024
3464674357
3464680705
3464685344
3464691508
3464697001
3464702128
3464706401
3464714641
3464718974
3464725566
3464730876
3464737285
3464742473
3464748332
3464752848
3464759562
3464764018
3464770732
3464775615
3464782145
3464788920
3464793437
3464800090
3464804179
3464810710
3464815898
3464821574
3464826274
3464834086
3464837870
3464844950
3464849467
3464855021
3464859599
3464865092
3464871501
3464877299
3464882304
3464888041
3464893046
3464898905
3464904765
3464909586
3464915079
3464920573
3464927775
3464933695
3464939921
3464944804
3464950968
3464957072
3464963114
3464969828
3464975565
3464980936
3464985087
3464991495
3464996866
3465001444
3465006266
3465013590
3465018717
3465025797
3465030436
3465035502
3465041300
3465046305
3465050882
3465056559
3465062967
3465069315
3465074015
3465080545
3465086222
3465091898
3465097452
3465104288
3465109049
3465117472
3465122293
3465126932
3465133524
3465138834
3465143839
3465148783
3465154764
3465161539
3465167398
3465173197
3465177591
3465181986
3465188821
3465194559
3465198282
3465205057
3465211954
3465217264
3465223062
3465227396
3465233255
3465238199
3465243936
3465249368
3465254251
3465260232
3465263101
3465271829
3465276651
3465281289
3465287393
3465293069
3465299905
3465305826
3465310403
3465317422
3465324014
3465330545
3465337808
3465344766
3465348855
3465355752
3465360269
3465365945
3465370279
3465377053
3465383096
3465388589
3465395547
3465402627
3465407510
3465412637
3465419107
3465422586
3465429177
3465433389
3465439126
3465446206
3465451638
3465455666
3465461343
3465467629
3465473245
3465478433
3465484414
3465488870
3465496499
3465502969
3465508523
3465512795
3465517922
3465524392
3465530312
3465536965
3465542214
3465549966
3465554177
3465560708
3465564919
3465570595
3465575356
3465580910
3465587197
3465592995
3465599282
3465604409
3465608803
3465615883
3465620583
3465626870
3465633400
3465639138
3465643898
3465650185
3465656411
3465660256
3465666970
3465673012
3465679726
3465688088
3465696877
3465701149
3465707375
3465710854
3465717568
3465722878
3465729714
3465735695
3465741432
3465746193
3465752846
3465758461
3465763649
3465767677
3465773415
3465779762
3465785744
3465792030
3465797707
3465802834
3465806862
3465811378
3465818581
3465823524
3465830849
3465835731
3465840431
3465846718
3465852699
3465857948
3465863624
3465869667
3465875343
3465880836
3465886085
3465891701
3465897499
3465901527
3465908180
3465912330
3465920692
3465926552
3465931923
3465937416
3465942054
3465948463
3465952797
3465958412
3465964149
3465970314
3465976112
3465980018
3465987159
3465991127
3465996681
3466002540
3466008399
3466014198
3466020118
3466026527
3466030982
3466036598
3466041847
3466047401
3466053077
3466059242
3466065528
3466069740
3466075172
3466081825
3466087501
3466091834
3466097511
3466105811
3466111488
3466115455
3466123145
3466127296
3466133887
3466140601
3466145911
3466153297
3466158973
3466163856
3466169532
3466175147
3466181006
3466184302
3466190955
3466197791
3466205237
3466209693
3466215125
3466220923
3466226539
3466230994
3466236182
3466243384
3466249610
3466254676
3466263099
3466267737
3466273780
3466280616
3466286292
3466292212
3466297949
3466302832
3466309119
3466314124
3466319068
3466324561
3466330054
3466335181
3466343176
3466348059
3466353858
3466359717
3466364417
3466370337
3466375952
3466383032
3466387061
3466394202
3466399512
3466404578
3466408667
3466415503
3466420691
3466427222
3466432043
3466437048
3466443701
3466447607
3466453528
3466460242
3466466284
3466471167
3466478003
3466483191
3466487585
3466492712
3466498266
3466504919
3466510351
3466514685
3466520666
3466524878
3466531408
3466537695
3466542761
3466549841
3466554785
3466559179
3466565100
3466569860
3466576025
3466582189
3466588842
3466594152
3466599645
3466605993
3466612280
3466618139
3466626257
3466630834
3466636633
3466643530
3466650732
3466654760
3466661779
3466669225
3466675756
3466680578
3466685583
3466692114
3466697057
3466702856
3466707372
3466714269
3466719457
3466725194
3466731969
3466737157
3466742345
3466748022
3466754369
3466758947
3466764684
3466768529
3466773961
3466779638
3466787328
3466794164
3466799901
3466806005
3466811315
3466816747
3466821691
3466827123
3466834691
3466839818
3466845617
3466850805
3466856969
3466860997
3466866796
3466872167
3466879491
3466882604
3466889257
3466896520
3466902257
3466906529
3466912450
3466919286
3466923802
3466928685
3466935216
3466940404
3466946202
3466952062
3466956761
3466961766
3466968175
3466973424
3466979222
3466984166
3466988561
3466996739
3467003514
3467008824
3467014378
3467018651
3467025243
3467029820
3467035008
3467041234
3467047948
3467052159
3467058385
3467063450
3467067967
3467075352
3467080479
3467087376
3467092991
3467097996
3467103673
3467110142
3467115513
3467121434
3467126194
3467132847
3467138157
3467145481
3467149937
3467158665
3467164036
3467170689
3467176304
3467182530
3467189427
3467194554
3467199986
3467207737
3467213352
3467218113
3467223667
3467229283
3467234837
3467237766
3467244724
3467249485
3467257664
3467264439
3467270359
3467275547
3467281223
3467285618
3467290501
3467298618
3467304417
3467309055
3467314182
3467321812
