3063629547
3063639740
3063651275
3063662017
3063672454
3063683013
3063694122
3063704254
3063713653
3063723113
3063733489
3063743560
3063753936
3063765533
3063774444
3063786040
3063796233
3063805938
3063815398
3063826201
3063836883
3063847625
3063857696
3063868499
3063878386
3063887908
3063896697
3063907073
3063918608
3063928679
3063938323
3063948943
3063958342
3063968657
3063978789
3063990691
3064000578
3064011015
3064022246
3064031828
3064042021
3064053679
3064064604
3064074858
3064085417
3064095366
3064104826
3064115141
3064126372
3064137358
3064147490
3064158171
3064167997
3064177885
3064187956
3064198515
3064207792
3064219084
3064228422
3064238554
3064248197
3064257597
3064267607
3064278654
3064288359
3064298612
3064308927
3064318632
3064329435
3064338895
3064350553
3064360868
3064371122
3064382291
3064392362
3064402189
3064412565
3064422269
3064432767
3064443632
3064452787
3064463041
3064472501
3064483426
3064493009
3064503080
3064513944
3064523648
3064534146
3064544156
3064554227
3064564664
3064575528
3064586698
3064597562
3064607083
3064616727
3064627225
3064637113
3064646146
3064656277
3064667203
3064676968
3064687405
3064695889
3064706204
3064716763
3064727872
3064737637
3064747342
3064756558
3064767056
3064776394
3064787137
3064797268
3064808194
3064818509
3064828579
3064838711
3064848965
3064859463
3064869717
3064880398
3064891140
3064900662
3064911343
3064921291
3064932095
3064941738
3064952724
3064963039
3064971645
3064982998
3064993618
3065003078
3065013576
3065024013
3065034633
3065047634
3065326869
3065337916
3065351039
3065362330
3065372523
3065385157
3065395106
3065405848
3065415248
3065427821
3065438563
3065449061
3065460414
3065469508
3065480311
3065488185
3065498805
3065509791
3065517237
3065529749
3065539942
3065551905
3065561304
3065575770
3065585596
3065594813
3065606837
3065614893
3065626490
3065636255
3065647303
3065657496
3065665186
3065679712
3065688929
3065700647
3065710657
3065719751
3065732386
3065740076
3065753870
3065762964
3065772974
3065783594
3065792383
3065804285
3065814600
3065826502
3065838220
3065847681
3065858057
3065868433
3065878137
3065888330
3065899072
3065908533
3065919153
3065928125
3065939355
3065948877
3065959741
3065969201
3065979944
3065989404
3065999292
3066007959
3066018518
3066030358
3066041101
3066051232
3066061730
3066071679
3066080773
3066090600
3066101708
3066113244
3066125024
3066135033
3066144860
3066155480
3066165368
3066175622
3066188439
3066198754
3066208459
3066218163
3066228539
3066237755
3066249108
3066260155
3066271447
3066282067
3066291527
3066302330
3066311730
3066323571
3066334069
3066342797
3066354088
3066363793
3066374230
3066383934
3066393334
3066405602
3066416527
3066426842
3066436729
3066447044
3066458275
3066468407
3066479637
3066489159
3066499596
3066511314
3066523521
3066534324
3066546654
3066557762
3066566307
3066577842
3066589683
3066601646
3066612144
3066622520
3066633323
3066643089
3066655235
3066664390
3066676353
3066688438
3066698936
3066710105
3066720725
3066732078
3066742515
3066754173
3066765159
3066776939
3066789146
3066799216
3066812278
3066821921
3066831382
3066840720
3066850120
3066860862
3066869346
3066877951
3066886130
3066894858
3066903098
3066911277
3066920737
3066929404
3066937583
3066946494
3066954856
3066963034
3066972312
3066981955
3066990561
3067000327
3067009848
3067017722
3067027060
3067037314
3067046408
3067055136
3067065451
3067073447
3067082053
3067091452
3067100302
3067108664
3067117880
3067129294
3067137472
3067146200
3067155844
3067163168
3067173300
3067183554
3067192343
3067200705
3067209616
3067217245
3067226400
3067235006
3067243978
3067252340
3067261679
3067269857
3067278585
3067286154
3067294760
3067304281
3067313253
3067321798
3067330160
3067337728
3067346517
3067354147
3067363790
3067371358
3067379781
3067388875
3067396688
3067405599
3067413595
3067423299
3067430745
3067439901
3067448385
3067456624
3067464986
3067473287
3067481160
3067491536
3067499898
3067508504
3067516011
3067524617
3067533040
3067542256
3067550618
3067558980
3067567891
3067576009
3067584310
3067592854
3067601582
3067611104
3067618733
3067626729
3067635152
3067642720
3067650533
3067659199
3067668294
3067676717
3067685200
3067693196
3067701924
3067710042
3067717366
3067725178
3067733906
3067742756
3067749165
3067758626
3067767598
3067775593
3067784138
3067792866
3067800618
3067809040
3067817707
3067825581
3067833943
3067843281
3067851582
3067860066
3067868366
3067877155
3067885151
3067890705
3067902241
3067910542
3067918537
3067927631
3067935139
3067943623
3067952229
3067960407
3067968586
3067977131
3067986652
3067993793
3068003071
3068010578
3068020832
3068029438
3068037433
3068045246
3068054096
3068062885
3068068927
3068077411
3068087543
3068094318
3068103656
3068111103
3068118305
3068127399
3068136493
3068144123
3068153766
3068161151
3068167743
3068178729
3068185687
3068194721
3068202411
3068210834
3068217975
3068227741
3068235736
3068241962
3068253680
3068262164
3068270099
3068278461
3068286822
3068293475
3068302447
3068311542
3068319720
3068329669
3068337115
3068345904
3068353045
3068359881
3068371661
3068379657
3068389788
3068397174
3068405963
3068412677
3068421405
3068430072
3068436724
3068446734
3068453265
3068461993
3068469744
3068476641
3068486285
3068495013
3068502764
3068511492
3068520159
3068527178
3068536578
3068545061
3068553789
3068565508
3068571307
3068580096
3068589129
3068597979
3068605242
3068613116
3068622881
3068630694
3068639422
3068645220
3068654009
3068660845
3068669512
3068678789
3068688189
3068695635
3068701860
3068710894
3068720232
3068729204
3068739153
3068746233
3068755632
3068764299
3068771684
3068780290
3068787798
3068797319
3068807329
3068814958
3068824236
3068831987
3068840715
3068846452
3068856157
3068866350
3068874528
3068881425
3068889360
3068897722
3068903764
3068915300
3068921953
3068929948
3068937517
3068946916
3068953996
3068962053
3068971208
3068979570
3068987565
3068993730
3069002641
3069009416
3069017717
3069027543
3069034867
3069044511
3069051713
3069060319
3069067094
3069074723
3069082658
3069091691
3069098466
3069106278
3069113969
3069121842
3069129655
3069138139
3069146012
3069154435
3069162431
3069170243
3069178300
3069185807
3069193680
3069202042
3069210160
3069218278
3069226456
3069234879
3069243058
3069252213
3069260392
3069268937
3069277298
3069285294
3069294876
3069302018
3069311600
3069319351
3069328446
3069336319
3069343277
3069352188
3069360184
3069368546
3069376908
3069385086
3069392044
3069400040
3069408341
3069415970
3069425186
3069432755
3069441116
3069448929
3069457107
3069464065
3069471756
3069481827
3069490555
3069498062
3069506119
3069514419
3069522293
3069529007
3069539261
3069547134
3069554214
3069563247
3069570388
3069578262
3069586013
3069594009
3069602554
3069611587
3069620559
3069629043
3069636917
3069645339
3069654190
3069662002
3069670059
3069678359
3069686294
3069693313
3069701370
3069711746
3069720168
3069728591
3069737380
3069745925
3069753982
3069763259
3069771377
3069779861
3069787856
3069797195
3069805495
3069813674
3069819411
3069830092
3069839187
3069847121
3069854812
3069864699
3069870864
3069881240
3069889052
3069897658
3069905837
3069913771
3069920546
3069929640
3069938185
3069947402
3069955336
3069963454
3069970717
3069979567
3069988356
3069996291
3070005446
3070013380
3070021010
3070029005
3070036391
3070045119
3070053908
3070061110
3070068800
3070076735
3070084791
3070092604
3070101088
3070109877
3070118056
3070125136
3070133253
3070141005
3070149183
3070156691
3070166029
3070174757
3070182386
3070189161
3070197279
3070205763
3070211378
3070223158
3070231703
3070239210
3070247755
3070255140
3070261915
3070270582
3070278089
3070286939
3070295973
3070303663
3070311170
3070317884
3070327100
3070336500
3070346204
3070353040
3070364210
3070371595
3070381727
3070389966
3070399427
3070407667
3070416578
3070425672
3070434156
3070445386
3070452405
3070460889
3070469251
3070478955
3070487745
3070494580
3070504102
3070512403
3070519178
3070528943
3070537671
3070543836
3070552564
3070560437
3070569776
3070579541
3070586377
3070594861
3070602490
3070608838
3070615430
3070627148
3070635754
3070640576
3070650037
3070657178
3070664319
3070672375
3070682263
3070690198
3070698010
3070707165
3070714795
3070721631
3070730053
3070739819
3070748791
3070758130
3070766430
3070775952
3070783825
3070794506
3070799023
3070810925
3070818859
3070826428
3070836010
3070844799
3070853710
3070859997
3070870800
3070877087
3070886669
3070893444
3070902721
3070912243
3070918591
3070926769
3070935253
3070943005
3070950146
3070959667
3070966442
3070976574
3070985485
3070994213
3071002086
3071008007
3071018688
3071027416
3071035473
3071044445
3071053722
3071061290
3071070446
3071078319
3071086498
3071095958
3071103405
3071112133
3071120861
3071126842
3071137523
3071146007
3071155651
3071163036
3071172191
3071181285
3071187999
3071197826
3071203990
3071213573
3071221019
3071229747
3071238048
3071246654
3071254405
3071262706
3071272594
3071279918
3071289012
3071299144
3071305064
3071315013
3071321849
3071331187
3071338694
3071346751
3071354869
3071362864
3071370066
3071378856
3071386790
3071395457
3071403636
3071412608
3071421458
3071429026
3071438120
3071446665
3071455271
3071463267
3071474314
3071481883
3071490427
3071499094
3071508921
3071518320
3071526499
3071534190
3071542673
3071551157
3071558848
3071568857
3071576914
3071585093
3071593149
3071601755
3071610789
3071619455
3071628183
3071635691
3071644541
3071652170
3071660105
3071668222
3071676645
3071686167
3071693857
3071701425
3071710703
3071718149
3071726572
3071734995
3071743967
3071752451
3071761728
3071770578
3071779245
3071788034
3071796396
3071804758
3071812875
3071822092
3071831247
3071839365
3071847421
3071857004
3071865427
3071874093
3071882577
3071890024
3071898874
3071906564
3071915964
3071925546
3071934152
3071942697
3071950753
3071959604
3071966928
3071975106
3071985482
3071993722
3072002023
3072009957
3072018136
3072026620
3072034921
3072044381
3072052255
3072061105
3072068307
3072076241
3072084847
3072093026
3072101693
3072109811
3072117318
3072125863
3072134225
3072142831
3072150399
3072159676
3072168038
3072175789
3072184945
3072193001
3072201607
3072210274
3072219124
3072228524
3072237191
3072245003
3072253304
3072261910
3072269967
3072278756
3072286324
3072295357
3072304085
3072312264
3072319649
3072328682
3072336617
3072344917
3072353218
3072362068
3072369698
3072377632
3072386726
3072396126
3072403877
3072413399
3072421028
3072428719
3072438057
3072446114
3072454536
3072462959
3072471443
3072479866
3072487739
3072496162
3072504829
3072513679
3072521064
3072529426
3072537300
3072545662
3072553230
3072562751
3072570015
3072579353
3072586982
3072595405
3072603157
3072612190
3072619270
3072629585
3072639106
3072646919
3072655952
3072663215
3072671089
3072680732
3072687446
3072696906
3072703437
3072711921
3072721809
3072729072
3072738410
3072747016
3072756171
3072762946
3072771613
3072781135
3072788032
3072795844
3072803473
3072813056
3072821845
3072830878
3072838080
3072843818
3072854132
3072860968
3072870917
3072878485
3072887152
3072896064
3072902472
3072911261
3072919745
3072929389
3072938361
3072946845
3072954291
3072962836
3072971869
3072980231
3072989020
3072997199
3073002997
3073013251
3073021124
3073028937
3073037360
3073047125
3073053961
3073063055
3073071417
3073079352
3073088507
3073095404
3073107733
3073119146
3073126654
3073136114
3073143560
3073150518
3073159613
3073168951
3073177435
3073185247
3073194036
3073201849
3073209783
3073218634
3073226934
3073235357
3073243292
3073251714
3073260381
3073267950
3073275335
3073284063
3073294988
3073301702
3073311651
3073318914
3073327520
3073336004
3073345037
3073354375
3073363225
3073370550
3073379766
3073387395
3073396489
3073404485
3073413518
3073422490
3073429082
3073437749
3073447698
3073456609
3073464299
3073472356
3073480779
3073491216
3073499272
3073507268
3073517339
3073525395
3073533330
3073540471
3073549504
3073557927
3073566594
3073575749
3073584599
3073592961
3073601079
3073609196
3073616215
3073625554
3073634343
3073643376
3073650883
3073658940
3073667241
3073675480
3073683110
3073691594
3073700688
3073709416
3073717961
3073727116
3073734868
3073743412
3073752507
3073762455
3073771611
3073779972
3073788822
3073796513
3073805668
3073814762
3073823857
3073831852
3073839970
3073848393
3073857243
3073865421
3073874149
3073882816
3073891056
3073900333
3073907902
3073916203
3073924564
3073934391
3073943790
3073951359
3073959843
3073968754
3073976932
3073985355
3073995121
3074003055
3074011844
3074019962
3074027530
3074036136
3074043949
3074052066
3074061466
3074069828
3074078250
3074085697
3074094120
3074102298
3074111087
3074120487
3074128238
3074136661
3074144779
3074152347
3074158206
3074166629
3074177432
3074184085
3074193790
3074200443
3074209964
3074218570
3074227725
3074234012
3074243472
3074251834
3074260562
3074267947
3074277347
3074285525
3074296206
3074303897
3074313052
3074321292
3074330081
3074338382
3074347415
3074356570
3074365481
3074373294
3074381716
3074389834
3074398318
3074406741
3074414920
3074426638
3074436099
3074446902
3074457827
3074468203
3074479800
3074490603
3074500918
3074512270
3074523745
3074533511
3074544497
3074556093
3074566286
3074578860
3074592837
3074605654
3074618776
3074632570
3074646059
3074660402
3074672548
3074685915
3074697573
3074712099
3074724611
3074738344
3074751650
3074763918
3074777589
3074789491
3074802187
3074816530
3074830324
3074843080
3074855531
3074868226
3074882326
3074894533
3074907899
3074922059
3074936891
3074950868
3074964479
3074977052
3074992555
3075003724
3075017884
3075027650
3075042542
3075053712
3075065431
3075078248
3075089478
3075101685
3075116334
3075130311
3075142945
3075154236
3075166932
3075180604
3075193543
3075208436
3075220032
3075230469
3075245118
3075258179
3075270630
3075284119
3075298157
3075309204
3075322937
3075336243
3075349243
3075359680
3075374817
3075388428
3075400818
3075412231
3075424194
3075435730
3075448242
3075460266
3075471008
3075481567
3075493469
3075506897
3075519958
3075533569
3075546264
3075559631
3075572021
3075586914
3075600219
3075615600
3075630248
3075645324
3075659789
3075672424
3075685180
3075696349
3075709960
3075721740
3075734252
3075746093
3075761535
3075771300
3075785033
3075797240
3075811461
3075822875
3075835753
3075849669
3075863951
3075875792
3075889159
3075901732
3075914183
3075926634
3075939757
3075956725
3075971495
3075986388
3076000853
3076012755
3076026915
3076040709
3076055662
3076067442
3076081846
3076093138
3076107298
3076119688
3076132994
3076144285
3076156126
3076167601
3076181639
3076193357
3076206358
3076218565
3076233457
3076245359
3076260008
3076272031
3076286924
3076299314
3076315000
3076330625
3076344236
3076358518
3076372617
3076384336
3076396970
3076412107
3076424924
3076436948
3076450681
3076464963
3076477170
3076491941
3076503476
3076517392
3076530637
3076542478
3076554440
3076568051
3076579038
3076593686
3076607236
3076620846
3076635007
3076647336
3076660641
3076674374
3076688168
3076699582
3076713437
3076728573
3076742367
3076752438
3076768185
3076779171
3076793576
3076805416
3076816830
3076830685
3076842770
3076855831
3076868099
3076880795
3076893124
3076906734
3076918453
3076930843
3076944149
3076958431
3076971676
3076984188
3076995540
3077007747
3077020931
3077033748
3077048641
3077062984
3077075008
3077091182
3077104732
3077116878
3077131038
3077143123
3077156062
3077169063
3077182857
3077196407
3077208186
3077222530
3077237666
3077253108
3077267451
3077280818
3077292964
3077307246
3077320552
3077335139
3077347346
3077362605
3077374934
3077388606
3077401545
3077417536
3077429865
3077442988
3077455683
3077468501
3077483881
3077496638
3077511164
3077525812
3077540400
3077553339
3077567194
3077580012
3077592280
3077606562
3077620722
3077640070
3077654718
3077667231
3077680902
3077692804
3077705988
3077718378
3077730402
3077742914
3077755121
3077766595
3077778009
3077793817
3077807184
3077821954
3077834100
3077846734
3077859247
3077873041
3077883966
3077897149
3077907892
3077919183
3077932061
3077945123
3077957452
3077970574
3077981011
3077994012
3078005364
3078019708
3078033441
3078045403
3078057122
3078068719
3078081414
3078094170
3078106255
3078117730
3078133111
3078146599
3078159234
3078172661
3078185296
3078199273
3078214348
3078225823
3078239312
3078250054
3078263298
3078275627
3078288994
3078301811
3078316155
3078328972
3078341911
3078354729
3078367363
3078378777
3078392204
3078404961
3078418083
3078430595
3078443291
3078456230
3078469352
3078480766
3078493705
3078506279
3078517753
3078530082
3078543937
3078555046
3078567802
3078580070
3078593193
3078609062
3078623283
3078635246
3078648917
3078661918
3078675651
3078690726
3078704703
3078715873
3078732657
3078746757
3078758964
3078771720
3078784232
3078798392
3078813285
3078826529
3078839713
3078854850
3078868277
3078880850
3078893790
3078906424
3078920218
3078931693
3078944632
3078958121
3078970999
3078983572
3078996512
3079009085
3079023855
3079037100
3079049368
3079063650
3079076101
3079088369
3079101248
3079114065
3079127066
3079140799
3079153677
3079165457
3079176809
3079189138
3079202871
3079215383
3079227834
3079241201
3079254934
3079268423
3079282949
3079296987
3079308889
3079322072
3079334402
3079345754
3079358083
3079369741
3079381398
3079394033
3079406911
3079418508
3079434011
3079448842
3079460439
3079475209
3079487966
3079500478
3079514577
3079529042
3079542592
3079555104
3079568471
3079579274
3079593617
3079605946
3079617848
3079629323
3079642384
3079654591
3079666371
3079678395
3079692067
3079704091
3079718556
3079731373
3079746937
3079759877
3079771656
3079783619
3079795948
3079808888
3079821644
3079834644
3079848255
3079860767
3079874744
3079886280
3079900501
3079912037
3079930164
3079942249
3079956592
3079969654
3079983570
3079998462
3080013416
3080025196
3080037952
3080051013
3080063220
3080076465
3080088794
3080102710
3080115100
3080128284
3080139453
3080152332
3080166492
3080179248
3080193896
3080207995
3080219592
3080232776
3080246020
3080257312
3080271533
3080283313
3080295215
3080307727
3080319995
3080329821
3080343005
3080355334
3080368212
3080380114
3080394335
3080407458
3080422106
3080433642
3080446825
3080459582
3080473742
3080487902
3080500109
3080513537
3080527514
3080540026
3080551500
3080567675
3080580736
3080597582
3080608446
3080621508
3080636278
3080648363
3080660936
3080672899
3080684801
3080697679
3080710680
3080723863
3080736864
3080749498
3080762315
3080775316
3080789415
3080802537
3080817369
3080832384
3080845506
3080859666
3080872178
3080883104
3080895921
3080908677
3080921251
3080933458
3080946824
3080959275
3080971604
3080985520
3080998582
3081012010
3081025926
3081038010
3081052903
3081065049
3081077012
3081089219
3081101792
3081113389
3081124619
3081136948
3081149155
3081161545
3081173081
3081185105
3081198716
3081212204
3081226059
3081238266
3081252487
3081265244
3081279709
3081291611
3081306992
3081318222
3081332932
3081345261
3081360092
3081372055
3081386520
3081399094
3081413437
3081427231
3081441269
3081453232
3081467514
3081479416
3081493393
3081506210
3081518295
3081531051
3081542404
3081554306
3081564804
3081578292
3081591537
3081602462
3081615035
3081626083
3081639510
3081652633
3081666366
3081679732
3081692855
3081704513
3081717086
3081729537
3081742293
3081754378
3081767196
3081779891
3081792220
3081804732
3081817549
3081829268
3081844222
3081856856
3081868758
3081882369
3081897078
3081907881
3081919051
3081933760
3081945296
3081960066
3081971602
3081984541
3081998091
3082010237
3082022322
3082035017
3082048933
3082064070
3082075666
3082089766
3082102095
3082117292
3082129377
3082141889
3082154402
3082167219
3082179670
3082194441
3082206098
3082218549
3082232954
3082245466
3082259260
3082271589
3082284406
3082297407
3082309675
3082321454
3082333295
3082344404
3082357709
3082370771
3082384748
3082397260
3082410932
3082422650
3082439679
3082452497
3082465192
3082478070
3082492475
3082503156
3082517682
3082532086
3082546002
3082561749
3082574994
3082588605
3082600506
3082615094
3082627850
3082640790
3082654278
3082670025
3082682965
3082694989
3082708599
3082722027
3082736553
3082752850
3082766461
3082778240
3082791851
3082804669
3082817974
3082830242
3082844280
3082856182
3082870403
3082881390
3082895000
3082909832
3082923443
3082938457
3082951030
3082966045
3082978374
3082992473
3083006755
3083016887
3083028972
3083042644
3083053325
3083067302
3083080181
3083093242
3083104717
3083116740
3083130351
3083142802
3083155132
3083166911
3083182048
3083195537
3083208476
3083219951
3083234294
3083247172
3083260173
3083272746
3083287150
3083297953
3083314311
3083327006
3083341166
3083355448
3083369425
3083383769
3083399516
3083411051
3083424662
3083439188
3083451151
3083464457
3083477763
3083491862
3083503641
3083517496
3083530375
3083545145
3083557047
3083570414
3083584085
3083596109
3083610941
3083625162
3083638285
3083650980
3083662699
3083674906
3083689249
3083702676
3083715067
3083728677
3083742471
3083753213
3083766397
3083778543
3083788675
3083801736
3083813638
3083827005
3083838479
3083851236
3083863321
3083876992
3083888833
3083901712
3083913247
3083929299
3083943643
3083957070
3083967996
3083980142
3083993020
3084006875
3084018838
3084030373
3084043130
3084057534
3084069680
3084082802
3084097268
3084108254
3084120949
3084134804
3084146401
3084160805
3084171853
3084186196
3084197731
3084212502
3084226723
3084240334
3084253151
3084268227
3084281105
3084294228
3084307777
3084321022
3084332863
3084346352
3084360207
3084372108
3084386635
3084399025
3084412453
3084424293
3084439735
3084451820
3084463722
3084475746
3084489235
3084504310
3084516944
3084529518
3084543800
3084555213
3084568702
3084583656
3084596534
3084609535
3084622901
3084635108
3084646827
3084659156
3084673682
3084687842
3084702064
3084714026
3084726539
3084738807
3084751075
3084762000
3084776282
3084788489
3084803138
3084816016
3084829688
3084842993
3084856543
3084871192
3084883093
3084895972
3084907141
3084919959
3084932288
3084947546
3084960242
3084974524
3084988257
3085001684
3085015051
3085028357
3085043188
3085058203
3085072790
3085088415
3085100744
3085114233
3085126684
3085140844
3085151098
3085165258
3085176306
3085190038
3085202001
3085214391
3085226965
3085240514
3085254003
3085264806
3085277929
3085289709
3085302892
3085315587
3085329870
3085340978
3085356054
3085368749
3085382299
3085395665
3085443090
3085455358
3085470921
3085481053
3085494542
3085506932
3085520909
3085532994
3085547154
3085556737
3085572545
3085584630
3085599888
3085614720
3085628270
3085640782
3085653416
3085668919
3085682103
3085696629
3085709751
3085723057
3085737400
3085750462
3085764805
3085777561
3085789890
3085803867
3085816807
3085830784
3085845798
3085856907
3085869480
3085880772
3085892490
3085903843
3085916843
3085930332
3085942051
3085954807
3085965915
3085980991
3085992160
3086005527
3086017124
3086028842
3086042392
3086055881
3086067050
3086083286
3086096408
3086110629
3086121738
3086135471
3086147739
3086161166
3086174350
3086186252
3086197238
3086210727
3086223117
3086239596
3086251681
3086261996
3086275729
3086289157
3086300814
3086316500
3086327487
3086338717
3086349825
3086362765
3086373507
3086390658
3086402499
3086416598
3086428927
3086441866
3086452242
3086468539
3086481051
3086493685
3086504732
3086517611
3086530245
3086545443
3086558626
3086568392
3086582918
3086593660
3086607454
3086619417
3086632784
3086646944
3086659029
3086671297
3086683260
3086697847
3086710848
3086726778
3086740388
3086754671
3086769441
3086782686
3086795198
3086809907
3086825105
3086836274
3086850740
3086862825
3086875520
3086888703
3086898713
3086909455
3086924165
3086939118
3086951875
3086966645
3086980439
3086995759
3087010773
3087024628
3087037080
3087051667
3087065583
3087079499
3087094452
3087107514
3087121064
3087155549
3087169037
3087181733
3087194123
3087206696
3087219086
3087230438
3087245758
3087259003
3087272553
3087284821
3087296600
3087309174
3087323273
3087337982
3087352386
3087367462
3087380035
3087392303
3087407623
3087420562
3087435150
3087448028
3087461273
3087477386
3087490875
3087503875
3087514862
3087527435
3087541778
3087555267
3087568878
3087582610
3087595001
3087608794
3087622466
3087635039
3087650909
3087661773
3087676726
3087692534
3087706511
3087719634
3087733916
3087747832
3087762725
3087774749
3087790618
3087805937
3087820098
3087833525
3087846526
3087859221
3087871611
3087884795
3087898344
3087912077
3087924773
3087938750
3087951689
3087964751
3088244352
3088257719
3088272489
3088286039
3088298795
3088315641
3088326505
3088340299
3088354032
3088366056
3088379911
3088392240
3088404691
3088419095
3088430875
3088443326
3088455228
3088467191
3088480130
3088492825
3088504788
3088515286
3088527554
3088542752
3088558377
3088573636
3088585965
3088601834
3088615811
3088629971
3088644864
3088655117
3088669217
3088681301
3088692532
3088708584
3088720608
3088732876
3088743862
3088755947
3088768398
3088784206
3088799038
3088811428
3088824490
3088834804
3088846706
3088857693
3088867885
3088879909
3088890896
3088901699
3088912502
3088924770
3088935146
3088947780
3088959072
3088971584
3088984218
3088997951
3089010585
3089020351
3089032436
3089046657
3089059230
3089069240
3089082973
3089093959
3089107875
3089119289
3089131679
3089143886
3089156520
3089168056
3089181911
3089196010
3089208827
3089220302
3089232692
3089245143
3089258632
3089269740
3089282740
3089296534
3089309779
3089323329
3089339198
3089352931
3089367030
3089380640
3089394495
3089410365
3089427698
3089440089
3089452906
3089467127
3089481226
3089494410
3089508570
3089521082
3089533838
3089546167
3089561304
3089574854
3089589258
3089600611
3089612696
3089624964
3089639063
3089652918
3089668054
3089680872
3089694055
3089707300
3089719568
3089732324
3089743494
3089757715
3089770898
3089785791
3089798669
3089812219
3089825464
3089837182
3089849328
3089860620
3089871362
3089883081
3089893884
3089905175
3089918969
3089929589
3089942162
3089952966
3089966760
3089977685
3089990624
3090002465
3090016381
3090027306
3090038598
3090049950
3090062096
3090075707
3090086571
3090100365
3090114159
3090127892
3090140404
3090152306
3090164818
3090176293
3090189720
3090201561
3090214928
3090227501
3090240257
3090252831
3090266136
3090279564
3090292137
3090305687
3090316368
3090331200
3090344139
3090356834
3090370933
3090382896
3090395408
3090410057
3090423423
3090436729
3090448265
3090461326
3090473106
3090487205
3090499656
3090511680
3090522727
3090535850
3090549827
3090561790
3090573142
3090588767
3090600181
3090614158
3090627341
3090640647
3090650962
3090665122
3090675803
3090691611
3090702537
3090717917
3090729636
3090743674
3090757224
3090770774
3090783530
3090795798
3090809409
3090822959
3090835043
3090850485
3090862509
3090875388
3090888022
3090901816
3090914267
3090926291
3090939230
3090953207
3090967245
3090980429
3090993490
3091007040
3091018881
3091032187
3091044638
3091056601
3091067892
3091080648
3091091146
3091103903
3091117330
3091130148
3091143575
3091157064
3091171529
3091184164
3091198019
3091212118
3091224813
3091237325
3091249288
3091263875
3091276693
3091290487
3091304158
3091318441
3091330587
3091339925
3091354634
3091367330
3091379476
3091393270
3091405293
3091418721
3091431539
3091444661
3091456502
3091469441
3091483723
3091496541
3091513386
3091526509
3091540181
3091554829
3091567341
3091584553
3091597004
3091611287
3091623616
3091639546
3091652119
3091665181
3091678120
3091691304
3091702961
3091718647
3091731342
3091745991
3091757771
3091772053
3091787128
3091801594
3091818500
3091831257
3091843403
3091855671
3091870319
3091882709
3091895527
3091908588
3091921650
3091934406
3091948200
3091959735
3091972003
3091983905
3091996723
3092007709
3092019977
3092029987
3092043353
3092054767
3092066364
3092078815
3092088519
3092101520
3092116717
3092126971
3092141620
3092152850
3092164996
3092177447
3092192157
3092205645
3092218097
3092234088
3092245440
3092260150
3092275469
3092287860
3092302752
3092315447
3092329180
3092342181
3092356768
3092370135
3092385516
3092399981
3092413836
3092427630
3092442583
3092454180
3092466753
3092478716
3092491106
3092507280
3092519915
3092533220
3092547197
3092558428
3092571672
3092584001
3092597307
3092611040
3092624285
3092636919
3092650163
3092664262
3092678484
3092692827
3092705278
3092717973
3092730791
3092744584
3092757158
3092768876
3092782365
3092794938
3092807145
3092820024
3092832597
3092842546
3092853410
3092865617
3092879411
3092892533
3092907243
3092920609
3092933366
3092945634
3092959061
3092970353
3092983903
3092997208
3093011063
3093023881
3093037980
3093050614
3093063675
3093076249
3093091019
3093105057
3093118180
3093132584
3093146561
3093158158
3093172074
3093185684
3093199417
3093211624
3093224320
3093237747
3093249649
3093263626
3093276566
3093289932
3093300735
3093313187
3093327652
3093340408
3093354324
3093363785
3093377212
3093389908
3093401260
3093414505
3093424575
3093437088
3093449966
3093461868
3093473648
3093485671
3093496231
3093510024
3093524551
3093536453
3093552200
3093564590
3093578323
3093594741
3093606582
3093620254
3093632583
3093646255
3093659560
3093673354
3093685927
3093697585
3093708632
3093720778
3093734938
3093750380
3093765822
3093780837
3093794264
3093808791
3093822402
3093833388
3093847731
3093859328
3093873427
3093886732
3093897902
3093908217
3093921156
3093933668
3093945997
3093959913
3093971022
3093982802
3093995436
3094007887
3094017591
3094029249
3094040297
3094052381
3094063490
3094073316
3094085340
3094096388
3094108900
3094118971
3094132887
3094144666
3094158521
3094169202
3094182020
3094193677
3094207716
3094222486
3094236646
3094251417
3094262281
3094276502
3094287671
3094299268
3094311841
3094325269
3094336682
3094347730
3094358899
3094371472
3094382825
3094393811
3094407910
3094421704
3094435620
3094447949
3094460889
3094474438
3094487256
3094500561
3094512402
3094526806
3094537793
3094554272
3094566418
3094579907
3094591931
3094604260
3094615796
3094629345
3094642224
3094654614
3094668835
3094680859
3094693615
3094707775
3094720837
3094734264
3094746532
3094759594
3094773144
3094787243
3094800365
3094810497
3094825024
3094836315
3094849193
3094860729
3094876537
3094889354
3094900158
3094910411
3094922985
3094938243
3094948314
3094961315
3094972301
3094985240
3094997142
3095009960
3095020213
3095032726
3095045055
3095057933
3095069652
3095080577
3095093883
3095107677
3095122020
3095135631
3095145518
3095156749
3095167735
3095179210
3095190318
3095202281
3095214122
3095225718
3095238414
3095250071
3095262339
3095277293
3095288706
3095299693
3095310374
3095325449
3095337290
3095350047
3095361338
3095372568
3095381785
3095394358
3095405222
3095418162
3095429331
3095440867
3095452158
3095464548
3095477427
3095490122
3095500376
3095515329
3095525644
3095538706
3095555185
3095568125
3095581735
3095595041
3095607797
3095620798
3095634226
3095645883
3095658762
3095670297
3095684885
3095698129
3095709421
3095722360
3095736337
3095748300
3095762399
3095776986
3095787973
3095802743
3095815805
3095827584
3095840585
3095851144
3095865731
3095878610
3095892037
3095904855
3095916451
3095931161
3095943856
3095957101
3095970711
3095981759
3095995553
3096008248
3096021187
3096032906
3096044686
3096054452
3096066536
3096079720
3096092354
3096104500
3096117073
3096128487
3096142098
3096154732
3096169258
3096179878
3096191658
3096201546
3096214668
3096227791
3096241219
3096251656
3096265694
3096275764
3096288704
3096301826
3096316841
3096327644
3096338753
3096351021
3096363228
3096376411
3096388984
3096399971
3096414436
3096427009
3096438667
3096452217
3096464179
3096476386
3096489631
3096500678
3096513313
3096524726
3096536689
3096547797
3096558479
3096569526
3096580878
3096593635
3096604438
3096614936
3096626105
3096637092
3096646796
3096659858
3096669623
3096683173
3096691779
3096705634
3096716986
3096730475
3096741584
3096754035
3096766364
3096779059
3096790106
3096801276
3096812750
3096827643
3096838507
3096853094
3096865424
3096875983
3096887945
3096901007
3096913824
3096924811
3096935126
3096946112
3096958624
3096970160
3096981695
3096993353
3097006231
3097017401
3097028814
3097041021
3097053045
3097066351
3097078619
3097091924
3097103521
3097115667
3097128240
3097141912
3097155767
3097168096
3097179327
3097192022
3097204900
3097217046
3097231389
3097243780
3097255620
3097266729
3097280034
3097292302
3097306035
3097320073
3097332280
3097344243
3097357549
3097369878
3097380864
3097394902
3097406377
3097419560
3097431462
3097444829
3097456425
3097470158
3097482732
3097496159
3097507939
3097521672
3097534611
3097545842
3097558110
3097568608
3097581364
3097595158
3097606999
3097617619
3097629826
3097640507
3097652043
3097663151
3097675724
3097687809
3097700749
3097711979
3097726627
3097738895
3097752689
3097765690
3097778690
3097793278
3097805118
3097818912
3097830570
3097843998
3097857792
3097870426
3097883793
3097896854
3097910160
3097922245
3097936405
3097948368
3097962589
3097974185
3097986881
3097999881
3098013126
3098025455
3098036563
3098049808
3098062930
3098078738
3098090884
3098103030
3098117007
3098128726
3098141910
3098153872
3098168094
3098180728
3098193301
3098206668
3098218997
3098231021
3098242984
3098255801
3098268923
3098284304
3098295596
3098308779
3098322268
3098333987
3098348025
3098362368
3098375735
3098388003
3098399599
3098413454
3098425905
3098438662
3098451235
3098465090
3098479189
3098493166
3098504763
3098516237
3098529604
3098541078
3098555116
3098567751
3098581301
3098594118
3098605470
3098618471
3098631837
3098643922
3098657899
3098670717
3098681337
3098693117
3098708742
3098721437
3098733522
3098745790
3098759157
3098772767
3098786317
3098799501
3098814210
3098828675
3098841127
3098854554
3098866883
3098877198
3098890321
3098901063
3098914307
3098924378
3098935120
3098947083
3098960511
3098973756
3098986146
3098998231
3099011719
3099023255
3099036744
3099048890
3099062134
3099073914
3099085572
3099097596
3099107666
3099119080
3099132447
3099146179
3099160217
3099173767
3099182984
3099199646
3099211121
3099224365
3099238342
3099250122
3099261047
3099272217
3099285156
3099298645
3099311767
3099322998
3099336975
3099349609
3099364074
3099376709
3099390686
3099404296
3099419494
3099433959
3099446899
3099459899
3099474487
3099486877
3099500732
3099512328
3099526000
3099536926
3099549865
3099561340
3099572936
3099585754
3099598266
3099610351
3099624145
3099637145
3099648436
3099663085
3099674987
3099687621
3099700133
3099714171
3099730040
3099741332
3099754881
3099767577
3099781615
3099794554
3099807433
3099819823
3099833006
3099844908
3099857725
3099871947
3099884215
3099897581
3099909910
3099922667
3099934752
3099948118
3099960508
3099972960
3099984800
3099997435
3100006956
3100021849
3100034239
3100047361
3100058958
3100070860
3100080869
3100093382
3100103391
3100116697
3100128416
3100139402
3100151609
3100163206
3100173948
3100185300
3100199155
3100209592
3100221189
3100234678
3100247129
3100259519
3100271665
3100281247
3100293943
3100306516
3100317929
3100329831
3100340940
3100353330
3100366208
3100377805
3100389829
3100402646
3100415891
3100428647
3100441098
3100454098
3100467587
3100481503
3100493649
3100505734
3100517636
3100528622
3100542721
3100553708
3100568295
3100581356
3100595150
3100607174
3100619259
3100631893
3100644284
3100656002
3100669430
3100680538
3100691891
3100704464
3100715511
3100727657
3100738583
3100752193
3100765316
3100776302
3100790768
3100803951
3100818172
3100830990
3100841976
3100854427
3100866024
3100880123
3100893184
3100905574
3100918392
3100930355
3100942684
3100955135
3100968868
3100981380
3100995601
3101009639
3101022029
3101034480
3101047603
3101060298
3101072566
3101085261
3101097102
3101110225
3101123347
3101134944
3101145930
3101159419
3101172908
3101187495
3101200312
3101212519
3101225093
3101239558
3101253962
3101269526
3101281977
3101296748
3101308711
3101321955
3101332880
3101346735
3101357416
3101371027
3101382868
3101396967
3101407709
3101421137
3101432978
3101446222
3101458674
3101470514
3101483515
3101493525
3101507807
3101520258
3101532038
3101542841
3101556940
3101570123
3101584894
3101595087
3101609491
3101621088
3101635492
3101648065
3101664056
3101677301
3101689996
3101702691
3101714654
3101729303
3101741388
3101754815
3101766412
3101779473
3101791375
3101805169
3101817620
3101829644
3101841790
3101855157
3101868218
3101881219
3101893609
3101905389
3101918511
3101929986
3101943169
3101958855
3101971184
3101986321
3101997796
3102013421
3102023858
3102040520
3102051018
3102065606
3102078301
3102091545
3102105095
3102116875
3102130669
3102143059
3102158806
3102173576
3102187676
3102199883
3102216301
3102228996
3102241753
3102255241
3102268547
3102279289
3102291069
3102304069
3102316581
3102328422
3102339958
3102352836
3102367851
3102381950
3102395866
3102408134
3102422172
3102433952
3102448478
3102461662
3102473502
3102484916
3102497062
3102510307
3102525504
3102538505
3102548453
3102555961
3102563895
3102571158
3102579825
3102587638
3102596000
3102604178
3102612052
3102620475
3102627921
3102634940
3102643668
3102651481
3102660331
3102667411
3102675833
3102684195
3102691581
3102699149
3102707450
3102714530
3102722464
3102729178
3102736197
3102742789
3102750418
3102759146
3102765677
3102772635
3102779349
3102785330
3102791922
3102800345
3102806998
3102815848
3102823294
3102828421
3102838187
3102845572
3102853018
3102860098
3102866080
3102872183
3102880789
3102889090
3102896048
3102903677
3102912466
3102920584
3102927237
3102935598
3102944937
3102952749
3102964346
3102973440
3102979238
3102987844
3102996817
3103003958
3103012991
3103026846
3103036978
3103047598
3103057119
3103068411
3103078970
3103089956
3103101736
3103112234
3103123342
3103133962
3103145315
3103157827
3103168813
3103179067
3103189565
3103199880
3103210622
3103222768
3103234304
3103245778
3103254811
3103267263
3103278005
3103288808
3103299977
3103311330
3103324819
3103335378
3103345937
3103355580
3103367970
3103379994
3103390675
3103400258
3103411183
3103421681
3103432973
3103444936
3103455983
3103467457
3103479298
3103491383
3103502797
3103515065
3103525502
3103536366
3103547535
3103557423
3103568776
3103577443
3103588856
3103600758
3103612232
3103622364
3103633961
3103642201
3103653919
3103662342
3103676197
3103686329
3103697681
3103707630
3103717884
3103729542
3103741505
3103752491
3103761402
3103771046
3103783741
3103792835
3103805103
3103813465
3103820789
3103827442
3103833912
3103841358
3103849537
3103856433
3103864185
3103871631
3103878345
3103884571
3103891834
3103897998
3103905261
3103913440
3103919849
3103926990
3103933582
3103941028
3103947193
3103953967
3103961231
3103969470
3103976917
3103983753
3103989917
3103998706
3104006335
3104012500
3104020190
3104027087
3104033801
3104042529
3104051074
3104058154
3104063891
3104070605
3104079638
3104086474
3104092517
3104102099
3104108691
3104115771
3104123279
3104129809
3104137317
3104145068
3104154284
3104160876
3104168078
3104175341
3104182421
3104190417
3104199145
3104206957
3104213977
3104221728
3104228137
3104235705
3104243517
3104250475
3104258898
3104265307
3104272143
3104280077
3104287463
3104294421
3104299853
3104308825
3104315234
3104322558
3104330309
3104338000
3104345629
3104353197
3104359667
3104366564
3104372729
3104379320
3104388659
3104395373
3104402880
3104409533
3104414415
3104421984
3104431627
3104439318
3104448229
3104453356
3104462084
3104468431
3104476549
3104482836
3104491320
3104499254
3104504869
3104512255
3104518419
3104527880
3104535509
3104542650
3104549852
3104557420
3104565538
3104572679
3104580187
3104586534
3104596544
3104603990
3104611925
3104617784
3104626024
3104633348
3104640489
3104648363
3104655015
3104663133
3104670091
3104676622
3104684373
3104692064
3104699083
3104706956
3104713365
3104719285
3104728441
3104736863
3104743089
3104749131
3104756517
3104764329
3104769944
3104777330
3104786363
3104793687
3104801683
3104807481
3104814500
3104820298
3104828294
3104834886
3104843369
3104850327
3104857407
3104863389
3104872422
3104879380
3104888657
3104895921
3104902573
3104911973
3104919846
3104926560
3104933701
3104941819
3104947922
3104956040
3104964158
3104969346
3104977158
3104984543
3104992844
3105000107
3105006882
3105013535
3105019455
3105027695
3105034714
3105041245
3105050400
3105058030
3105064865
3105072739
3105081162
3105088547
3105095932
3105103684
3105110337
3105118210
3105125656
3105133774
3105142868
3105150925
3105158371
3105165390
3105172897
3105181625
3105187485
3105196335
3105204147
3105210861
3105218796
3105226852
3105233322
3105241989
3105248337
3105254562
3105261581
3105270675
3105277817
3105284530
3105292709
3105298324
3105308517
3105314987
3105323898
3105330063
3105338546
3105347519
3105356430
3105366012
3105372116
3105378829
3105387069
3105394271
3105401962
3105409591
3105416244
3105424240
3105432968
3105441207
3105447433
3105455734
3105462875
3105470565
3105477706
3105485336
3105492660
3105499679
3105506271
3105513900
3105520553
3105527267
3105534286
3105540938
3105548751
3105555709
3105562850
3105570540
3105576888
3105583907
3105591353
3105599044
3105607345
3105613509
3105621261
3105627547
3105634566
3105641341
3105648238
3105655867
3105662459
3105669295
3105677718
3105685042
3105693282
3105700606
3105707564
3105715132
3105722151
3105729537
3105736678
3105743697
3105750960
3105758467
3105765059
3105772566
3105781966
3105787825
3105795638
3105803511
3105812239
3105818404
3105826948
3105834090
3105843001
3105849776
3105856673
3105863020
3105870039
3105877913
3105885359
3105894270
3105900984
3105907881
3105914656
3105920820
3105929487
3105936628
3105944014
3105952681
3105959761
3105967756
3105974775
3105983564
3105990278
3105995832
3106003157
3106010908
3106018965
3106025495
3106033552
3106040693
3106048506
3106054243
3106061933
3106067976
3106076887
3106083112
3106091535
3106098310
3106106245
3106112348
3106121870
3106128644
3106137861
3106144819
3106151716
3106159345
3106167707
3106175336
3106181928
3106187421
3106194196
3106201337
3106209211
3106217084
3106225690
3106231794
3106238630
3106244977
3106252423
3106259442
3106266767
3106274884
3106281659
3106288556
3106293866
3106304181
3106311505
3106318646
3106325543
3106333112
3106339642
3106347455
3106355695
3106362286
3106370892
3106378033
3106384625
3106391461
3106399945
3106407208
3106413922
3106421246
3106428754
3106433636
3106441266
3106449505
3106457623
3106463238
3106469647
3106476788
3106483136
3106490582
3106499493
3106507611
3106514447
3106520977
3106527935
3106535870
3106542584
3106551495
3106557232
3106565655
3106572552
3106580242
3106585736
3106593182
3106602337
3106610211
3106618145
3106624615
3106632733
3106640301
3106646893
3106655926
3106662396
3106669964
3106677471
3106685162
3106692425
3106700176
3106707867
3106713238
3106719952
3106727093
3106734356
3106742107
3106748455
3106754680
3106763347
3106771526
3106776714
3106784282
3106791363
3106798198
3106804668
3106811138
3106819011
3106828716
3106836162
3106842937
3106850872
3106857647
3106865154
3106873455
3106880657
3106887432
3106894695
3106902324
3106908672
3106915935
3106922649
3106930583
3106938762
3106944682
3106951885
3106958049
3106966167
3106973918
3106981059
3106989665
3106996257
3107001140
3107012004
3107019206
3107026469
3107033000
3107041057
3107048137
3107053874
3107061259
3107069926
3107078288
3107085307
3107091166
3107098308
3107107219
3107113505
3107123027
3107128093
3107135051
3107143229
3107149699
3107156169
3107165141
3107171061
3107179606
3107186930
3107193766
3107199809
3107207011
3107215556
3107222392
3107230021
3107235209
3107242838
3107249186
3107256266
3107264445
3107272562
3107279643
3107287577
3107294962
3107302775
3107308268
3107317545
3107325419
3107332499
3107339213
3107346598
3107354471
3107361857
3107368082
3107376505
3107383280
3107389506
3107397440
3107404215
3107412027
3107419107
3107426615
3107432901
3107440226
3107448709
3107455973
3107463785
3107470621
3107478067
3107483255
3107490457
3107497660
3107506937
3107514383
3107521707
3107528238
3107534769
3107539713
3107548746
3107556375
3107562662
3107573953
3107581033
3107589090
3107598184
3107605447
3107612955
3107619363
3107628152
3107634683
3107644754
3107651956
3107658792
3107665750
3107672891
3107680520
3107687723
3107694681
3107701516
3107710244
3107715738
3107723977
3107730020
3107737405
3107746072
3107753945
3107760415
3107768228
3107773904
3107781228
3107790078
3107799905
3107807107
3107814065
3107820535
3107827798
3107837808
3107844277
3107850686
3107858926
3107865762
3107873025
3107878640
3107888467
3107896157
3107903847
3107909646
3107918740
3107924111
3107934487
3107941750
3107948281
3107955300
3107962380
3107969826
3107977089
3107984597
3107990944
3107998208
3108004006
3108010720
3108017067
3108026528
3108033852
3108039162
3108050331
3108056496
3108065346
3108070900
3108079811
3108086708
3108095436
3108101418
3108109596
3108115090
3108123696
3108131142
3108138771
3108144997
3108152626
3108159767
3108169106
3108176491
3108183388
3108189430
3108196876
3108203896
3108210915
3108217811
3108227211
3108234657
3108241310
3108248329
3108254432
3108261085
3108269447
3108275795
3108283302
3108290199
3108298744
3108306251
3108313087
3108321144
3108329811
3108336891
3108345558
3108353309
3108361427
3108369056
3108377540
3108385292
3108391761
3108399879
3108406532
3108413978
3108420997
3108428443
3108434852
3108443519
3108451820
3108457435
3108465797
3108471900
3108481178
3108488746
3108495155
3108502601
3108509742
3108516151
3108525550
3108530677
3108539161
3108544959
3108552649
3108560340
3108568519
3108575538
3108581458
3108587867
3108595069
3108602332
3108610633
3108617163
3108625464
3108632422
3108638709
3108645606
3108653907
3108660315
3108667517
3108674292
3108682410
3108689307
3108698096
3108705664
3108713416
3108719275
3108726721
3108732642
3108740454
3108747839
3108754370
3108761206
3108768286
3108773596
3108781714
3108789221
3108796423
3108805579
3108811926
3108820471
3108826269
3108833899
3108841406
3108847571
3108854162
3108861853
3108868811
3108876501
3108887182
3108895117
3108901587
3108908850
3108914404
3108921362
3108929541
3108938574
3108945959
3108953466
3108958715
3108965734
3108973852
3108980932
3108987890
3108994360
3109002294
3109009924
3109017126
3109022558
3109031774
3109040197
3109046545
3109053198
3109061437
3109068884
3109075903
3109083532
3109090368
3109099035
3109105749
3109113744
3109120885
3109129613
3109136327
3109144140
3109151403
3109158117
3109165441
3109171911
3109180394
3109186986
3109193944
3109200109
3109207067
3109215245
3109223546
3109229222
3109235814
3109243322
3109249608
3109257299
3109265599
3109272496
3109279882
3109285253
3109292089
3109300206
3109307836
3109315343
3109322179
3109329076
3109336705
3109343602
3109351109
3109357823
3109365514
3109373082
3109378392
3109385411
3109393101
3109401646
3109408177
3109415990
3109423009
3109431737
3109438511
3109446202
3109453099
3109460362
3109466710
3109474644
3109482396
3109487767
3109496434
3109504185
3109511509
3109518040
3109525059
3109530247
3109537388
3109547154
3109552769
3109560887
3109568455
3109574986
3109582005
3109590611
3109598973
3109605076
3109611241
3109619724
3109625584
3109632786
3109640781
3109649326
3109656834
3109663792
3109670383
3109677464
3109684422
3109692905
3109698582
3109707371
3109714451
3109720859
3109728306
3109735630
3109742710
3109749302
3109754856
3109763523
3109770359
3109777439
3109784580
3109792148
3109797763
3109804783
3109812717
3109821018
3109828098
3109834507
3109843784
3109850681
3109857822
3109865207
3109872531
3109879672
3109886875
3109894748
3109901279
3109907260
3109916843
3109923923
3109930148
3109938815
3109946506
3109955722
3109961948
3109970187
3109978244
3109986972
3109994662
3110000400
3110007724
3110015231
3110024631
3110030795
3110037448
3110046237
3110053805
3110060885
3110068759
3110078280
3110085605
3110092440
3110100070
3110107333
3110114352
3110124301
3110130770
3110138278
3110144076
3110152011
3110159091
3110166720
3110174716
3110182284
3110188632
3110195345
3110202548
3110211154
3110218356
3110225497
3110232272
3110239657
3110246432
3110251498
3110260409
3110268038
3110275362
3110282992
3110289156
3110296725
3110304049
3110309847
3110317110
3110326266
3110333040
3110337801
3110345614
3110352572
3110361483
3110368136
3110375094
3110381929
3110389437
3110397615
3110403597
3110412264
3110420320
3110426851
3110434053
3110441317
3110448519
3110457308
3110463899
3110470980
3110478365
3110483614
3110492769
3110500643
3110507967
3110515718
3110522554
3110530245
3110537447
3110544710
3110552644
3110559908
3110565523
3110573701
3110578645
3110589571
3110598238
3110604585
3110612520
3110618074
3110624727
3110633882
3110639863
3110648652
3110656465
3110663301
3110669099
3110676729
3110684602
3110692292
3110700715
3110708467
3110716218
3110723176
3110731294
3110738862
3110746003
3110753022
3110761933
3110769746
3110776765
3110784516
3110792817
3110799348
3110807404
3110814668
3110819550
3110826508
3110835969
3110844331
3110850739
3110857392
3110867219
3110874604
3110883210
3110890839
3110897919
3110903718
3110912141
3110919953
3110927643
3110935883
3110942841
3110949433
3110956086
3110963532
3110971650
3110978241
3110985077
3110993378
3110998688
3111004670
3111011811
3111020844
3111028168
3111035553
3111043976
3111050385
3111057831
3111064667
3111071747
3111078949
3111085663
3111094269
3111101593
3111108978
3111117584
3111125458
3111132782
3111140228
3111146088
3111153717
3111161652
3111169159
3111177277
3111184845
3111191681
3111197845
3111207062
3111214020
3111221344
3111226410
3111233917
3111240570
3111248321
3111255646
3111264801
3111272918
3111277801
3111286346
3111292450
3111301727
3111308685
3111314727
3111323761
3111331817
3111338958
3111346344
3111353179
3111361175
3111367523
3111375457
3111383331
3111389800
3111396942
3111407440
3111413604
3111422759
3111429839
3111435760
3111443328
3111451202
3111459808
3111465301
3111473418
3111479827
3111486480
3111493438
3111501983
3111509246
3111518035
3111524627
3111530120
3111539336
3111545867
3111554046
3111561370
3111568877
3111574553
3111581756
3111587127
3111594451
3111602935
3111610198
3111617949
3111625029
3111633391
3111640166
3111647002
3111655669
3111662688
3111671050
3111677458
3111684783
3111691435
3111698332
3111705046
3111713042
3111721465
3111729582
3111737273
3111744475
3111752531
3111759001
3111766997
3111773344
3111781706
3111786772
3111794707
3111802336
3111808684
3111816252
3111824370
3111830656
3111838164
3111846892
3111854765
3111860380
3111868071
3111875639
3111884001
3111891203
3111899687
3111906584
3111913725
3111923429
3111930815
3111937284
3111944731
3111951689
3111960600
3111968962
3111976591
3111983183
3111990324
3111997587
3112003935
3112010526
3112018644
3112027128
3112033781
3112040983
3112047453
3112055204
3112061491
3112070524
3112079069
3112085660
3112093290
3112099943
3112105680
3112113248
3112120084
3112128568
3112135526
3112142789
3112150968
3112156766
3112163175
3112171109
3112181485
3112188077
3112194608
3112201993
3112209806
3112217008
3112223722
3112231961
3112238797
3112246549
3112254178
3112259854
3112267972
3112276090
3112282987
3112291043
3112298001
3112304654
3112312222
3112319791
3112328214
3112335843
3112343472
3112350308
3112357571
3112365140
3112371854
3112380460
3112388821
3112395169
3112403531
3112410061
3112417630
3112425686
3112432889
3112441189
3112447415
3112456143
3112463894
3112469021
3112478543
3112484951
3112493374
3112500821
3112507901
3112515103
3112522366
3112531216
3112539089
3112546597
3112555569
3112562405
3112569607
3112577908
3112585171
3112592190
3112598171
3112604946
3112614285
3112621731
3112626553
3112636745
3112643826
3112651882
3112658474
3112665371
3112673733
3112681972
3112689724
3112697170
3112701870
3112711758
3112720363
3112728298
3112736599
3112743801
3112750942
3112756984
3112765285
3112772548
3112780849
3112788356
3112794826
3112802700
3112809963
3112817409
3112824550
3112831813
3112838710
3112846401
3112852138
3112858730
3112865199
3112873561
3112880702
3112887721
3112892909
3112902553
3112908840
3112916286
3112922267
3112930690
3112936916
3112944240
3112949611
3112955959
3112962733
3112971583
3112980678
3112986720
3112994472
3113001552
3113006251
3113014369
3113021510
3113029262
3113035670
3113044032
3113050502
3113055995
3113066127
3113073329
3113080470
3113087306
3113092860
3113099696
3113106593
3113114222
3113120753
3113128077
3113135890
3113142909
3113148341
3113156214
3113163539
3113171290
3113178858
3113184352
3113191004
3113198023
3113207789
3113213038
3113221400
3113229090
3113236475
3113243678
3113252100
3113259180
3113266688
3113273890
3113281214
3113288233
3113294825
3113301722
3113311182
3113319483
3113325037
3113331751
3113339197
3113344629
3113352991
3113361292
3113367518
3113375147
3113381556
3113389124
3113396326
3113403711
3113412073
3113417322
3113425806
3113432215
3113439112
3113448694
3113454798
3113461511
3113469507
3113475672
3113482507
3113489893
3113497217
3113504968
3113511438
3113518518
3113525232
3113535913
3113543054
3113550012
3113556909
3113565942
3113573083
3113580774
3113587854
3113595544
3113602807
3113609155
3113617639
3113623681
3113631921
3113639245
3113647668
3113654565
3113661584
3113667810
3113675378
3113682824
3113689660
3113697046
3113702966
3113712121
3113718347
3113726586
3113734948
3113743920
3113750573
3113758325
3113765893
3113771630
3113781701
3113789452
3113797570
3113804162
3113812219
3113818871
3113827355
3113834252
3113841821
3113849267
3113855248
3113861413
3113869225
3113874840
3113884484
3113891991
3113899010
3113906762
3113912743
3113920434
3113926720
3113937401
3113943871
3113953820
3113960534
3113967125
3113973290
3113981286
3113989647
3113996422
3114003563
3114009545
3114018517
3114024010
3114032982
3114040123
3114048180
3114052635
3114060509
3114066551
3114074181
3114081993
3114088951
3114097130
3114103783
3114110191
3114117455
3114124474
3114131920
3114138634
3114146385
3114153404
3114158531
3114167076
3114171776
3114179344
3114188805
3114195152
3114202476
3114208336
3114215355
3114222862
3114229942
3114237571
3114243370
3114252281
3114259727
3114265037
3114271934
3114281944
3114289329
3114295677
3114302269
3114309410
3114316551
3114323753
3114330406
3114337608
3114342308
3114350791
3114357139
3114364585
3114374168
3114380210
3114387657
3114394248
3114400779
3114409934
3114416465
3114424033
3114431297
3114438255
3114445213
3114451316
3114458823
3114464683
3114472739
3114480857
3114488853
3114495566
3114502952
3114511558
3114519370
3114526572
3114534079
3114541404
3114549155
3114553977
3114563376
3114571189
3114577720
3114584189
3114592734
3114600730
3114610068
3114617270
3114624411
3114631430
3114637595
3114645041
3114651572
3114657981
3114664328
3114671103
3114679282
3114685996
3114693076
3114701987
3114710532
3114716513
3114723654
3114730551
3114737570
3114745993
3114752768
3114759421
3114766379
3114773703
3114779990
3114787375
3114793295
3114801718
3114808615
3114815268
3114822104
3114828695
3114834555
3114842489
3114849081
3114856588
3114863058
3114869833
3114879538
3114887960
3114895529
3114901144
3114909506
3114915487
3114922750
3114929342
3114936361
3114944357
3114950826
3114960775
3114967428
3114974325
3114980673
3114988973
3114996237
3115002523
3115010641
