1476179326
1476192754
1476205388
1476216496
1476233525
1476246098
1476259587
1476271062
1476283696
1476295842
1476308171
1476320317
1476331791
1476345219
1476357365
1476368718
1476382878
1476412419
1476428715
1476442509
1476458378
1476485355
1476509220
1476528812
1476552006
1476593570
1476615726
1476634037
1476653202
1476667301
1476681400
1476702762
1476722660
1476745426
1476764041
1476785526
1476804080
1477043337
1477186648
1477198183
1477212343
1477228396
1477239443
1477249086
1477258181
1477267580
1477276735
1477285707
1477294985
1477306398
1477316347
1477325014
1477337343
1477346742
1477357485
1477369508
1477388307
1477411928
1477428468
1477447694
1477474489
1477548036
1477578614
1477597718
1477616456
1477637940
1477673463
1477693238
1477713990
1477731080
1477742310
1477757508
1477778016
1477800538
1477820557
1477869812
1478308105
1478333495
1478609068
1478630614
1478648314
1478666441
1478685911
1478807066
1479303280
1479403500
1479541805
1479569698
1479584957
1479601741
1479624141
1479645748
1479667964
1479687007
1479706294
1479725398
1479746211
1479763850
1479781673
1479802913
1479821345
1479839961
1479859126
1479876094
1479896541
1479916072
1479933772
1479952693
1479973201
1480002925
1480019038
1480703179
1481104545
1481224906
1481523978
1481933217
1481977895
1482061818
1482106069
1482121327
1482135610
1482195851
1482365773
1482453297
1482476917
1482499744
1482522877
1482613269
1482797046
1482823169
1482846362
1482868701
1482890612
1482980944
1483014452
1483230150
1483461839
1483482591
1483503770
1483525682
1483546434
1483620835
1483747910
1483771714
1483793137
1483814499
1483847336
1483868149
1483887741
1483910935
1484118026
1484737532
1484870283
1484907026
1484926679
1484945783
1484965436
1485018415
1485036725
1485056745
1485076886
1485096478
1485114789
1485132489
1485153241
1485171490
1485190655
1485209881
1485234601
1485252606
1485270367
1485289837
1485306195
1485325238
1485673137
1486146097
1486202250
1486234476
1486268228
1486299539
1486336710
1486450845
1486484475
1486923134
1486947975
1486971229
1486991493
1487068702
1487089332
1487111122
1487161415
1487182472
1487421546
1487434485
1487446875
1487463538
1487476538
1487490576
1487504004
1487517554
1487529944
1487544470
1487557349
1487569739
1487583411
1487595984
1487610998
1487623327
1487636999
1487650122
1487662817
1487675634
1487687841
1487702368
1487714209
1487730322
1487742040
1487756811
1487767004
1487780554
1487797155
1487810827
1487828527
1487844396
1487857763
1487875768
1487892248
1487906225
1487920385
1487931188
1487946142
1487962255
1487978185
1487997228
1488347935
1488460483
1488704807
1488991488
1489014132
1489123629
1489149202
1489172640
1489270479
1489300813
1489872528
1489896149
1489915131
1489929474
1489946136
1489961578
1489977997
1489993988
1490008392
1490024017
1490036041
1490048614
1490062591
1490072784
1490087127
1490100677
1490112762
1490123138
1490136505
1490151031
1490168914
1490185638
1490201446
1490216827
1490233550
1490249908
1490294951
1490352019
1490371611
1490387908
1490404265
1490421355
1490435759
1490449492
1490470183
1490493315
1490510710
1490528044
1490544401
1490562407
1490578459
1490593229
1490607878
1490622587
1490636259
1490651823
1490671232
1490988614
1491016812
1491043607
1491541896
1491574855
1491852809
1492550073
1492829613
1493133201
1493171470
1493212180
1493229453
1493245261
1493262290
1493281638
1493304099
1493326743
1493348349
1493470786
1493484396
1493497336
1493513754
1493528342
1493544272
1493559653
1493574545
1493590475
1493605734
1493620077
1493633383
1493649130
1493663961
1493677755
1493691915
1493707784
1493721884
1493734884
1493749899
1493771261
1493793233
1493815389
1493839498
1493875448
1493898702
1493930501
1493961446
1493987630
1494019002
1494049214
1494128194
1494161702
1494343159
1494370686
1494671832
1494693988
1494713946
1494729877
1494746478
1494764789
1494786700
1494803607
1494821063
1494841021
1494861895
1494880511
1494899676
1494920794
1494939471
1494956927
1494982989
1495004351
1495028582
1495045550
1495063982
1495080767
1495098772
1495113787
1495127153
1495140886
1495161333
1495184404
1495206682
1495244768
1495277971
1495301164
1495325639
1495347612
1495375078
1495396196
1495428849
1495450761
1495472306
1495495561
1495514298
1495531266
1495548783
1495564957
1495581864
1495598832
1495615739
1495632218
1495650040
1495668351
1495928604
1495962234
1496455397
1496568678
1496927564
1496977674
1497010694
1497028211
1497042920
1497061475
1497079907
1497099316
1497156750
1497174511
1497189038
1497205639
1497222729
1497239331
1497262158
1497286389
1497308544
1497345837
1497375683
1497401623
1497426769
1497452038
1497478649
1497542003
1497566051
1497582530
1497604076
1497624828
1497646068
1497667430
1497692454
1497979014
1498009470
1498081186
1498104380
1498137522
1498160105
1498185861
1498204233
1498246164
1501812073
1502718015
1504458795
1505168754
1505481131
1505836232
1505991994
1506297779
1506731738
1506997851
1507205675
1507814865
1507844528
1509381450
1510537087
1511378394
1515735804
1519920303
1520176589
1520439833
1520472303
1520491041
1520506910
1520522962
1520534193
1520548414
1520561109
1520573560
1520586256
1520598890
1520607557
1520616102
1520624281
1520632459
1520641126
1520649976
1520658948
1520667737
1520675550
1520685254
1520692823
1520698682
1520717847
1520730726
1520741529
1520749891
1520763745
1520770032
1520777661
1520787610
1520795301
1520801953
1520810803
1520817823
1520824109
1520831067
1520840528
1520847608
1520854321
1520862988
1520868787
1520876965
1520884717
1522395394
1525568421
1525794250
1526253172
1526313231
1526330870
1526344847
1526358458
1526373411
1526386107
1526399107
1526411741
1526420225
1526439878
1526460386
1526640562
1526662290
1526689206
1526712949
1526737241
1526762387
1526786130
1526817136
1526853818
1526880002
1526905637
1526937131
1526984005
1527009030
1527030026
1527056576
1527076901
1527099667
1527119564
1527199581
1527224178
1527248958
1527279110
1527302425
1527328365
1527717158
1529945851
1530001271
1530415271
1533848734
1534191934
1534562782
1536035740
1536392062
1537344330
1537531586
1538013945
1538177092
1538345976
1539228664
1540353234
1540803306
1540945273
1541373434
1541468282
1541532125
1541763203
1541990742
1542131672
1542455951
1542882952
1543164506
1543335648
1543788955
1544157240
1544390943
1544686902
1545039013
1545337108
1545911936
1546172982
1546442024
1546678230
1547013678
1547166876
1547453924
1547720586
1548004887
1548345279
1548504214
1548647707
1548724428
1549143617
1549436951
1549576477
1549916320
1550247801
1550668881
1551036251
1551294002
1551549677
1551720942
1552043206
1552238030
1552370415
1552465263
1552933829
1553073782
1553373159
1553650563
1553743153
1554030689
1554337878
1554524523
1554672533
1554886400
1555050462
1555648666
1556039534
1556414960
1556733380
1556922833
1557081157
1557251567
1557672342
1558035012
1558150857
1558584510
1558923438
1559117895
1559417089
1559566442
1559855686
1560112461
1560321078
1560508822
1560748812
1560869417
1560963289
1561470001
1562208464
1562441556
1563666834
1563987207
1564138695
1564863425
1565217855
1566058002
1566581133
1567765945
1568161268
1568349134
1569058605
1569878549
1570085946
1570296028
1570432320
1570692146
1571219610
1571450872
1571663945
1571688908
1571706486
1571719975
1571730595
1571743107
1571755802
1571764958
1571772404
1571780033
1571788395
1571796635
1571804508
1571813053
1571819279
1571828068
1571835026
1571841801
1571850895
1571858524
1571865177
1571872929
1571879520
1571886173
1571891422
1571899967
1571909183
1571916019
1571922611
1571928776
1571937260
1571944950
1571951969
1571968326
1571984745
1571996952
1572016605
1572036258
1572074527
1572095157
1572114688
1572130679
1572148258
1572172672
1572194400
1572216495
1572236392
1572257388
1572277957
1572300967
1572323306
1572346133
1572370364
1572392031
1572413516
1572476565
1572503054
1572527895
1572551333
1572572329
1572594362
1572616640
1572680483
1572699465
1572722841
1572765627
1572783327
1572805055
1572841737
1572873964
1572949647
1572975709
1573001832
1573028748
1573052186
1573106080
1573131043
1573151185
1573171692
1573191895
1573214234
1573233521
1573247376
1573264282
1573288391
1573313355
1573337219
1573358093
1573374878
1573392944
1573408996
1573428345
1573446472
1573984190
1574426450
1574451230
1574476926
1574872066
1574991878
1575015499
1575037349
1575061214
1575085262
1575112544
1575132686
1575156734
1575179561
1575203059
1575228999
1575572504
1575643793
1575668085
1575704889
1575728632
1575745721
1575765009
1575782770
1575804925
1575830316
1575849969
1575916742
1576083916
1576103142
1576118950
1576137322
1576153801
1576168511
1576201714
1576377434
1576432243
1576455558
1576894400
1576953299
1576984976
1577027762
1577086294
1577121939
1577147512
1577169668
1577191885
1577213369
1577238149
1577261953
1577285512
1577308767
1577330190
1577356374
1577379384
1577434499
1577453176
1577491811
1577517629
1577540089
1577563527
1577580189
1577598805
1577616627
1577647755
1577667408
1577685353
1577727406
1577746693
1577772450
1577795277
1577822987
1577841785
1577858204
1577880848
1577906483
1577939197
1577955311
1577967945
1577986560
1578001453
1578013782
1578028369
1578040210
1578050769
1578064685
1578077686
1578090259
1578103076
1578125720
1578205371
1578230212
1578255542
1578282153
1578304736
1578334643
1578360278
1578393542
1578419482
1578436999
1578489916
1578506945
1578527147
1578547533
1578566576
1578736253
1578759386
1578775865
1578788377
1578801683
1578933152
1579371750
1579398422
1579422531
1579445236
1579468490
1579491745
1579512069
1579527023
1579539779
1579554855
1579569808
1579585372
1579601852
1579617599
1579632980
1579647933
1579662643
1579677169
1579696151
1579717696
1579733748
1579748641
1579762801
1579776656
1579791671
1579807784
1579823653
1579839461
1579854781
1579866866
1579881026
1579896895
1579911910
1579925154
1579937300
1579952376
1579966658
1579981734
1579996809
1580009199
1580023604
1580039351
1580052900
1580066389
1580081282
1580093611
1580108503
1580123152
1580135725
1580150617
1580165754
1580183088
1580198164
1580212019
1580224287
1580239912
1580253828
1580268720
1580281354
1580296796
1580310163
1580324628
1580337629
1580350629
1580364728
1580378278
1580393476
1580408856
1580421430
1580436078
1580450238
1580462811
1580478009
1580492535
1580506024
1580519757
1580532025
1580546735
1580563458
1580578595
1580593731
1580607159
1580620587
1580634137
1580648175
1580663678
1580678936
1580693035
1580705670
1580720928
1580734783
1580749798
1580762859
1580777996
1580791424
1580804607
1580819439
1580833843
1580847820
1580861309
1580875713
1580889202
1580901165
1580915447
1580929607
1580944255
1580957866
1580971660
1580986064
1580998760
1581011455
1581025859
1581040691
1581055339
1581069316
1581083415
1581097331
1581110820
1581124309
1581140300
1581154887
1581169963
1581183391
1581198283
1581212260
1581226603
1581240519
1581254924
1581270121
1581284404
1581297282
1581312541
1581326029
1581341654
1581354167
1581367838
1581380839
1581395609
1581405985
1581424845
1581436625
1581453471
1581467509
1581478739
1581492411
1581507364
1581524454
1581540506
1581553873
1581567362
1581580606
1581594339
1581608683
1581623209
1581636942
1581651712
1581664285
1581678934
1581692117
1581707498
1581721597
1581736612
1581749368
1581763223
1581775430
1581791482
1581805703
1581818704
1581832986
1581847207
1581859842
1581874978
1581888467
1581900430
1581911660
1581922036
1581932473
1581942544
1581952737
1581963235
1581974893
1581985940
1581996865
1582006631
1582013711
1582020425
1582028359
1582084145
1582109108
1582121254
1582131813
1582139992
1582147561
1582155495
1582163430
1582170937
1582178444
1582187416
1582194557
1582202370
1582210305
1582217507
1582225136
1582233559
1582241799
1582249733
1582257729
1582265602
1582274208
1582281776
1582291176
1582298439
1582306679
1582314430
1582321693
1582328834
1582337196
1582344948
1582352821
1582360634
1582368263
1582375770
1582382973
1582390541
1582398292
1582405250
1582412208
1582418617
1582426979
1582433448
1582441688
1582451515
1582459083
1582466346
1582474647
1582480873
1582488563
1582494667
1582505226
1582511268
1582519630
1582525978
1582533302
1582538795
1582547157
1582577491
1582608192
1582640967
1582665992
1582696814
1582834632
1582864111
1582888709
1582911597
1582936133
1582959265
1582982275
1583006079
1583030371
1583056616
1583081030
1583100927
1583123144
1583191869
1583217382
1583243322
1583286352
1583306493
1583323278
1583334874
1583348302
1583360631
1583372594
1583385472
1583398595
1583411107
1583423314
1583435887
1583447850
1583459752
1583472752
1583484227
1583495885
1583506749
1583520726
1583533360
1583545262
1583556981
1583567052
1583580845
1583590550
1583604771
1583621190
1583634068
1583649083
1583660679
1583671910
1583688328
1583701451
1583720432
1583732334
1583745152
1583759312
1583769810
1583784763
1583795139
1583809666
1583822910
1583833897
1583844822
1583856113
1583866978
1583877598
1583889805
1583902378
1583918186
1583934116
1583961338
1583987400
1584006687
1584034335
1584057956
1584079807
1584113925
1584142551
1584167758
1584187716
1584208041
1584228488
1584277987
1584301364
1584332919
1584357211
1584380526
1584403414
1584466891
1584487703
1584511995
1584537203
1584610750
1584664461
1584693575
1584712556
1584728914
1584746065
1584761201
1584775483
1584790742
1584805696
1584826387
1584845613
1584865144
1584888215
1584900178
1584915559
1584929597
1584944734
1584969209
1584991608
1585026887
1585043183
1585058381
1585073456
1585089386
1585103913
1585119049
1585136139
1585151947
1585169342
1585235565
1585254913
1585270599
1585286163
1585299896
1585315094
1585331085
1585349029
1585365692
1585390777
1585408661
1586038481
1586062284
1586087370
1586116667
1586146574
1586174039
1586199064
1586339749
1586365506
1586389371
1586414212
1586477567
1586615689
1586700649
1586752590
1587111903
1587593408
1588079125
1588245018
1588625449
1588762229
1588784323
1588800559
1588819357
1588835715
1588851218
1588866660
1589358296
1589377889
1589399556
1589631245
1589656025
1589678791
1589690815
1589712299
1589755878
1589773884
1589876606
1589938495
1589964191
1589992816
1590018451
1590042072
1590063739
1590095538
1590114642
1590134234
1590152789
1590172747
1590191241
1590230914
1590333941
1590353411
1590367510
1590377093
1590385088
1590396502
1590413470
1590428057
1590440264
1590453997
1590467852
1590480852
1590493853
1590505266
1590517412
1590529192
1590549578
1590566789
1590581560
1590603960
1590689104
1590714677
1590738359
1590764177
1590789811
1590813066
1590838273
1590861161
1590884843
1590906205
1590926896
1590943497
1590957230
1590968522
1590979020
1590990128
1591001359
1591012711
1591023209
1591035477
1591046219
1591057145
1591068314
1591078873
1591090897
1591099930
1591111283
1591125199
1591136185
1591151261
1591170243
1591190750
1591205765
1591217056
1591227676
1591239273
1591247879
1591255508
1591262405
1591269913
1591276321
1591284988
1591291458
1591300064
1591306290
1591317459
1591329666
1591345108
1591355056
1591364883
1591380142
1591394729
1591406997
1591419143
1591434585
1591449295
1591464553
1591478286
1591492874
1591507583
1591521987
1591534988
1591551101
1591566909
1591579482
1591589980
1591601821
1591613540
1591626235
1591639663
1591656508
1591675734
1591691176
1591708815
1591723403
1591736403
1591748427
1591760329
1591772048
1591782790
1591793593
1591807997
1591820876
1591833510
1591845778
1591858351
1591869154
1591880385
1591892958
1591903883
1591914747
1591925245
1591936537
1591948927
1591960524
1591972242
1591983534
1591994581
1592006483
1592017591
1592027967
1592039686
1592051710
1592063185
1592077039
1592088636
1592100172
1592110609
1592123914
1592140272
1592179151
1592206983
1592232252
1592254407
1592275769
1592294751
1592310987
1592327649
1592347058
1592761181
1592829296
1592958873
1593219554
1593335398
1593391001
1593458689
1593482615
1593575449
1593653757
1593674692
1593891732
1594139107
1594167854
1594632819
1594954657
1595042181
1595444463
1595511418
1595836734
1595859562
1597629821
1598907344
1599230769
1599601801
1600061943
1600299492
1600346366
1600942556
1601270009
1601428029
1601567677
1601596058
1601629749
1601689625
1601721180
1601885913
1602027759
1602317187
1602335253
1602354540
1602371569
1602394945
1602703416
1603087082
1603149460
1603176010
1603728133
1603830366
1603852644
1603875105
1603897322
1603913801
1603930830
1603953169
1603969282
1603982160
1603997175
1604012983
1604028608
1604047041
1604073896
1604093366
1604108320
1604121503
1604134809
1604149396
1604163801
1604176069
1604189801
1604202924
1604217878
1604236615
1604249860
1604263959
1604279218
1604292523
1604306439
1604320660
1604334454
1604349042
1604362469
1604375958
1604387616
1604402814
1604416485
1604427655
1604441571
1604456585
1604470318
1604482159
1604496197
1604511212
1604524701
1604538678
1604552105
1604566143
1604578472
1604593182
1604607586
1604623211
1604635601
1604649944
1604663311
1604676617
1604690411
1604705181
1604718365
1604731060
1604745281
1604758709
1604773418
1604786968
1604803325
1604816753
1604830608
1604844585
1604856426
1604871196
1604885356
1604898967
1604912090
1604926250
1604940959
1604954631
1604967265
1604980754
1604997600
1605018107
1605040751
1605057109
1605070720
1605085551
1605101298
1605115580
1605128093
1605146220
1605158671
1605170573
1605186320
1605200419
1605214030
1605227152
1605239848
1605251566
1605262797
1605274393
1605303751
1605317484
1605332316
1605347391
1605362101
1605381815
1605393595
1605403299
1605415079
1605424051
1605439188
1605456400
1605604532
1605620767
1605640787
1605663003
1605677102
1605690225
1605702249
1605719033
1605733316
1605747048
1605761453
1605772256
1605783059
1605793740
1605804177
1605816079
1605829568
1605844765
1605856301
1605871316
1605886391
1605896706
1605908547
1605920571
1605935036
1605951638
1605964943
1605980935
1605995644
1606007912
1606022377
1606038491
1606053871
1606068764
1606082741
1606096108
1606111855
1606127113
1606142250
1606156776
1606169594
1606185097
1606198158
1606214393
1606227333
1606241493
1606253456
1606267189
1606280616
1606293251
1606307167
1606323341
1606337501
1606352577
1606366432
1606379371
1606393836
1606408485
1606430579
1606450721
1606470252
1606489295
1606512122
1606532508
1606550757
1606564002
1606580176
1606594886
1606610572
1606625403
1606639197
1606653418
1606668677
1606684729
1606700964
1606716895
1606733374
1606751501
1606770361
1606790381
1606806494
1606823584
1606837683
1606854345
1606869543
1606885901
1606901648
1606919043
1606939611
1606954931
1606976843
1607000585
1607026098
1607050451
1607072423
1607110631
1607172704
1607206578
1607254064
1607283055
1607351537
1607367100
1607382603
1607400853
1607415501
1607428380
1607442296
1607457371
1607473240
1607494236
1607510166
1607526585
1607541722
1607556431
1607575474
1607593235
1607607456
1607619297
1607634800
1607649754
1607668186
1607688511
1607705662
1607728428
1607748935
1607772434
1607935519
1608063632
1608093356
1608121615
1608362764
1608391573
1608473299
1608500154
1608522066
1608544099
1608655549
1608687898
1608724031
1608760530
1608794160
1608817475
1608836274
1608852448
1608877412
1608978485
1608999726
1609021454
1609051178
1609083161
1609404571
1609907865
1610119291
1610456692
1610482388
1610517544
1610547451
1610570644
1610596035
1610616909
1610640163
1611089503
1611115321
1611137232
1611161280
1611189661
1611295069
1611320704
1611344202
1611369532
1611393518
1611412561
1611433130
1611453394
1611472559
1611500452
1611521753
1611547937
1611572229
1611710351
1611729394
1611749597
1611775414
1611791772
1611806359
1611912011
1611931054
1611950524
1612001000
1612019066
1612039696
1612057640
1612076500
1612095726
1612204063
1612220482
1612235618
1612248985
1612264793
1612278526
1612293602
1612308311
1612322776
1612337364
1612350852
1612364097
1612379295
1612395652
1612409995
1612423667
1612437278
1612451560
1612464866
1612482078
1612501670
1612520224
1612541953
1612560508
1612579245
1612597373
1612609641
1612624228
1612639792
1612653098
1612668845
1612683737
1612697470
1612713095
1612726523
1612739340
1612753561
1612767111
1612780905
1612794821
1612808737
1612822409
1612836325
1612847982
1612862936
1612878073
1612891561
1612905111
1612917562
1612929281
1612943990
1612959127
1612973531
1612987264
1613001424
1613016317
1613029501
1613042989
1613057271
1613072652
1613085714
1613099996
1613112630
1613127523
1613139791
1613155294
1613167745
1613182942
1613195699
1613210347
1613224202
1613237508
1613250997
1613264668
1613278218
1613291402
1613303609
1613318745
1613331929
1613346821
1613364766
1613386128
1613415303
1613437581
1613457966
1613484883
1613565571
1613593159
1613631306
1613656330
1613709186
1613750507
1613955646
1613982379
1614005999
1614029864
1614052142
1614076373
1614099810
1614122210
1614146380
1614167498
1614193194
1614213885
1614235186
1614258135
1614276262
1614294878
1614313067
1614332354
1614352617
1614370562
1614387468
1614464555
1614486406
1614504777
1614524370
1614549028
1614573381
1614593217
1614610185
1614624955
1614641618
1614657426
1614669633
1614683610
1614694352
1614702348
1614710893
1614719193
1614727860
1614736649
1614745133
1614752335
1614760880
1614774552
1614796403
1614823014
1614844803
1614868119
1614893693
1614919388
1614943436
1614968216
1614991593
1615015091
1615038895
1615063370
1615085159
1615108902
1615129471
1615147171
1615161209
1615177933
1615193802
1615207412
1615218948
1615229751
1615243911
1615258438
1615272781
1615288223
1615301956
1615316848
1615327529
1615355972
1615621352
1616165296
1617107066
1617641427
1618248909
1618994756
1619537907
1620382509
1621148437
1621276000
1621966856
1622137876
1622890437
1623333612
1623784295
1624376456
1624816580
1625092946
1625112477
1625141042
1625164052
1625182546
1625204701
1625222890
1625242421
1625264943
1625286915
1625300465
1625316945
1625331532
1625343983
1625356190
1625367665
1625379628
1625391468
1625402943
1625414784
1625427174
1625437916
1625449574
1625460194
1625472523
1625484181
1625499073
1625509693
1625520252
1625533009
1625546802
1625560047
1625571522
1625583668
1625595875
1625607776
1625620350
1625632190
1625646228
1625659961
1625672290
1625687122
1625702014
1625713733
1625730823
1625742786
1625757434
1625769763
1625782214
1625796619
1625808643
1625819507
1625830188
1625842883
1625853442
1625866382
1625876208
1625889819
1625900439
1625913501
1625924731
1625937182
1625948718
1625963671
1625984851
1626078600
1626102526
1626126330
1626175280
1626202990
1626221911
1626240954
1626259630
1626276842
1626294542
1626610154
1626733811
1626757493
1626779404
1626801194
1626825242
1626848008
1626873825
1626898911
1626921555
1626947983
1626974045
1627047165
1627266708
1627291854
1627315047
1627337569
1627359054
1627380660
1627400741
1627420821
1627441817
1627462264
1627482772
1627509810
1627532515
1627554060
1627574690
1627594954
1627618269
1627641096
1627658919
1627684126
1627728682
1627755720
1627777388
1628094831
1628112714
1628126203
1628139813
1628153546
1628169293
1628186871
1628200970
1628214337
1628229901
1628243817
1628255292
1628269879
1628283246
1628297101
1628313031
1628325055
1628340008
1628354840
1628368817
1628384747
1628399822
1628412213
1628426922
1628443096
1628458355
1628474712
1628489605
1628508892
1628521099
1628536419
1628549847
1628567913
1628600261
1629018290
1629041483
1629065165
1629106120
1629171854
1629235941
1629475931
1629511209
1629587136
1629607583
1629626870
1629645974
1629663735
1629685769
1629713662
1629733620
1629757119
1629781167
1629804238
1629828591
1629849404
1629872719
1630542212
1630569189
1636303916
1639196670
1639421706
1639450209
1639475600
1639662672
1639856458
1639906385
1639928479
1639945203
1639963880
1640295544
1642258979
1642604864
1642637396
1642673529
1642699163
1642730108
1642751348
1642778692
1642797369
1642813055
1642831304
1642846929
1642866338
1642888067
1642913640
1642947942
1642973394
1642997075
1643023198
1643045903
1643067693
1643129643
1643154973
1643180729
1643202519
1643229557
1643249455
1643263920
1643280155
1643295048
1643309391
1643321659
1643331425
1643344303
1643353520
1643365421
1643376041
1643385441
1643395878
1643405643
1643416264
1643427189
1643438419
1643448307
1643458805
1643468509
1643479252
1643491092
1643501652
1643512821
1643523929
1643535099
1643545780
1643556522
1643567874
1643578556
1643588565
1643599918
1643610294
1643620609
1643631168
1643640933
1643650943
1643661807
1643672000
1643680484
1643691714
1643702213
1643712405
1643722232
1643733829
1643743289
1643753238
1643762210
1643773684
1643784793
1643794864
1643805423
1643814578
1643824832
1643834292
1643845523
1643856082
1643866397
1643875674
1643885501
1643896426
1643905276
1643917666
1643930117
1643940371
1643950747
1643960024
1643970095
1643981387
1643992373
1644003603
1644013247
1644023745
1644033144
1644042605
1644053042
1644064699
1644074038
1644085512
1644095339
1644107973
1644117617
1644128664
1644140932
1644151003
1644163393
1644174196
1644185244
1644197023
1644208742
1644218874
1644230165
1644239565
1644275453
1644360048
1644442750
1644468812
1644571168
1644687684
1644713990
1644738953
1644761597
1644849793
1644877136
1644901916
1644927124
1644998291
1645055603
1645103393
1645172668
1645197143
1645221191
1645262328
1645290343
1645319762
1645363646
1645387511
1645408995
1645440733
1645460875
1645493163
1645642088
1650085497
1650277696
1650350206
1650381273
1650590501
1652674602
1652849528
1652911662
1652972330
1653163004
1653295816
1653408242
1653574990
1654194984
1654352515
1654539892
1654910253
1655085606
1655295567
1655535312
1655626620
1655909213
1656241426
1656401216
1656638276
1656826385
1656892975
1657013824
1657144256
1657388457
1657826932
1657900113
1658094449
1658192288
1658257229
1658287319
1658307583
1658329861
1658343716
1658357998
1658377102
1658400661
1658476345
1658494777
1658508937
1658517909
1658526393
1658534145
1658542751
1658550441
1658558193
1658567531
1658576076
1658583217
1658590846
1658598659
1658607570
1658615199
1658623439
1658631374
1658638881
1658648219
1658656947
1658664821
1658672389
1658680385
1658687465
1658695277
1658702418
1658709132
1658716151
1658724513
1658731715
1658739589
1658747218
1658753749
1658761317
1658768519
1658776759
1658781947
1658792323
1658800929
1658807032
1658815394
1658822901
1658829005
1658835414
1658850977
1658872767
1658896021
1658915919
1658948511
1658987818
1659008875
1659039881
1659068140
1659095972
1659115442
1659139368
1659163355
1659184534
1659204736
1659227930
1659261926
1659287011
1659311487
1659375329
1659398339
1659422143
1659468041
1659492699
1659516076
1659541222
1659558312
1659571251
1659594323
1659609704
1659622887
1659631920
1659639916
1659647423
1659654747
1659662255
1659670922
1659678124
1659685875
1659692406
1659700096
1659707054
1659714867
1659723534
1659731285
1659741966
1659750023
1659757530
1659764977
1659775047
1659782921
1659792076
1659799278
1659807274
1659815636
1659821617
1659835045
1659847435
1659858848
1659871666
1659881431
1659889915
1659901085
1659911094
1659919029
1659927574
1659937706
1659946861
1659955284
1659964439
1659973045
1659981834
1659990196
1659999046
1660010826
1660020469
1660031089
1660039085
1660052757
1660076377
1660101646
1660123435
1660138572
1660158164
1660178611
1660199363
1660217551
1660236106
1660263938
1660420065
1660914205
1660959187
1660983601
1661009724
1661031758
1661049824
1661066365
1661084675
1661103169
1661120259
1661136372
1661152546
1661170246
1661185932
1661202229
1661219990
1661237934
1661263142
1661283772
1661473590
1661625262
1662172807
1662214311
1662306413
1662365434
1662389787
1662414750
1662484635
1662509049
1662956192
1665238840
1665269418
1666383673
1666946294
1667092961
1667485294
1667882693
1668159120
1668677124
1669393858
1669768735
1670229732
1670925531
1671247064
1671587029
1671960868
1673563952
1673928942
1674300340
1674694015
1675078719
1675341231
1675547590
1675750775
1675940594
1676504375
1676688578
1680773346
1681276152
1681759793
1682377529
1682793116
1683498131
1683531212
1683597069
1683625633
1684516500
1684542562
1684576681
1684712484
1684782491
1684907979
1684963581
1690260626
1692300050
1692803039
1693287657
1695744499
1695887687
1696435110
1696661244
1696807240
1697314685
1698528732
1698743820
1698797897
1699651471
1699936688
1699997295
1700131023
1700394267
1700529399
1700618876
1700645426
1700962442
1701122598
1701900855
1703010532
1703353976
1704122834
1704139070
1704210480
1704337189
1704496429
1704529510
1704550140
1704572296
1704594940
1704614227
1704628692
1704641143
1704653472
1704664398
1704673736
1704682464
1704689910
1704697296
1704704864
1704713104
1704720794
1704727874
1704738860
1704746673
1704754302
1704762725
1704771819
1704779571
1704785796
1704792754
1704803374
1704811736
1704820159
1704827178
1704834197
1704843658
1704850249
1704858062
1704865752
1704874053
1704881499
1704888946
1704896575
1704904570
1704909026
1704918792
1704925628
1704934539
1704939849
1704947539
1704953398
1704960418
1704967925
1704977568
1704983489
1704991118
1704999968
1705005278
1705014006
1705021514
1705027922
1705036345
1705042388
1705049162
1705058989
1705067229
1705083769
1705096220
1705104338
1705112639
1705121855
1705130095
1705137175
1705144682
1705152067
1705159880
1705167448
1705176970
1705184904
1705193083
1705200102
1705208098
1705214872
1705223356
1705230009
1705236357
1705244596
1705252104
1705257414
1705266691
1705274382
1705282133
1705288420
1705294950
1705303068
1705309477
1705316740
1705324430
1705330961
1705338835
1705347563
1705355070
1705360319
1705369169
1705376615
1705383329
1705390226
1705398893
1705405729
1705411222
1705424222
1705444913
1705470609
1705489591
1705501615
1705514371
1705523526
1705531583
1705539396
1705546598
1705553983
1705561246
1705569242
1705577298
1705583646
1705590787
1705597684
1705604947
1705611600
1705621854
1705629239
1705636990
1705645535
1705652249
1705660550
1705667081
1705675320
1705683682
1705691495
1705699490
1705706509
1705713040
1705720608
1705730923
1705738125
1705745022
1705751370
1705759549
1705766324
1705773648
1705781460
1705789822
1705797696
1705805813
1705812222
1705818692
1705827542
1705834622
1705841885
1705848721
1705855801
1705860989
1705868252
1705877835
1705883389
1705889736
1705900357
1705905178
1705916348
1705929348
1705935513
1705943997
1705951565
1705959072
1705970791
1705980007
1705986721
1705995388
1706001797
1706008816
1706016262
1706025722
1706029446
1706039760
1706045803
1706054653
1706063808
1706068935
1706075344
1706084621
1706091640
1706098659
1706107021
1706112087
1706120510
1706125698
1706133876
1706140712
1706149562
1706157253
1706167079
1706173915
1706182155
1706191310
1706199184
1706207424
1706212489
1706220485
1706228847
1706236110
1706243129
1706248622
1706259181
1706266811
1706273280
1706280360
1706286525
1706292873
1706299281
1706307948
1706316310
1706322169
1706329982
1706335414
1706343043
1706352016
1706360255
1706368129
1706374965
1706384608
1706391505
1706399135
1706407557
1706417689
1706424952
1706433619
1706439723
1706447291
1706457240
1706465724
1706473963
1706480555
1706489466
1706494837
1706502467
1706508448
1706516017
1706523097
1706532618
1706542506
1706548731
1706556422
1706564600
1706571680
1706577906
1706585108
1706593287
1706599390
1706606470
1706622156
1706635218
1706650904
1706660181
1706667566
1706676111
1706685694
1706693689
1706701197
1706709009
1706717005
1706723902
1706730677
1706737696
1706745569
1706753565
1706760828
1706767664
1706775049
1706782190
1706790308
1706796289
1706804590
1706809839
1706818323
1706824182
1706832483
1706840051
1706847315
1706853967
1706861841
1706869043
1706876367
1706884485
1706891382
1706897729
1706905542
1706911340
1706917749
1706925073
1706933252
1706941186
1706948938
1706954248
1706962121
1706968652
1706975976
1706984277
1706992273
1707007837
1707029504
1707046960
1707061669
1707087792
1707141259
1707162988
1707197472
1707220238
1707241906
1707281884
1707319725
1707342125
1707399681
1707439903
1707503746
1707606285
1707623863
1707646934
1707809409
1707823813
1707921347
1707957114
1707981101
1708020712
1708041953
1708063254
1708113364
1708131491
1708151449
1708175314
1708195822
1708209799
1708229940
1708246786
1708262594
1708274008
1708283712
1708297384
1708309408
1708321981
1708343649
1708366659
1708379476
1708397298
1708420248
1708447957
1708467611
1708483724
1708500264
1708517842
1708534444
1708633321
1708675923
1708704060
1708790425
1708816059
1708838276
1708861042
1708883686
1708905537
1708925312
1708937214
1708951923
1708967365
1708985615
1709002033
1709015827
1709032184
1709053119
1709072895
1709090961
1709112140
1709127460
1709143024
1709158832
1709184894
1709206989
1709227130
1709247760
1709263751
1709278644
1709293048
1709306903
1709323016
1709340655
1709354938
1709370868
1709387042
1709401141
1709417559
1709434344
1709839677
1709862444
1709882890
1710284623
1710308243
1710358902
1710382340
1710408463
1710431351
1710454971
1710476700
1710500442
1710525223
1710545913
1710570450
1710592788
1710613906
1710634109
1710698806
1710721145
1710743179
1710766067
1710785354
1710808059
1710828628
1710845900
1710867751
1710886550
1710906264
1710926100
1710944899
1710963881
1710984633
1711008254
1711028517
1711047743
1711065199
1711086134
1711108290
1711147596
1711454480
1711557996
1711577527
1711597730
1711613538
1711631116
1711651685
1712115123
1712133678
1712150341
1712167247
1712185008
1712199657
1712215892
1712231212
1712251353
1712266734
1712285533
1712300792
1712313365
1712328074
1712341441
1712354381
1712369578
1712384532
1712399241
1712413157
1712426524
1712440135
1712452281
1712466929
1712481394
1712495921
1712509165
1712522349
1712535899
1712547861
1712562693
1712577036
1712592234
1712605906
1712619639
1712633371
1712647410
1712666697
1712681711
1712695505
1712711191
1712730966
1712847177
1712866952
1712884592
1713110421
1713135445
1713172677
1713188180
1713202767
1713217599
1713233956
1713248482
1713265694
1713280648
1713297554
1713313607
1713327889
1713342781
1713356209
1713369087
1713382637
1713400581
1713422310
1713500801
1713526069
1713549873
1713566169
1713579658
1713592903
1713608467
1713622322
1713635383
1713650154
1713663276
1713676277
1713690193
1713705024
1713719184
1713732429
1713745307
1713759284
1713773261
1713787726
1713802436
1713816352
1713829780
1713844916
1713858039
1713872443
1713885932
1713901313
1713915595
1713929938
1713944586
1713958075
1713972113
1713985297
1714001471
1714015997
1714030890
1714043646
1714058050
1714071905
1714087042
1714102606
1714116583
1714129339
1714143622
1714157599
1714172552
1714187933
1714202398
1714216558
1714231390
1714244818
1714257147
1714271795
1714287176
1714301336
1714316534
1714330083
1714343084
1714358037
1714371160
1714386480
1714400335
1714415105
1714429143
1714442815
1714456609
1714470464
1714485418
1714499456
1714513799
1714527593
1714540959
1714555852
1714569646
1714584111
1714597661
1714610478
1714625859
1714638310
1714653630
1714669499
1714683964
1714697148
1714710270
1714724797
1714739140
1714753788
1714771916
1714790532
1714807804
1714829655
1714845524
1714860172
1714874210
1714888004
1714900639
1714915043
1714928593
1714942631
1714959293
1714971866
1714986088
1715001713
1715016666
1715029422
1715043705
1715056827
1715071415
1715086978
1715100894
1715113651
1715126468
1715141544
1715155277
1715169803
1715182926
1715197025
1715209598
1715225223
1715238589
1715251407
1715267642
1715280826
1715294559
1715307742
1715322146
1715335879
1715350772
1715363833
1715376773
1715391116
1715405764
1715419253
1715433230
1715447695
1715460574
1715473879
1715487551
1715502566
1715515871
1715529604
1715542361
1715558718
1715572939
1715586733
1715600954
1715614138
1715627077
1715643190
1715658083
1715670717
1715683840
1715697756
1715711611
1715725588
1715741945
1715761904
1715782106
1715797304
1715820924
1715837709
1715916749
1715951417
1716006654
1716030274
1716053468
1716542602
1716595153
1716630859
1716675414
1716726562
1716770019
1716807555
1716827575
1716851012
1716872863
1716889952
1716905272
1717002379
1717111326
1717131712
1717153502
1717172728
1717194578
1717215879
1717235227
1717257017
1717279661
1717299375
1717316709
1717330259
1717345457
1717360105
1717374631
1717387327
1717401792
1717417661
1717430478
1717445066
1717459470
1717471799
1717488217
1717504941
1717524655
1717547238
1717581296
1717604672
1717625729
1717648556
1717670529
1718054256
1718088436
1718110042
1718128108
1718143672
1718159358
1718173763
1718188106
1718203548
1718217097
1718231258
1718246577
1718259517
1718273311
1718287288
1718301753
1718316035
1718329402
1718344416
1718356440
1718372981
1718387324
1718400874
1718413386
1718427729
1718442927
1718456233
1718468989
1718482966
1718497187
1718510493
1718524470
1718537348
1718552607
1718566340
1718579645
1718593073
1718608027
1718621698
1718635675
1718647821
1718661432
1718674311
1718688593
1718703485
1718715692
1718730341
1718744806
1718758539
1718769403
1718784601
1718798334
1718812189
1718827386
1718954095
1718975885
1719003717
1719063104
1719088860
1719135003
1719160271
1719182854
1719203484
1719224053
1719244316
1719263970
1719285088
1719325066
1719339165
1719355034
1719368340
1719468620
1719496757
1719557975
1719574821
1719590568
1719606681
1719620719
1719638847
1719661247
1719678825
1719693473
1720559071
1720596303
1720905567
1721148547
1721639879
1722186203
1722208970
1722231858
1722251999
1722273545
1722292587
1722322678
1722353561
1722375412
1722395004
1722419296
1722439377
1722535263
1722607711
1722671249
1722709029
1722736434
1722769698
1722832442
1722856063
1722879683
1722902571
1722922591
1722948775
1723139021
1724490336
1725200356
1728402374
1728523162
1728957732
1729012663
1729068815
1729121488
1729171171
1729264188
1729289884
1729313138
1729335416
1729358365
1729378507
1729397245
1729416165
1729908108
1729945827
1729970607
1729997402
1730024379
1730047084
1730070155
1730089931
1730108424
1730129665
1730154628
1730179164
1730204066
1730227992
1730252467
1730278773
1730304164
1730329066
1730354029
1730378138
1730402491
1730424342
1730450220
1730475245
1730581018
1730671045
1730697473
1730742761
1730776452
1730800012
1730862085
1730995812
1731081322
1731144494
1731167626
1731185814
1731209496
1731233666
1731406578
1731423912
1731445640
1731511009
1731542137
1731568382
1731594383
1731620322
1731978964
1734776015
1737552985
1737921759
1737954657
1737982123
1738640690
1738767521
1739226809
1740152466
1740796019
1741342832
1742686334
1743603141
1743912893
1744106619
1744229604
1744257253
1744293325
1744357594
1744415456
1744589894
1744607899
1744626515
1744648426
1744669911
1744692494
1744748463
1744774036
1744817798
1744840076
1744861560
1744903492
1744919666
1745057544
1745128283
1745151538
1745169116
1745185534
1745200488
1745220812
1745241686
1745257739
1745272448
1745286791
1745301867
1745319872
1745336596
1745351977
1745365526
1745382555
1745399096
1745420580
1745434435
1745451647
1745469164
1745490831
1745510424
1745530565
1745778855
1745801499
1745820664
1745835618
1745846787
1745860520
1745872971
1745886582
1745898667
1745910447
1745922776
1745935166
1745950364
1745961838
1745975327
1745986252
1745994248
1746004624
1746010850
1746022690
1746035264
1746047959
1746059433
1746072007
1746085862
1746100022
1746115402
1746131027
1746145371
1746160996
1746172653
1746189621
1746203232
1746789351
1749805151
1749994604
1750044653
1750071691
1750096105
1750119970
1750140600
1750164831
1750188939
1750240453
1750265477
1751441256
1751587556
1751690278
1751722078
1751745454
1751770478
1751793611
1751816865
1751839021
1751864961
1751888764
1751937775
1753267301
1754262354
1754513147
1754745385
1755032738
1755315269
1755504783
1755778891
1755822775
1756003378
1756187703
1756663288
1756735126
1756754841
1756771930
1756786579
1756804340
1756817524
1756839862
1756860248
1756876789
1756888812
1756899432
1756910785
1756921283
1756932147
1756943134
1756952655
1756963275
1756974567
1756984088
1756993426
1757004046
1757013995
1757023578
1757034198
1757043170
1757052447
1757062884
1757073626
1757083880
1757094073
1757104022
1757114764
1757124041
1757134600
1757145404
1757154864
1757164385
1757174090
1757185504
1757195086
1757205157
1757216204
1757225298
1757236163
1757245928
1757254900
1757264910
1757275530
1757283709
1757293230
1757301958
1757314226
1757324358
1757333513
1757343035
1757353716
1757363787
1757375628
1757383989
1757393511
1757405169
1757414629
1757425127
1757434404
1757443254
1757453081
1757464495
1757473100
1757484270
1757495073
1757505083
1757512529
1757523576
1757530962
1757542741
1757554765
1757564836
1757575517
1757585954
1757593217
1757603715
1757615434
1757623796
1757635087
1757643510
1757652849
1757662736
1757674516
1757684892
1757695939
1757703324
1757714372
1757722978
1757736283
1757746110
1757757340
1757767167
1757778214
1757791703
1757814408
1757834489
1757895219
1757915665
1757935929
1757969559
1757998490
1758062454
1758085587
1758122147
1758147842
1758187881
1758221939
1758245254
1758270157
1758316482
1758368850
1758396621
1758421279
1758446120
1758474624
1758501052
1758549209
1758588759
1758629286
1758654982
1758675673
1758704970
1758727980
1758755263
1758779066
1758802626
1758825209
1758847914
1758894606
1758918837
1758942152
1759021558
1759066114
1759171155
1759209729
1759502941
1759634655
1759681835
1760548044
1762477055
1762751224
1763973877
1766474054
1767288566
1769283007
1769929734
1769970749
1769996933
1770021957
1770046738
1770088119
1770108566
1770130661
1770154464
1770177353
1770200485
1770217453
1770235763
1770255905
1770271408
1770285629
1770298995
1770314010
1770332565
1770358321
1770379134
1770399703
1770418197
1770435653
1770450545
1770462813
1770478377
1770491744
1770504073
1770516280
1770531356
1770601363
1770616499
1770629683
1770644759
1770658736
1770672652
1770685713
1770697676
1770713057
1770726973
1770739973
1770753279
1770764998
1770782515
1770801191
1770820662
1770844221
1770863752
1770884016
1770899214
1771863567
1772513528
1772525430
1772536111
1772548684
1772556680
1772567239
1772576028
1772584268
1772592324
1772599343
1772607583
1772615213
1772623757
1772632302
1772639321
1772646768
1772655679
1772662881
1772668496
1772676064
1772682778
1772690652
1772699319
1772704995
1772712685
1772720559
1772727212
1772731850
1772743020
1772748391
1772755837
1772762368
1772769204
1772775979
1772783974
1772790810
1772797463
1772804421
1772811745
1772819314
1772824990
1772833718
1772842812
1772848122
1772855324
1772862282
1772869973
1772875222
1772885170
1772892617
1772900429
1772907509
1772912514
1772919167
1772929909
1772943947
1772953408
1772972572
1772986488
1773002297
1773015419
1773030495
1773041969
1773058388
1773073036
1773086342
1773098976
1773110084
1773124061
1773135597
1773146278
1773159645
1773172340
1773183265
1773197670
1773209205
1773221229
1773230873
1773242164
1773255714
1773268775
1773281593
1773293189
1773305030
1773317054
1773329017
1773341468
1773353919
1773365272
1773377662
1773388282
1773400672
1773410926
1773423499
1773435340
1773447730
1773464148
1773478003
1773493323
1773513465
1773529273
1773544531
1773559546
1773573584
1773589148
1773603552
1773617102
1773629736
1773640173
1773651953
1773662329
1773675513
1773687048
1773701269
1773712195
1773726904
1773738501
1773749304
1774142797
1774339268
1774789340
1774805393
1774825229
1774840854
1774853305
1774868442
1774883151
1774898227
1774912204
1774925754
1774938632
1774949374
1774961459
1774973178
1774984591
1774995150
1775006076
1775019686
1775032687
1775045199
1775062350
1775077487
1775093050
1775109957
1775121676
1775132601
1775143160
1775154391
1775168001
1775179293
1775191744
1775203768
1775215792
1775225557
1775238497
1775251253
1775264071
1775276644
1775289095
1775301729
1775313326
1775326021
1775339083
1775351229
1775365206
1775377535
1775389803
1775402498
1775416109
1775890656
1775975556
1776002777
1776543547
1776636259
1776659636
1776732023
1776759062
1776781095
1776827848
1776851103
1776925626
1776949125
1776966215
1776983243
1776997831
1777011442
1777026578
1777041715
1777053434
1777065396
1777076017
1777088224
1777099088
1777110562
1777122891
1777136624
1777153592
1777168790
1777188260
1777203397
1777220059
1777244351
1777260892
1777275418
1777298184
1777320706
1777346890
1777365506
1777386929
1777400418
1777413723
1777429653
1777448574
1777463772
1777484097
1777500820
1777521633
1777544643
1777566982
1777588222
1777609157
1777632900
1777671230
1777705348
1777729824
1777752956
1777770412
1777792079
1777813808
1777837367
1777862453
1777919948
1777946803
1777978602
1777999842
1778023646
1778041102
1778059107
1778091029
1778170679
1778201319
1778222437
1778255030
1778280603
1778319849
1778347131
1778369226
1778387415
1778414453
1778439050
1778463830
1778489343
1778517236
1778541040
1778562768
1778581750
1778629846
1778655908
1778683984
1778711388
1778765587
1778873375
1778900780
1778931053
1778950035
1778971459
1778994041
1779020409
1779045128
1779070701
1779100914
1779125938
1779418601
1779483481
1779716086
1779746420
1779779501
1780078328
1780174702
1780287739
1780399494
1780437580
1780478779
1780627765
1780670185
1780741779
1780847919
1780875751
1780967791
1780995318
1781027300
1781190752
1781218218
1781298052
1781328386
1781358781
1781384966
1781409624
1781433122
1781458452
1781483293
1781508012
1781531511
1781554887
1781579667
1781601090
1781625932
1781646806
1781671586
1781693742
1781717728
1781740311
1781763321
1781792374
1781815934
1781842911
1781859024
1781881302
1781899979
1781928238
1781948746
1781967606
1781988663
1782005630
1782026138
1782046097
1782066971
1782089309
1782112198
1782135452
1782155410
1782180252
1782201431
1782222000
1782240371
1782262588
1782279189
1782296218
1782314651
1782329970
1782345901
1782384353
1782407790
1782466628
1782925245
1783067090
1783622203
1783739879
1784195688
1784225473
1784252451
1784368967
1784495309
1785488654
1785721868
1786140385
1786616458
1786732791
1786893374
1787303163
1787995972
1788773435
1789085935
1790119929
1791424552
1791853689
1792383045
1793081103
1793280138
1794312179
1795122357
1795275921
1795796916
1795893290
1796009684
1796210184
1796347635
1796439553
1796740822
1799275728
1799439057
1799471467
1799550690
1799600617
1799653718
1799710297
1799755829
1799886810
1799913055
1799937286
1799980926
1800009063
1800227996
1800277800
1800296843
1800314177
1800334136
1800351592
1800368010
1800382353
1800397856
1800413115
1800431975
1800452605
1800468962
1800489653
1800514921
1800535185
1800554167
1800572966
1800590178
1800606474
1800620024
1800635710
1800652738
1800671293
1800688322
1800704313
1800720976
1800734953
1800754484
1800769376
1800786588
1800802701
1800820280
1800836454
1800851590
1800870267
1800886503
1800903043
1800919583
1800943814
1800968167
1800989163
1801005338
1801020474
1801035672
1801050748
1801064175
1801079800
1801097623
1801114895
1801132474
1801148221
1801170071
1801190701
1801211209
1801227261
1801242703
1801258328
1801273037
1801287258
1801303372
1801319485
1801334194
1801349819
1801367153
1801381130
1801398525
1801413723
1801429348
1801444179
1801460170
1801488430
1801508998
1801525661
1801540126
1801556056
1801571376
1801585353
1801601711
1801615505
1801629482
1801643275
1801662990
1801681239
1801696803
1801713527
1801732997
1801748256
1801765101
1801781276
1801804530
1801912928
1802020106
1802055872
1802187586
1802306787
1802393457
1802487451
1802516930
1802936790
1802970421
1802999107
1803027061
1803365317
1803391806
1803418539
1803467673
1803488364
1803595541
1803665060
1803690145
1803711019
1803728048
1803746969
1803770772
1803805684
1803831136
1803854635
1803876912
1803899251
1803940450
1803960591
1803977986
1804104329
1804127827
1804150105
1804172078
1804195515
1804220356
1804243183
1804268086
1804289326
1804313618
1804335224
1804356464
1804373188
1804388508
1804408100
1804420978
1804438984
1804456684
1804471149
1804496784
1804519062
1804542865
1804602680
1804635883
1804651874
1804668231
1804687152
1804704303
1804718402
1804735064
1804752337
1804767840
1804787799
1804804278
1804823626
1804843890
1804980181
1805497270
1805839615
1806233535
1806664564
1806885205
1806967420
1807393017
1808088816
1810198063
1810313847
1810401615
1810420536
1810429081
1810443058
1810462833
1810480289
1810500553
1810520389
1810544620
1810566715
1810597232
1811069033
1814297357
1814546380
1814578545
1814613396
1814637505
1814667351
1814847343
1814913383
1815290030
1815318778
1815344717
1815368399
1815391775
1815415030
1816765795
1817050768
1817309678
1817341722
1817727768
1817766586
1817847152
1818882184
1822008336
1822428562
1822453525
1822484103
1822507541
1822527621
1822544223
1822556918
1822577304
1822599399
1822620212
1822635104
1822651156
1822665622
1822678439
1822688571
1822699374
1822712313
1822736666
1822753878
1822770297
1822782015
1822793856
1822806796
1822819125
1822830904
1822841097
1822851046
1822861544
1822873446
1822883517
1822893465
1822903902
1822914888
1822923922
1822933748
1822945589
1822955660
1822967012
1822977571
1822986971
1822995821
1823005648
1823106355
1823138277
1823185396
1824041350
1824844022
1824901883
1826417016
1826799461
1828752703
1828883806
1830368055
1830996838
1831202465
1831256969
1831285595
1831307140
1831323680
1831338207
1831355052
1831372508
1831388805
1831409313
1831427745
1831449413
1831507091
1831520213
1831589427
1831611888
1831638987
1831656687
1831675913
1831691477
1831706065
1831721690
1831737437
1831749216
1831758250
1831765757
1831773569
1831780100
1831788523
1831796335
1831804331
1831811960
1831820200
1831827891
1831836619
1831845408
1831853769
1831861338
1831869028
1831876780
1831884043
1831891062
1831897043
1831905649
1831914194
1831922251
1831927744
1831935495
1831943308
1831949533
1831955942
1831963816
1831972544
1831979379
1831986276
1831993723
1832000192
1832008005
1832014719
1832022470
1832031076
1832040048
1832048654
1832055978
1832063547
1832071970
1832079660
1832087717
1832095651
1832100961
1832108407
1832116891
1832123666
1832132882
1832139291
1832145822
1832153879
1832161874
1832167611
1832173898
1832181894
1832196542
1832210763
1832224923
1832238778
1832248971
1832258004
1832268258
1832277657
1832286508
1832295785
1832305001
1832317147
1832326730
1832334664
1832342843
1832350594
1832357430
1832365182
1832372323
1832379403
1832386300
1832393258
1832399972
1832405892
1832412484
1832420357
1832427315
1832434578
1832441048
1832448128
1832454598
1832461129
1832467476
1832473519
1832481575
1832487252
1832493782
1832500374
1832508980
1832514717
1832528694
1832535225
1832542671
1832549019
1832557259
1832565254
1832571968
1832579231
1832585579
1832593941
1832602547
1832607674
1832615852
1832623360
1832629280
1832636971
1832642647
1832652412
1832658028
1832665901
1832672676
1832679268
1832686653
1832692818
1832698311
1832708504
1832714668
1832723030
1832728889
1832735420
1832743049
1832749397
1832759102
1832765571
1832772102
1832780647
1832787483
1832792732
1832800666
1832811714
1832824714
1832834663
1832853584
1832872138
1832893928
1832918769
1832941474
1832961188
1832975715
1832992683
1833015815
1833065375
1833093512
1833123419
1833169501
1833194037
1833238837
1833280768
1833310675
1833337896
1833358587
1833373846
1833389288
1833410711
1833444403
1833467596
1833495001
1833520147
1833542425
1833564275
1833584661
1833636052
1833659063
1833684453
1833707524
1833726506
1833747319
1833770390
1833793218
1833813847
1833831120
1833842534
1833855656
1833872197
1833884587
1833898869
1833912358
1833926701
1833941716
1833960576
1833974430
1833989994
1834004338
1834020512
1834040592
1834056767
1834075382
1834091557
1834106693
1834139103
1834155155
1834172977
1834189396
1834207035
1834226261
1834246708
1834265506
1834284427
1834329410
1834352420
1834372074
1834392093
1834404544
1834423343
1834439029
1834454471
1834470279
1834485721
1834500125
1834517703
1834537173
1834560550
1834588626
1834610598
1834631900
1834670107
1834704958
1834729250
1834758730
1834784792
1834808474
1834830507
1834856508
1834879030
1835215028
1836589292
1838058893
1839080008
1839554067
1839984730
1842748273
1843359721
1843672038
1844173684
1844556068
1844774452
1845459203
1845833714
1845936375
1845955540
1846708224
1846940584
1847344941
1847362885
1847373566
1847392609
1847405793
1847416901
1847427338
1847438202
1847447541
1847458100
1847468720
1847478729
1847490448
1847500214
1847509796
1847519379
1847528717
1847537933
1847549286
1847559296
1847569549
1847579010
1847587982
1847597565
1847606293
1847618622
1847626678
1847638397
1847647247
1847659027
1847667511
1847678619
1847687530
1847698455
1847707672
1847719635
1847729095
1847739227
1847748748
1847757598
1847770111
1847781036
1847793487
1847802581
1847813140
1847822540
1847831390
1847842742
1847852508
1847863250
1847873016
1847880584
1847893706
1847904204
1847913482
1847922210
1847933745
1847943999
1847952666
1847962798
1847973662
1847981841
1847992949
1848005217
1848014312
1848023345
1848032927
1848041960
1848051665
1848061370
1848072905
1848081328
1848090300
1848101347
1848112578
1848123137
1848133513
1848145354
1848156523
1848166594
1848174284
1848187529
1848197172
1848209379
1848216398
1848228422
1848239958
1848248808
1848260038
1848268950
1848278532
1848288725
1848297819
1848308927
1848320890
1848330900
1848340666
1848349455
1848360990
1848371671
1848380338
1848391508
1848398832
1848410062
1848420622
1848430143
1848441618
1848450895
1848461942
1848470548
1848480558
1848491422
1848500455
1848509244
1848524015
1848531888
1848543241
1848552457
1848561795
1848572660
1848583219
1848592679
1848604642
1848613858
1848621610
1848635953
1848643155
1848654813
1848665677
1848677762
1848687222
1848697476
1848707181
1848717801
1848727017
1848736722
1848748135
1848757107
1848767728
1848779263
1848788968
1848798672
1848816556
1848834378
1848854397
1848873440
1848895352
1848925991
1848952236
1848979458
1849009182
1849032619
1849053554
1849072048
1849298549
1849331081
1849355678
1849386745
1849411220
1849433375
1849450099
1849471888
1849485987
1849499293
1849512782
1849526148
1849541529
1849553309
1849565394
1849577784
1849590540
1849604212
1849620387
1849633936
1849647852
1849660975
1849674525
1849688074
1849700281
1849713282
1849728235
1849743738
1849755152
1849768457
1849782862
1849800684
1849820154
1849843164
1849866968
1849887598
1849910974
1849940942
1849966760
1849988122
1850015771
1850034387
1850046960
1850064477
1850077600
1850093469
1850106774
1850120629
1850133813
1850146813
1850161096
1850185449
1850205956
1850227868
1850249413
1850273522
1850297387
1850323266
1850346520
1850371666
1850395226
1850526268
1850548180
1850568443
1850593284
1850616173
1850639366
1850661399
1850683921
1850699546
1850723228
1850745262
1850777366
1850982627
1850995810
1851006674
1851017966
1851029807
1851040183
1851051474
1851061667
1851075156
1851086813
1851098471
1851109579
1851121176
1851132895
1851143637
1851155478
1851165671
1851177206
1851191488
1851203879
1851215475
1851227255
1851239401
1851250631
1851261679
1851273764
1851284018
1851295919
1851306906
1851317282
1851328451
1851340292
1851349874
1851361959
1851372335
1851383444
1851398641
1851418722
1851439901
1851457540
1851482320
1851505514
1851542012
1851561055
1851589803
1851648885
1851704488
1851724507
1851776021
1851801350
1851855244
1851873921
