1895448944
1895467681
1895480926
1895499358
1895514129
1895529632
1895546416
1895562652
1895579131
1895593108
1895608245
1895624419
1895639556
1895655242
1895670440
1895686980
1895703215
1895719329
1895734831
1895749053
1895766448
1895784270
1895799406
1895816069
1895831694
1895846709
1895862395
1896106168
1896122282
1896143949
1896166288
1896505581
1896523648
1896541470
1896557705
1896575161
1896591702
1896610012
1896624172
1896640286
1896655361
1896672634
1896688992
1896704922
1896722317
1896737942
1896753933
1896770412
1896786037
1896802944
1896820034
1896835598
1896851894
1896867763
1896884426
1896899623
1896916530
1896933925
1896950649
1896965846
1896981166
1896995448
1897011256
1897032436
1897048671
1897062282
1897077968
1897093165
1897106349
1897122401
1897136683
1897152858
1897166590
1897182887
1897198146
1897211878
1897227320
1897242701
1897258936
1897272975
1897289271
1897302699
1897319117
1897334437
1897349268
1897364710
1897380457
1897394190
1897410486
1897424646
1897439966
1897458826
1897666772
1897688318
1897706140
1897722863
1897775109
1897799401
1897821679
1897919946
1897970055
1898128075
1898729636
1898866293
1898892111
1898909567
1899443562
1899470479
1899613606
1899636921
1899659260
1899678608
1899699787
1899721699
1899741840
1899761738
1899782367
1899802631
1899823810
1899844684
1899864582
1899884479
1899904804
1899925800
1899945087
1899967487
1899987140
1900007281
1900028583
1900051410
1900075397
1900101642
1900123431
1900142962
1900163653
1900184893
1900205157
1900226580
1900248797
1900270037
1900290301
1900310137
1900331682
1900351885
1900372210
1900392473
1900413164
1900434649
1900455339
1900474749
1900496294
1900515825
1900535173
1900555437
1900576067
1900597368
1900618547
1900639299
1900660539
1900681962
1900702714
1900724626
1900744523
1900767594
1900787797
1900807633
1900829362
1900848893
1900871110
1900891862
1900911820
1900929520
1900953141
1900974198
1900995621
1901016495
1901037186
1901058243
1901078324
1901099991
1901120438
1901142410
1901162003
1901185074
1901206253
1901225967
1901247696
1901267776
1901290237
1901315139
1901342361
1901367691
1901393569
1901418838
1901437209
1901454360
1901476577
1901498977
1901519790
1901539626
1901557021
1901577224
1901597426
1901616469
1901635695
1901654067
1901673476
1901691847
1901712599
1901731520
1901751418
1901771254
1901791518
1901811598
1901831862
1901851515
1901871229
1901891493
1901910780
1901930433
1901950941
1901970472
1901986585
1902005323
1902021559
1902037733
1902052564
1902068006
1902082349
1902097608
1902114332
1902128004
1902144178
1902158399
1902172986
1902187574
1902202344
1902222974
1902245679
1902269727
1902297071
1902327039
1902350415
1902373547
1902398511
1902419873
1902443677
1902468823
1902492688
1902537670
1902567822
1902594982
1902622631
1902643993
1902765880
1902785961
1902804149
1902822094
1902840099
1902858165
1902876171
1902895336
1902911876
1902930003
1902948985
1902968761
1902985362
1903002635
1903020579
1903038402
1903055858
1903073192
1903091624
1903109385
1903126048
1903145152
1903163218
1903180064
1903198802
1903216685
1903235911
1903252940
1903271128
1903289011
1903307017
1903324045
1903342844
1903361948
1903383127
1903403574
1903425241
1903450266
1903477060
1903513254
1903645883
1903674997
1903696054
1903719369
1903743478
1903764535
1903788949
1903815682
1903869576
1903977181
1904476142
1904512702
1904568854
1904632025
1904858465
1904900213
1904921881
1904940618
1904961004
1904977972
1904997991
1905017034
1905034918
1905053899
1905072088
1905091253
1905109319
1905129278
1905157781
1905178960
1905199651
1905220647
1905487736
1905522221
1905555607
1905573185
1905593083
1905676578
1905695560
1905713016
1905737430
1906073245
1906095401
1906113833
1906131655
1906150393
1906168154
1906187136
1906205447
1906223757
1906241885
1906261050
1906285281
1906584535
1906600099
1906614320
1906628236
1906643922
1906658204
1906672426
1906689698
1906703798
1906716981
1906732057
1906746278
1906760743
1906780030
1906793092
1906809205
1906824769
1906838441
1906852784
1906868958
1906906495
1906921021
1906937073
1906963990
1906979371
1906998658
1907013306
1907027222
1907039917
1907053711
1907067993
1907082215
1907094483
1907109863
1907123535
1907136719
1907151611
1907164856
1907183044
1907225403
1907244995
1907267944
1907283935
1907306823
1907824949
1907873838
1907889830
1907905882
1907920896
1907936949
1907953306
1907969847
1907985349
1907999632
1908015379
1908030515
1908044675
1908058530
1908072507
1908086240
1908099729
1908113157
1908127927
1908142026
1908157163
1908169004
1908182431
1908197385
1908209409
1908224362
1908237851
1908251035
1908264768
1908278684
1908292172
1908306760
1908319089
1908333066
1908347409
1908361447
1908374814
1908388241
1908404477
1908419980
1908433468
1908446103
1908459652
1908472714
1908487667
1908501889
1908533871
1908553524
1908619930
1909071223
1909093501
1909114741
1909169428
1909279597
1909303827
1909328425
1909350824
1909372126
1909614496
1909631952
1909645685
1909658685
1909672662
1909686639
1909699029
1909713372
1909727655
1909742242
1909754876
1909769769
1909782342
1909797234
1909811272
1909824029
1909837945
1909851434
1909866875
1909880059
1909892998
1909907586
1909921013
1909935296
1909949273
1909961785
1909975762
1909989800
1910002800
1910018059
1910031365
1910046013
1910058342
1910071587
1910085991
1910099846
1910113884
1910126274
1910140190
1910154289
1910168266
1910182793
1910195244
1910211601
1910231315
1910251030
1910273552
1910295402
1910315177
1910336540
1910357170
1910371208
1910386039
1910400077
1910416373
1910428642
1910443656
1910460258
1910475577
1910490043
1910502189
1910526114
1910902883
1910928701
1911018789
1911049673
1911067678
1911083852
1911097829
1911112050
1911124441
1911138418
1911153188
1911166188
1911181020
1911194936
1911209401
1911222341
1911236806
1911250478
1911264760
1911278920
1911292714
1911306142
1911320546
1911334218
1911347646
1911360463
1911374928
1911390614
1911404530
1911418141
1911431386
1911444020
1911458424
1911474232
1911488514
1911502858
1911516590
1911530995
1911544972
1911557667
1911570912
1911584705
1911599781
1911614796
1911628956
1911641651
1911655872
1911670521
1911686573
1911702381
1911717151
1911731312
1911746448
1911762928
1911789783
1911825794
1911884815
1912081591
1912098986
1912114245
1912129260
1912146166
1912159167
1912174365
1912189379
1912203417
1912220080
1912234057
1912249255
1912264818
1912279711
1912293261
1912308275
1912320910
1912335863
1912351488
1912375963
1912391161
1912404955
1912419054
1912435655
1912564928
1912582933
1912601671
1912942612
1912959214
1912978745
1912996323
1913014206
1913030869
1913282028
1913315780
1913340438
1913357650
1913371810
1913390548
1913405563
1913420638
1913435714
1913451827
1913467086
1913490096
1913520980
1913554366
1913637435
1913673811
1913695662
1913802351
1913827925
1914040143
1914069929
1914116437
1914150312
1914209210
1914258099
1914284039
1914369366
1914882121
1914923808
1922001854
1922128746
1922314781
1922521567
1924401445
1924460649
1924509172
1924547075
1924573930
1924589189
1924603776
1924624040
1924656816
1924675004
1924693131
1924705155
1924717484
1924732194
1924745377
1924767960
1924787980
1924804886
1924824784
1924900894
1924938675
1924958939
1925036819
1925066543
1925089187
1925140701
1925163711
1925183792
1925219436
1925236831
1925251235
1925275161
1925289932
1925508681
1925538466
1925946302
1926206128
1926861644
1926947703
1927011241
1927431650
1927453012
1927470956
1927505441
1929186284
1929609195
1929629337
1929641483
1929656986
1929984561
1930009524
1930027712
1930043154
1930059512
1930074160
1930088625
1930105166
1930119570
1930134707
1930149782
1930165041
1930179690
1930195009
1930207644
1930224611
1930238588
1930252443
1930268679
1930283632
1930298220
1930313539
1930326723
1930339723
1930353883
1930367494
1930382936
1930397585
1930412172
1930424928
1930440248
1930452821
1930466554
1930482911
1930498414
1930522401
1930725037
1930755250
1930977905
1931009521
1931032104
1931051025
1931075805
1931100280
1931122924
1931145813
1931169189
1931191955
1931229919
1931255492
1931279540
1931307494
1931330932
1931353271
1931376525
1931400939
1931425719
1931444152
1931459716
1931479552
1931502135
1931526671
1931549742
1931569273
1931588316
1931637144
1931652952
1931675352
1931694029
1931716124
1931744200
1931768003
1931804197
1931865842
1932026792
1932048154
1932063840
1932079404
1932096616
1932115109
1932405392
1932973139
1936753769
1937550520
1937940900
1938196393
1938901713
1941191319
1941476108
1942558442
1943422637
1943768583
1943963468
1944287014
1944421291
1944476162
1944698940
1945007899
1945755150
1945887474
1946135154
1946805502
1946873494
1946898336
1946921590
1946944905
1947019246
1947230366
1947438434
1947763751
1947939532
1948284074
1948806351
1949040237
1949350051
1949545729
1949916272
1950209668
1950372631
1950541759
1950762767
1951466378
1951727913
1952102790
1952383185
1952713018
1952909551
1953245121
1953421268
1953640872
1953766055
1954105898
1954301454
1954592774
1954744019
1955082641
1955318419
1955791013
1955958127
1956106503
1956375667
1956791377
1957144769
1957548760
1958345877
1958696767
1959001088
1959467090
1960046068
1960205980
1960329210
1960469468
1960767929
1960820480
1960860092
1961228133
1961473128
1961693586
1961965253
1962474590
1963181436
1966366731
1967180266
1967727811
1967748380
1967771695
1967791837
1967808377
1967823087
1967834684
1967848844
1967857816
1967865567
1967873807
1967881803
1967889493
1967898404
1967905301
1967911954
1967919583
1967927213
1967933743
1967940213
1967948636
1967955167
1967963345
1967970853
1967977505
1967984097
1967993924
1967999539
1968007718
1968016629
1968023709
1968030057
1968036831
1968044461
1968050992
1968058560
1968065884
1968070706
1968078457
1968086880
1968093045
1968100308
1968108303
1968115628
1968121548
1968127774
1968140469
1968206143
1968268032
1968289211
1968308559
1968333462
1968367763
1968404384
1968428188
1968464321
1968549098
1968601710
1968648463
1968761744
1968853907
1968921778
1969000879
1969082178
1969116235
1969141138
1969161157
1969179407
1969195703
1969210962
1969225183
1969251855
1969274499
1969297448
1969319360
1969344995
1969364160
1969378320
1969394250
1969406762
1969424096
1969439843
1969457299
1969471398
1969490929
1969511742
1969528039
1969545250
1969871666
1969918602
1969956321
1969979942
1970004478
1970456015
1970679891
1971124775
1971571002
1971613788
1971636981
1971662127
1972120012
1972670364
1972928787
1972994949
1973022659
1973253798
1973374342
1973423719
1973445997
1973463697
1973480909
1973495191
1973579786
1973595106
1973608106
1973624525
1973638868
1973656141
1973669691
1973683973
1973697217
1973712537
1973734266
1973755811
1973776014
1973796277
1973818982
1973839246
1973854199
1973871411
1973886060
1973911145
1973932324
1974012646
1974068859
1974098645
1974120251
1974146130
1974165600
1974188976
1974212597
1974235912
1974260021
1974284435
1974307811
1974330761
1974709056
1974805430
1974816843
1974827341
1974839243
1974849680
1974861155
1974873301
1974884409
1974898020
1974909189
1974919321
1974931467
1974942087
1974952707
1974966501
1974981333
1974999277
1975020822
1975032175
1975044443
1975058847
1975073557
1975088388
1975103525
1975120798
1975133615
1975147165
1975158761
1975171274
1975182016
1975192514
1975203561
1975214731
1975227975
1975239022
1975251107
1975261300
1975272103
1975281869
1975293588
1975305734
1975317330
1975326974
1975337289
1975346261
1975356393
1975366769
1975378671
1975389352
1975397103
1975411202
1975421090
1975433724
1975442391
1975455208
1975466134
1975475106
1975485909
1975499032
1975510384
1975522103
1975533394
1975544930
1975555062
1975566658
1975577889
1975589608
1975599861
1975611641
1975623848
1975633431
1975644112
1975653206
1975665657
1975675484
1975687935
1975705818
1975721077
1975736824
1975753609
1975764168
1975775947
1975788399
1975799690
1975811897
1975825752
1975837959
1975850288
1975861579
1975878242
1975888130
1975899787
1975911323
1975922126
1975933418
1975945258
1975956062
1975966377
1975977119
1975988166
1975999946
1976009406
1976019843
1976032905
1976043159
1976055976
1976065558
1976075629
1976088874
1976099250
1976111030
1976121344
1976134162
1976143683
1976154364
1976166022
1976177741
1976190985
1976202887
1976211981
1976221625
1976231452
1976244086
1976254645
1976266791
1976277411
1976288886
1976299445
1976310797
1976321417
1976334051
1976347357
1976358038
1976367193
1976379767
1976390753
1976400274
1976411688
1976423651
1976434942
1976447882
1976458197
1976470465
1976480657
1976493841
1976506903
1976525335
1976554388
1976956425
1976980290
1977003178
1977033451
1977057927
1977092045
1977114506
1977154301
1977181705
1977205753
1977225468
1977247928
1977291935
1977318607
1977343204
1977395877
1977721438
1977737124
1977751772
1977766909
1977779665
1977796206
1977811587
1977829165
1977847475
1977864382
1977877932
1977895388
1977913881
1977931520
1977945864
1978085390
1978122072
1978425843
1978438843
1978449402
1978461365
1978473633
1978485047
1978496277
1978506836
1978517579
1978529236
1978538941
1978551026
1978570008
1978581604
1978593201
1978603882
1978614624
1978627442
1978637940
1978649231
1978662537
1978676880
1978692322
1978706848
1978722168
1978734924
1978751770
1978767151
1978785217
1978804748
1978822692
1978869506
1978887634
1978904357
1978920593
1978937805
1978951415
1978967223
1978984985
1979002318
1979018066
1979031066
1979044799
1979057067
1979076598
1979295348
1979399473
1979420774
1979437010
1979456297
1979472654
1979492552
1979527281
1979552732
1979571287
1979589597
1979660154
1979684140
1979717710
1979739377
1979799497
1979828916
1979888730
1979923093
1980330013
1980470027
1980506648
1980529597
1980582454
1980663996
1980954584
1980974420
1980991205
1981006952
1981022394
1981038263
1981060052
1981115961
1981170404
1981195916
1981251824
1981278802
1981302789
1981325738
1981356499
1981386040
1981410699
1981589165
1982307303
1986149822
1988100012
1988147437
1988172339
1988250952
1988278479
1988303686
1988326941
1989022557
1989714999
1989995821
1990044954
1990163972
1990302705
1990321809
1990333955
1990354218
1990383637
1990401825
1990417634
1990431794
1990448822
1990462616
1990478180
1990492035
1990508881
1990522309
1990538666
1990552704
1990565826
1990581574
1990597931
1990622040
1990645721
1990671051
1990697174
1990861480
1990910857
1990956389
1991052275
1991102690
1991127898
1991168608
1991357573
1991516080
1992137417
1992156887
1992171230
1992187893
1992202358
1992217312
1992239284
1992261501
1992297695
1992333278
1992359706
1992381190
1992425746
1992656397
1992768763
1992795862
1992820459
1992843714
1992865320
1992893884
1992916162
1992934717
1992956812
1992983972
1993002710
1993040552
1993063989
1993152002
1993222863
1993244897
1993261315
1993312035
1993339806
1993369774
1993418847
1993437645
1993465416
1993482018
1993505028
1993524315
1993545067
1993562889
1993579735
1993599083
1993612999
1993630089
1993646507
1993674644
1993694603
1993717796
1993739524
1993758323
1993780784
1993811363
1993852073
1993868308
1993887046
1994069785
1994080466
1994090781
1994100669
1994111533
1994130942
1994145285
1994158591
1994170981
1994182150
1994196066
1994210104
1994223593
1994235068
1994248434
1994261007
1994274496
1994293356
1994757527
1994776936
1994893696
1994911885
1994939228
1995061054
1995311481
1995330524
1995355243
1995377704
1995402545
1995492267
1995513324
1995534014
1995553851
1995575091
1995597064
1995619402
1995640154
1995662615
1995685198
1995709246
1995765764
1995790300
1995818560
1995841692
1995863237
1995883257
1995904680
1995925920
1996265336
1996325150
1996375870
1996419876
1996447830
1996471024
1996509232
1996555130
1996583267
1996676590
1996747207
1996840835
1996889541
1996914687
1996936416
1996955092
1996972121
1996989150
1997007827
1997027663
1997044142
1997061110
1997075270
1997089186
1997102553
1997116713
1997135268
1997150710
1997167799
1997183119
1997202955
1997242323
1997262831
1997334669
1997373243
1997399183
1997458875
1997511182
1997537977
1997636914
1997666455
1997692639
1997731580
1997906201
1997930065
1997955761
1998134716
1998233959
1998316966
1998371837
1998633555
1998668101
1998788645
1998814524
1999058175
1999077768
1999094674
1999118905
1999134896
1999150949
1999170785
1999193734
1999274605
1999503121
1999534981
1999578316
1999622810
1999730171
1999759162
1999781684
1999843146
1999884894
1999908332
1999932685
1999957709
1999981147
2000003974
2000029730
2000052558
2000078986
2000165472
2000198981
2000251532
2000293768
2000310675
2000328924
2000347112
2000363043
2000380254
2000400762
2000431280
2000457525
2000474798
2000502080
2000533208
2000694280
2000738164
2000764470
2000817204
2000839177
2000860112
2000883427
2000921635
2000962284
2000995121
2001034794
2001057621
2001081486
2001113285
2001227664
2001251895
2001274844
2001399661
2001594790
2001619326
2001640139
2001658205
2001755678
2001780825
2001805666
2001826784
2001850405
2001879396
2001902589
2001922426
2001940614
2001965394
2001985048
2002000368
2002017030
2002032228
2002048646
2002070436
2002124635
2002149293
2002172669
2002191956
2002208070
2002229493
2002497986
2002524536
2002633484
2002651611
2002675964
2002699707
2002881530
2002909545
2002932006
2002956542
2003004393
2003123595
2003146666
2003171263
2003203673
2003224913
2003422910
2003451353
2003676938
2003800229
2003990841
2004035641
2004051693
2004069698
2004091793
2004114376
2004134761
2004158382
2004238094
2004272884
2004299556
2004391719
2004580744
2004629511
2004665949
2004797602
2004888849
2004992914
2005012079
2005028192
2005046319
2005065789
2005086358
2005106988
2005127435
2005145562
2005162347
2005175652
2005195367
2005209649
2005221307
2005233269
2005246636
2005261101
2005273186
2005287591
2005300103
2005312493
2005322381
2005336480
2005348809
2005361016
2005372856
2005387749
2005401665
2005413994
2005426201
2005441643
2005457878
2005475456
2005490471
2005505791
2005520622
2005538505
2005556022
2005611442
2005671806
2005695426
2005718070
2005741325
2005825858
2005864982
2005882926
2005906730
2005944632
2005977042
2005998282
2006015494
2006030387
2006088858
2006143729
2006166434
2006193594
2006212332
2006230520
2006240957
2006251150
2006259878
2006273245
2006282583
2006289907
2006300772
2006311270
2006323232
2006335195
2006345815
2006357046
2006369375
2006379263
2006388479
2006396597
2006405874
2006415212
2006423269
2006433279
2006440420
2006451711
2006463979
2006472280
2006482900
2006493154
2006505605
2006519155
2006532216
2006544728
2006553395
2006574819
2006587087
2006599599
2006613637
2006632253
2006647756
2006663564
2006677052
2006689626
2006704457
2006720753
2006738087
2006753712
2006769581
2006784291
2006804432
2006831044
2006859303
2007013233
2007110767
2007165576
2007184009
2007200427
2007222095
2007245593
2007269519
2007292163
2007313464
2007337085
2007467700
2007579882
2007605944
2007631518
2007749132
2007873399
2008060594
2008081895
2008125901
2008172593
2008213120
2008236191
2008272385
2008433090
2008574814
2008598373
2008711654
2008745284
2008789596
2008962996
2009382246
2009436506
2009478864
2009525739
2009573163
2009711774
2009740155
2012241613
2014728423
2015300138
2016725977
2016911523
2017387413
2017473472
2017524315
2018155966
2020979445
2021467786
2022128246
2024068670
2024902653
2027571591
2028767267
2029558036
2029631278
2029654166
2029675407
2029700858
2029715140
2029734610
2029755179
2029789054
2029813773
2029842337
2029910696
2029927969
2029967215
2029993704
2030011038
2030025198
2030040823
2030055227
2030067923
2030078726
2030088980
2030099966
2030109365
2030121328
2030144277
2030181082
2030209219
2030233389
2030255605
2030279043
2030302907
2030325429
2030349965
2030375966
2030402150
2030437184
2030470082
2030491139
2030796925
2030977954
2031059375
2031322314
2031373827
2031612841
2032042100
2032171006
2032270737
2033934978
2034331156
2034673380
2036886020
2037283969
2037305514
2037324191
2037348483
2037372103
2037396456
2037417086
2037435152
2037491854
2037516329
2037539461
2037587252
2037624300
2037659456
2037687349
2037769075
2037791658
2037816621
2037838899
2037863008
2037883760
2037931611
2037969880
2037995087
2038025544
2038048554
2038070893
2038094635
2038140534
2038225617
2038251251
2038277252
2038306305
2038362335
2038390472
2038437530
2038463653
2038486785
2038522918
2038542815
2038565704
2038591521
2038611907
2038633758
2038650298
2038670928
2039105497
2039146940
2039182706
2039470609
2039496609
2039801540
2040319361
2040344935
2040367945
2040393275
2040416041
2040440333
2040465418
2040512476
2040534327
2040556360
2040580042
2040759179
2040839746
2040951318
2040974755
2041232079
2041257957
2041336998
2041361778
2041531516
2041553611
2041574241
2041592673
2041613547
2041629233
2041644980
2041666404
2041682151
2041707175
2041724875
2041744590
2041761069
2041783957
2041801169
2041824484
2041845663
2041863119
2041884726
2041903097
2041922751
2041941672
2041958517
2041979147
2041997763
2042141317
2042163412
2042180257
2042201803
2042218343
2042235982
2042252523
2042270772
2042287130
2042306600
2042321492
2042341085
2042358296
2042380757
2042409810
2042428059
2042447285
2042763386
2042862995
2042882465
2042897846
2042912921
2042929279
2042943683
2042963764
2042986469
2043007648
2043026141
2043042682
2043059344
2043075824
2043090228
2043104144
2043118915
2043131915
2043147052
2043167987
2043182940
2043199603
2043215838
2043230365
2043244708
2043261859
2043285540
2043307391
2043331133
2043356768
2043467119
2043482073
2043496355
2043512346
2043533708
2043550310
2043566912
2043581743
2043596330
2043610552
2043625444
2043639848
2043656023
2043677751
2043700395
2043721879
2043744157
2043767167
2043938004
2043955216
2044344131
2044470535
2044561050
2044600295
2044623488
2044645766
2044665480
2044687575
2044745375
2044763320
2044776930
2044792311
2044806288
2044821364
2044842055
2044914381
2044932203
2044948439
2044965529
2044982740
2044997633
2045016004
2045032362
2045048414
2045064405
2045078016
2045092542
2045108350
2045125318
2045139051
2045152235
2045228406
2045245130
2045260999
2045275586
2045291394
2045306775
2045324414
2045346143
2045369763
2045438672
2045467969
2045487134
2045508191
2045524670
2045544812
2045617504
2045632519
2045643505
2045653515
2045665356
2045676342
2045688183
2045701183
2045715038
2045729443
2045743053
2045756603
2045769176
2045781628
2045796215
2045810192
2045821972
2045835582
2045848522
2045862072
2045875255
2045888988
2045901134
2045915416
2045928356
2045941478
2045953929
2045969005
2045983836
2045994640
2046011729
2046021434
2046034618
2046049815
2046068553
2046087596
2046106639
2046125621
2046143687
2046155467
2046183848
2046202586
2046223216
2046239390
2046261057
2046275584
2046289378
2046302744
2046315989
2046328013
2046341380
2046357310
2046372019
2046392466
2046406992
2046422678
2046436960
2046451304
2046466013
2046480722
2046496408
2046509775
2046523935
2046545420
2046557443
2046571237
2046585581
2046601206
2046616159
2046629587
2046651193
2046675119
2046699228
2046721444
2047109505
2047183785
2047208626
2047231331
2047254280
2047276680
2047341194
2047380622
2047409614
2047433418
2047456489
2047505012
2047545722
2047568183
2047588996
2047611091
2047631110
2047653266
2047673835
2047697699
2047721198
2047801398
2048021978
2048094305
2048218450
2048243474
2048539494
2049658754
2050629332
2051100523
2051522213
2051837154
2051864559
2052675409
2052729058
2053471732
2053499747
2054612354
2055031543
2055923142
2056982588
2057380292
2057896648
2058278422
2058986489
2059325416
2059346900
2060515538
2060760349
2060789280
2060801792
2060830173
2060852756
2060871372
2060886752
2060898166
2060912692
2060921725
2060931369
2060938693
2060945529
2060953525
2060960605
2060968600
2060975497
2060983310
2060990756
2060998935
2061007052
2061014987
2061022860
2061030307
2061036776
2061043002
2061051364
2061058505
2061066501
2061072909
2061080722
2061086947
2061095065
2061102877
2061110568
2061117770
2061124789
2061132662
2061140292
2061148226
2061157809
2061165377
2061172091
2061181246
2061187228
2061194796
2061204745
2061211642
2061218661
2061227450
2061233492
2061242464
2061248141
2061262179
2061286898
2061308932
2061339937
2061360140
2061385408
2061407686
2061496431
2061544954
2061567537
2061587068
2061600984
2061625215
2061647615
2061680757
2061698396
2061716706
2061743623
2061765473
2061786225
2061809357
2061835419
2061858735
2061900605
2061982819
2062005707
2062029816
2062065888
2062084686
2062102387
2062116852
2062131134
2062143036
2062157074
2062169342
2062183929
2062203033
2062215851
2062229583
2062246856
2062258575
2062272064
2062286407
2062300567
2062312408
2062326507
2062339752
2062351837
2062365142
2062378631
2062391082
2062403838
2062451324
2062475921
2062498321
2062525481
2062554412
2062579863
2062605376
2062626799
2062647490
2062676177
2062695464
2062717863
2062736967
2062773588
2062794829
2062819243
2062993742
2063011625
2063104825
2063128080
2063145414
2063161893
2063175748
2063187528
2063202237
2063214078
2063226407
2063236112
2063248502
2063258389
2063272305
2063283719
2063294888
2063307217
2063317776
2063328458
2063340298
2063350674
2063363553
2063375149
2063387173
2063399075
2063409817
2063419461
2063431546
2063444058
2063455105
2063463284
2063477810
2063490261
2063500943
2063514248
2063526760
2063536709
2063549771
2063560269
2063572353
2063582790
2063592861
2063604336
2063617153
2063629604
2063641567
2063649929
2063660793
2063677028
2063688076
2063699795
2063712795
2063723293
2063735988
2063746303
2063757412
2063768764
2063780849
2063794582
2063804164
2063816432
2063825832
2063838039
2063852748
2063863612
2063876308
2063884609
2063897426
2063907008
2063919765
2063930141
2063944545
2063958095
2063971034
2063981349
2063992763
2064002650
2064017482
2064031337
2064047206
2064063563
2064081935
2064112391
2064146143
2064169947
2064207728
2064230311
2064254542
2064271265
2064287928
2064304102
2064322779
2064337915
2064358789
2064377771
2064394678
2064412866
2064429468
2064448755
2064467004
2064485010
2064502710
2064519189
2064534753
2064551904
2064570032
2064584558
2064603601
2064620874
2064637048
2064655297
2064673059
2064690820
2064706933
2064725060
2064741418
2064758508
2064776452
2064795312
2064811913
2064827721
2064842553
2064861901
2064881615
2064896874
2064911644
2064931481
2064948143
2064966942
2064985375
2065001549
2065021263
2065036766
2065055748
2065072228
2065088280
2065106224
2065122398
2065140282
2065158470
2065176048
2065194114
2065212364
2065229149
2065246971
2065266319
2065281578
2065298118
2065315147
2065329795
2065352561
2065371116
2065386802
2065401878
2065418113
2065434226
2065450217
2065466392
2065481162
2065502219
2065525596
2065546347
2065565879
2065585166
2065632529
2065657126
2065681052
2065703513
2065731161
2065802267
2065837423
2065862753
2065885458
2065909201
2065939718
2065958578
2065979269
2066035238
2066055074
2066074422
2066105001
2066125509
2066144796
2066161885
2066183797
2066203450
2066313924
2066337727
2066356709
2066396260
2066414875
2066432942
2066451741
2066476582
2066489704
2066500019
2066512226
2066524372
2066537007
2066550556
2066565266
2066579304
2066598347
2066611530
2066623188
2066636982
2066649189
2066662006
2066676227
2066691608
2066705219
2066718769
2066730060
2066742145
2066755390
2066769123
2066781452
2066793537
2066807758
2066823261
2066837055
2066850665
2066864459
2066876422
2066893451
2066908404
2066922809
2066944415
2066969623
2067014361
2067038714
2067062762
2067090899
2067117999
2067138873
2067160113
2067213518
2067233904
2067255755
2067276018
2067291460
2067308977
2067326189
2067348894
2067374224
2067393694
2067418474
2067445940
2067472368
2067543962
2067602250
2067619951
2067638566
2067657609
2067681352
2067706254
2067770219
2067789994
2067805497
2067818375
2067833146
2067850175
2067868790
2067883072
2067902787
2067920304
2067936417
2067952713
2067968460
2067985550
2068003128
2068022537
2068038101
2068054398
2068067093
2068084366
2068099258
2068112991
2068126541
2068162552
2068179886
2068193435
2068207779
2068221389
2068236404
2068250808
2068264541
2068278579
2068294082
2068310928
2068323867
2068342666
2068357864
2068372207
2068388808
2068402724
2068416579
2068430190
2068446181
2068465713
2068482802
2068500930
2068519606
2068537795
2068555312
2068575576
2068595961
2068613722
2068630690
2068644728
2068661269
2068678114
2068696425
2068711256
2068724623
2068735914
2068747389
2068758681
2068769362
2068782606
2068793226
2068805677
2068816359
2068827772
2068838758
2068851515
2068862684
2068874525
2068886183
2068897047
2068908949
2068920423
2068932813
2068944715
2068956312
2068968214
2068980848
2068992200
2069005018
2069016126
2069030530
2069043897
2069055799
2069068799
2069082044
2069097425
2069114148
2069130078
2069146131
2069163159
2069182263
2069551952
2069569653
2069585766
2069601330
2069618236
2069638256
2069653148
2069673595
2069689647
2069704113
2069720470
2069737926
2069756237
2069773937
2069790721
2069813365
2069834972
2069850780
2069874339
2070014537
2070127512
2070184336
2070202708
2070222178
2070237253
2070254404
2070277231
2070295298
2070311289
2070329782
2070371469
2070396555
2070417368
2070458078
2070541757
2070582711
2070605233
2070633432
2070659371
2070689218
2070792367
2070820931
2070852120
2070871041
2070884163
2070896309
2070907174
2070919930
2070932015
2070944832
2070957344
2070968392
2070980965
2070992012
2071007637
2071026924
2071043282
2071062019
2071080513
2071095405
2071116890
2071135994
2071152656
2071225471
2071242927
2071264350
2071283698
2071302314
2071322578
2071340522
2071357612
2071372382
2071392158
2071409736
2071429084
2071445929
2071466498
2071483405
2071503791
2071518195
2071538031
2071553229
2071571173
2071589728
2071610053
2071628363
2071645026
2071661261
2071681586
2071699469
2071728522
2071745245
2071763495
2071782415
2071799749
2071819097
2071837164
2071854132
2071872991
2071889410
2071906011
2071923528
2071940618
2071957525
2071974004
2071991399
2072008306
2072024724
2072039861
2072056890
2072074834
2072092351
2072110112
2072129949
2072145269
2072162175
2072178411
2072194646
2072210820
2072228520
2072243596
2072265019
2072281193
2072297429
2072313664
2072330388
2072349797
2072372319
2072399968
2072422917
2072445744
2072470890
2072494572
2072526615
2072545048
2072566044
2072585636
2072604130
2072624454
2072649479
2072674259
2072699955
2072722232
2072746891
2072770328
2072813358
2072934146
2072957522
2072973941
2072993777
2073016238
2073036441
2073057009
2073075381
2073092104
2073117190
2073139590
2073165469
2073186404
2073210146
2073233828
2073251589
2073266848
2073283754
2073304323
2073346315
2073402834
2073455141
2073549135
2073654115
2073730653
2073771729
2073795472
2073810853
2073830689
2073845582
2073864502
2073882142
2073904114
2073923584
2073941345
2073956787
2073976685
2074436644
2074468383
2074489684
2074509093
2074532225
2074573119
2074597472
2074758177
2074783018
2074803343
2074824400
2074845823
2074870176
2074892393
2074969419
2075313656
2075444271
2075490841
2075517269
2075558346
2075582455
2075606014
2075687801
2076134333
2076165827
2076198786
2076227656
2076268183
2076288324
2076305536
2076323969
2076346247
2076364374
2076382501
2076403131
2076421991
2076445123
2076466363
2076484674
2076505548
2076528314
2076577691
2076651910
2076768609
2076867241
2076892571
2077283378
2077416007
2077441581
2077465384
2077490226
2077513480
2077536612
2077554495
2077568228
2077582083
2077598441
2077612601
2077630667
2077644705
2077657217
2077668143
2077681204
2077851858
2077892751
2077907949
2077925893
2077942922
2078013295
2078077199
2078136342
2078171925
2078251759
2078295277
2078306263
2078317982
2078567676
2078605274
2078629627
2078662037
2078694934
2078709400
2078723377
2078735767
2078748157
2078765857
2078789600
2078811084
2078934436
2078947253
2078960009
2078972949
2078986621
2079000598
2079014758
2079027636
2079038012
2079050280
2079062182
2079074328
2079084460
2079096728
2079110033
2079119860
2079131518
2079142687
2079148913
2079170214
2079186571
2079208178
2079233385
2079259325
2079282640
2079303697
2079353380
2079385057
2079414049
2079434923
2079456712
2079470750
2079484971
2079497178
2079509019
2079527391
2079541490
2079558213
2079574388
2079589891
2079603257
2079614671
2079626512
2079638108
2079649705
2079661973
2079672593
2079684434
2079697312
2079713853
2079728379
2079741868
2079762131
2079777451
2079794602
2079809372
2079822434
2079839524
2079853562
2079874497
2079955551
2083468726
2083495581
2083537879
2083813452
2083848608
2083873083
2084987521
2086587859
2086902067
2086984342
2088499536
2088526879
2088554589
2088578759
2091534928
2091564958
2091623307
2092735487
2093227795
2094374093
2095679754
2096646182
2097440431
2098278014
2098632200
2099279293
2099984370
2101297965
2102884204
2106731606
2113793416
2114871294
2115651078
2117085217
2117464183
2117779795
2117876780
2118023386
2118077463
2118113046
2118183298
2118207834
2118233957
2118260141
2118282907
2118307321
2118331430
2118353768
2118379830
2118404488
2118429513
2118454659
2118477242
2118495370
2118519967
2118544137
2118595772
2118637398
2118661385
2118687447
2118711861
2118726936
2118738960
2118749580
2118762398
2118777168
2118789375
2118802009
2118814216
2118827644
2118840034
2118851570
2118869087
2118883430
2118898140
2118913337
2118927375
2118944953
2118967109
2118999214
2119015876
2119028571
2119040839
2119056159
2119071662
2119085273
2119097541
2119113105
2119136664
2119156501
2119176947
2119190131
2119204840
2119219245
2119234931
2119248725
2119262885
2119276373
2119290289
2119304572
2119325324
2119348090
2119370734
2119390753
2119407904
2119422552
2119436957
2119452826
2119465887
2119480230
2119595770
2119622015
2119640325
2119653143
2119665166
2119678167
2119690862
2119706975
2119719304
2119731450
2119744268
2119762334
2120114872
2120400821
2120417789
2120432804
2120451114
2120466617
2120480777
2120496280
2120511050
2120524844
2120537601
2120553348
2120568057
2120581973
2120595706
2120608462
2120621707
2120633975
2120648868
2120787112
2120808047
2120823977
2120840334
2120856264
2120871767
2120887026
2120900698
2120916872
2120932497
2120949770
2120967653
2120985292
2121001467
2121016725
2121034487
2121080568
2121277650
2121298707
2121315248
2121329957
2121351380
2121371217
2121388795
2121403748
2121418336
2121429810
2121442078
2121457215
2121474671
2121491334
2121506836
2121519227
2121537476
2121553467
2121569580
2121586853
2121601868
2121618836
2121641724
2121661316
2121690918
2121708313
2121723328
2121737793
2121752624
2121766907
2121780151
2121794739
2121809143
2121822387
2121837036
2121852111
2121873962
2121889282
2121907287
2121921325
2121938415
2121954650
2121970947
2121985351
2122003295
2122022277
2122115478
2122241393
2122266539
2122289488
2122311644
2122333311
2122354369
2122374083
2122392515
2122412657
2122432188
2122451658
2122471739
2122490599
2122511106
2122531126
2122548948
2122567930
2122585752
2122606992
2122626585
2122645689
2122663999
2122683225
2122702939
2122722593
2122744016
2122763974
2122779905
2122794919
2122808530
2122820615
2122833921
2122847592
2122861081
2122875791
2122889584
2122902463
2122917722
2122932919
2122953793
2122974972
2122995480
2123013730
2123031796
2123049130
2123165829
2123285030
2123306515
2123324032
2123378902
2123481502
2123682429
2123837946
2123865595
2123890925
2123914972
2123986322
2124153558
2124194269
2124215814
2124233453
2124254327
2124274224
2124291009
2124308648
2124324639
2124340936
2124354791
2124374322
2124391534
2124414361
2124458916
2124476372
2124492241
2124506463
2124523186
2124538262
2124551934
2124568230
2124583672
2124599297
2124614800
2124630486
2124645012
2124660942
2124674736
2124688225
2124701042
2124715019
2124728386
2124744072
2124757805
2124770866
2124788444
2124803764
2124818474
2124832145
2124915153
2124934745
2124951408
2124965202
2124980827
2124995414
2125011893
2125030021
2125248526
2125272025
2125291617
2125309866
2125328299
2125361014
2125383230
2125404043
2125424368
2125440481
2125457510
2125474966
2125843007
2125896413
2126094471
2126109791
2126133778
2126157093
2126175587
2126194813
2126216419
2126238697
2126262928
2126283436
2126299061
2126315235
2126330005
2126345569
2126358142
2126373279
2126386524
2126407154
2126511645
2126532519
2126551501
2126570544
2126589404
2126609301
2126633838
2126654528
2126674365
2126688952
2126701403
2126718859
2126734240
2126748217
2126764269
2126779223
2126793993
2126810595
2126823962
2126837878
2126853380
2126865771
2126880480
2126894640
2126910509
2126925829
2126941149
2126955492
2126969164
2126981920
2126999620
2127017870
2127034410
2127048204
2127288011
2127318162
2127329270
2127348863
2127373032
2127542099
2127559311
2127572861
2127586716
2127601547
2127615219
2127631455
2127643601
2127658615
2127674240
2127690048
2127702133
2127716904
2127729721
2127743027
2127758041
2127772140
2127786545
2127800338
2127815292
2127829269
2127844223
2127857833
2127873336
2127887924
2127900314
2127916122
2127931136
2127945663
2127960189
2127975509
2127988265
2128003341
2128018722
2128031722
2128045028
2128059066
2128072494
2128087447
2128109053
2128140303
2128156478
2128170333
2128183943
2128200423
2128214400
2128227706
2128241805
2128255721
2128268782
2128281966
2128296736
2128311018
2128324568
2128338179
2128352156
2128365889
2128377424
2128394392
2128412275
2128432539
2128454451
2128472944
2128495649
2128516340
2128536665
2128556440
2128572614
2128587507
2128604963
2128619489
2128635114
2128649824
2128663984
2128679487
2128696088
2128711225
2128727887
2128764020
2128791120
2128805707
2128827191
2129034588
2129127361
2129165203
2129191448
2129217693
2129242107
2129269329
2129300274
2129323467
2129344402
2129376567
2129408000
2129434978
2129459880
2129485027
2129509563
2129539470
2129553264
2129567302
2129590800
2129684672
2129791300
2129846354
2129862772
2129877970
2129892435
2129906107
2129933268
2129948648
2129964517
2129977945
2129992777
2130011698
2130028665
2130044412
2130065164
2130078836
2130096536
2130140359
2130176126
2130203531
2130223794
2130289956
2130320779
2130638039
2130671852
2130697670
2130720314
2130742592
2130767250
2130963721
2131002845
2131112037
2131131690
2131147864
2131164527
2131180396
2131196143
2131212500
2131228858
2131243689
2131334692
2131352392
2131367773
2131383398
2131397985
2131412085
2131427954
2131441564
2131456640
2131472387
2131486669
2131500829
2131516882
2131531164
2131545751
2131558935
2131576391
2131591405
2131607091
2131623327
2131639196
2131653417
2131667760
2131683690
2131700902
2131721349
2131741979
2131758946
2131773656
2131790318
2131804540
2131820043
2131835545
2131851353
2131864842
2131880833
2131895055
2131910618
2131958775
2131991368
2132017002
2132042149
2132087925
2132159397
2132290989
2132308139
2132322116
2132335666
2132349460
2132365940
2132379611
2132394077
2132407993
2132423373
2132436801
2132450534
2132462619
2132477573
2132491428
2132504794
2132529574
2132546237
2132560580
2132575656
2132587802
2132603549
2132618319
2132631930
2132646823
2132660006
2132675082
2132687838
2132699801
2132713534
2132726351
2132740389
2132754427
2132767489
2132780550
2132793734
2132808626
2132822970
2132836703
2132850557
2132863863
2132877169
2132891878
2132905794
2132920076
2132933626
2132948641
2132963045
2132977693
2132991853
2133005586
2133021516
2133036897
2133056734
2133075899
2133091768
2133105806
2133121553
2133134065
2133148530
2133161775
2133175935
2133189790
2133342988
2133355439
2133375458
2133406281
2133423737
2133442658
2133454621
2133465119
2133474213
2133488373
2133500885
2133513764
2133526459
2133537323
2133549042
2133560456
2133569672
2133580841
2133593109
2133605377
2133620697
2133632782
2133642975
2133652374
2133663971
2133677215
2133689422
2133701996
2133712921
2133731231
2133742035
2133755096
2133767547
2133782684
2133795990
2133809600
2133829132
2133844512
2133868133
2133902984
2133927581
2133954314
2133999114
2134052276
2134093962
2134117339
2134136626
2134159331
2134189177
2134204985
2134218352
2134232329
2134246367
2134258513
2134273894
2134378202
2134644559
2134891812
2134922085
2135002407
2135067166
2135110317
2135127773
2135144985
2135168789
2135324977
2135343532
2135362392
2135381984
2135402919
2135754298
2136175378
2136202722
2136331750
2136395043
2136421288
2136447167
2136494164
2142134958
2142735969
2142979865
2144513064
2145764709
2148623344
2149603078
2154066507
2157320343
2157370453
2160211266
2165291820
2170430784
2173673268
2173701161
2173727101
2174280078
2174772447
2175181015
2175406418
2175846358
2176018233
2176292219
2181585601
2181752654
2182895901
2183175075
2183869897
2184726218
2184866599
2185121725
2185307699
2185467061
2185536030
2185679341
2185797504
2185943439
2186137286
2186429705
2186691606
2187354568
2187599013
2187629775
2187655471
2187679641
2189035411
2189358042
2189724618
2190245125
2190272774
2190482185
2190608161
2190725287
2190767462
2191360540
2191638859
2191967166
2192139651
2192339541
2192478701
2192695436
2192761049
2192895326
2193261841
2193434265
2193630370
2193864073
2194074095
2194140806
2194271177
2194607235
2194974727
2195321406
2195595819
2195904900
2196198662
2196332084
2196440055
2196628837
2196732596
2196926932
2197101797
2197361623
2197530324
2197662525
2197835804
2198061328
2198249987
2198940049
2199120346
2199308700
2199490829
2199609603
2199869429
2200009992
2200114667
2200292401
2200433820
2200625591
2201030315
2201226115
2201359476
2201511392
2201693826
2201791299
2201885354
2201951394
2202024208
2202068032
2202087014
2202107521
2202124794
2202143166
2202161476
2202179298
2202195717
2202222206
2202246437
2202266640
2202288673
2202305824
2202322670
2202341774
2202376258
2202396278
2202420082
2202445045
2202473304
2202508765
2202622046
2202678565
2202694495
2202707862
2202722388
2202744666
2202774451
2202797522
2202845068
2202869238
2202899634
2202934179
2202972448
2203113927
2203134130
2203151769
2203171361
2203208104
2203259923
2203338597
2203397618
2203434971
2203497288
2203524998
2203568638
2203596226
2203619908
2203641575
2203659153
2203674229
2203689915
2203706821
2203720737
2203731907
2203745334
2203758945
2203787449
2203809971
2203830417
2203854465
2203873874
2203892307
2203906101
2203916477
2203934238
2203954196
2204020114
2204044467
2204074984
2204096347
2204123568
2204147433
2204178195
2204203158
2204220858
2204243868
2204265414
2204285067
2204310580
2204334139
2204360995
2204408358
2204430086
2204454317
2204479280
2204505953
2204533663
2204557161
2204580232
2204597505
2204612031
2204626802
2204640901
2204660859
2204676668
2204695100
2204728242
2204747163
2204769380
2204791780
2204812837
2204832978
2204853852
2204872834
2204894807
2204923371
2204976349
2204996674
2205014313
2205036408
2205059723
2205081635
2205100983
2205114594
2205132416
2205157623
2205178925
2205197845
2205212372
2205229156
2205252350
2205279754
2205303924
2205341644
2205373931
2205392181
2205412322
2205430267
2205448028
2205463531
2205486236
2205503448
2205521087
2205536773
2205550323
2205563567
2205579924
2205596587
2205611602
2205632659
2205656279
2205679106
2205703948
2205724028
2205745512
2205766875
2205783903
2205814970
2205829008
2205840849
2205853605
2205901457
2205933927
2205958464
2205980253
2206007231
2206024442
2206038603
2206052152
2206065214
2206078825
2206249662
2206273831
2206291104
2206304227
2206319608
2206334927
2206349515
2206365323
2206380032
2206397122
2206413052
2206427090
2206441678
2206455838
2206469449
2206485745
2206503933
2206519375
2206533169
2206547024
2206562161
2206577053
2206593472
2206614834
2206629055
2206642544
2206656582
2206671474
2206682888
2206694668
2206709072
2206719997
2206733730
2206747158
2206763454
2206776394
2206788234
2206801723
2206815700
2206829250
2206844265
2206855495
2206869472
2206882167
2206896755
2206910793
2206922145
2206936061
2206947108
2206959377
2206974696
2206986537
2206998866
2207014308
2207023829
2207040919
2207052211
2207065761
2207078456
2207088893
2207101954
2207114772
2207129176
2207143580
2207158961
2207170436
2207184046
2207197291
2207212000
2207225672
2207239649
2207253687
2207266383
2207279444
2207290736
2207304774
2207315699
2207331019
2207341456
2207353418
2207477381
2207492029
2207507654
2207522302
2207535852
2207551599
2207571191
2207585840
2207599878
2207616418
2207641199
2207661035
2207694360
2207710962
2207725915
2207740747
2207757470
2207775903
2207790673
2207805077
2207821740
2208004784
2208103233
2208361045
2208385032
2208402427
2208420188
2208440940
2208461936
2208495261
2208519309
2208541892
2208564902
2208585410
2208600791
2208617514
2208634970
2208656394
2208676962
2208693503
2208711142
2208731406
2208749045
2208768698
2208784140
2208797507
2208813803
2208830038
2208848837
2208865133
2208954122
2209017355
2209036581
2209055013
2209075948
2209093954
2209108175
2209124349
2209144063
2209165120
2209186422
2209214864
2209238912
2209256307
2209283101
2209354878
2209377644
2209491475
2209516377
2209560871
2209608051
2209643024
2209681721
2209708698
2209731464
2209772785
2209832660
2209885333
2210012286
2210035602
2210279803
2210469682
2210765397
2212018629
2215964236
2216383364
2216929566
2217127685
2217473571
2217791380
2218453610
2219654229
2221304860
2221661487
2221807422
2221859119
2222011401
2222093920
2222345079
2223139206
2223442122
2223767134
2224047895
2224939616
2225104838
2225383585
2225465616
2226165138
2226410316
2227506443
2227974948
2228196383
2228614106
2228938141
2229071442
2229322845
2229402801
2229612456
2229774382
2229929044
2230789699
2231190516
2232104271
2233019674
2233624530
2234736832
2237221262
2237566110
2237598580
2237631478
2237656441
2237804390
2238437201
2239798404
2240938049
2240987305
2241013061
2243650811
2247156905
2250168128
2251135533
2251353916
2251916110
2252170320
2256359946
2257326191
2260431835
2260695384
2260898264
2262091315
2263504764
2263539310
2263616153
2263650516
2263756716
2263825808
2263838564
2263852419
2263866763
2263877688
2263886904
2263897036
2263906008
2263924013
2263938845
2263949648
2263961245
2263972841
2263983584
2263991884
2264001040
2264009157
2264015810
2264023867
2264030336
2264039614
2264046633
2264053713
2264060915
2264067812
2264075746
2264082765
2264090944
2264099001
2264106142
2264113405
2264121095
2264128542
2264136354
2264143251
2264151918
2264159364
2264166750
2264174196
2264181764
2264188356
2264195863
2264203310
2264211366
2264219911
2264227052
2264234010
2264240663
2264248109
2264254945
2264262269
2264270387
2264277345
2264283326
2264289308
2264296754
2264303102
2264311097
2264327638
2264350465
2264474915
2264499207
2264524964
2264554322
2264578431
2264599732
2264623597
2264666016
2264697754
2264849304
2264898742
2264931518
2264954345
2265047973
2265086303
2265109862
2265132628
2265159728
2265207152
2265241149
2265300475
2265328795
2265357115
2265382994
2265406737
2265430907
2265451719
2265488401
2265761289
2265792478
2265856504
2266031125
2266154293
2266310787
2266336910
2266655757
2266683467
2266717158
2266818293
2266842951
2266867304
2266889521
2266912165
2266933771
2266993952
2267018427
2267065058
2267108454
2267136163
2267167718
2267196161
2267223749
2267271417
2267292718
2267327691
2267365533
2267394219
2267465874
2267659905
2267686455
2267710564
2267767632
2267938652
2267965812
2268004936
2268038993
2268054923
2268075858
2268102225
2268143241
2268187308
2268420035
2268508780
2268525259
2268538931
2268551931
2268567068
2268580496
2268593069
2268613210
2268703969
2268867665
2268911977
2269444141
2269518970
2269938463
2269964220
2269988268
2270011278
2270034532
2270057543
2270082750
2270108019
2270164659
2270559067
2270579636
2270597824
2270619004
2270637558
2270656296
2270675766
2270693955
2270713120
2270732895
2270751205
2270773056
2270792892
2270812607
2270833542
2270852890
2270875229
2270895797
2270917465
2270937789
2270957931
2270979171
2271000655
2271020126
2271040755
2271060531
2271082748
2271651960
2271805768
2271923932
2272000287
2272173870
2272199322
2272221905
2272246258
2272268841
2272292950
2272313640
2272339580
2272360637
2272384563
2272405437
2272425640
2272444499
2272465068
2272484416
2272503093
2272522136
2272542400
2272563945
2272583110
2272602641
2272622600
2272641887
2272664653
2272686564
2272706156
2272724955
2272745768
2272764750
2272785441
2272805460
2272824259
2272845255
2272866068
2272887247
2272905863
2272927958
2272950907
2272971720
2272990885
2273011637
2273029642
2273051004
2273070902
2273089639
2273109048
2273127176
2273147134
2273166299
2273185831
2273204873
2273226114
2273244851
2273265176
2273290933
2273314431
2273336526
2273350503
2273367166
2273382485
2273396035
2273408669
2273425332
2273438699
2273453652
2273469033
2273483132
2273496865
2273510293
2273525490
2273539040
2273554238
2273569741
2273582619
2273597451
2273613686
2273627663
2273641152
2273655129
2273670448
2273684486
2273699440
2273712563
2273726234
2273739418
2273755653
2273769935
2273782631
2273795997
2273809181
2273822548
2273836830
2273851539
2273864845
2273880043
2273893226
2273905799
2273919105
2273934547
2273957191
2273972328
2273988502
2274003089
2274021949
2274041480
2274063636
2274086463
2274107520
2274129187
2274145240
2274160498
2274176551
2274194556
2274209754
2274225623
2274240393
2274254004
2274266455
2274278906
2274291052
2274303442
2274316931
2274330298
2274344275
2274358618
2274375830
2274391028
2274402929
2274418676
2274430456
2274443945
2274457495
2274469702
2274484167
2274493994
2274508398
2274522863
2274535803
2274550817
2274560888
2274572363
2274583532
2274594518
2274605077
2274616308
2274624975
2274635290
2274643590
2274654150
2274663732
2274673070
2274686315
2274702428
2274717504
2274738195
2274752660
2274766942
2274783178
2274796483
2274806615
2274817296
2274827428
2274838536
2274850438
2274862462
2274871739
2274882787
2274892491
2274902867
2274913976
2274923680
2274933446
2274943516
2274953221
2274964574
2274973912
2274985081
2274994664
2275004368
2275017491
2275032444
2275044407
2275055027
2275066685
2275076512
2275086766
2275098240
2275117649
2275135716
2275152256
2275174717
2275196629
2275221287
2275248569
2275278171
2275315586
2275363254
2275387912
2275409519
2275520358
2275548678
2275573581
2275601047
2275621066
2275646090
2275671664
2275687533
2275710238
2275731112
2275755343
2275767733
2275782565
2275797274
2275814547
2275828341
2275844759
2275858980
2275874361
2275889071
2275905733
2275921602
2275936251
2275951937
2275967318
2275981111
2275995027
2276011934
2276028780
2276046175
2276060518
2276075105
2276092561
2276110262
2276128877
2276143342
2276157747
2276173982
2276190095
2276205659
2276220857
2276234590
2276250276
2276265412
2276282075
2276298249
2276904571
2276966155
2276986114
2277000152
2277019683
2277096404
2277151519
2277193450
2277323271
2277347746
2277366850
2277384001
2277401884
2277444670
2277469938
2277491484
2277511625
2277535002
2277551603
2277567716
2277581815
2277598051
2277612516
2277632596
2277707425
2277733243
2277966885
2278020108
2278044949
2278068753
2278094082
2278117153
2278131741
2278150662
2278165676
2278179836
2278197659
2278213528
2278227383
2278243008
2278262295
2278283779
2278306179
2278325710
2278340908
2278356166
2278372646
2278393337
2278412624
2278429103
2278445888
2278464565
2278480617
2278497035
2278517421
2278557582
2278774622
2278931971
2278987818
2279076257
2279178979
2279216272
2279241235
2279321374
2279349633
2279437829
2279461999
2283420912
2285904182
2286099372
2286197577
2286658818
2288099550
2288548828
2288880126
2289642881
2290232967
2290437739
2290487239
2290718073
2291120477
2291190179
2291213677
2291308587
2291330193
2291395012
2291420952
2291441094
2291455437
2291469475
2291493706
2291518486
2291535149
2291556816
2291569634
2291581780
2291595390
2291604607
2291613396
2291620903
2291628960
2291635490
2291642387
2291649773
2291657280
2291663200
2291670952
2291677238
2291684746
2291691887
2291698539
2291707084
2291714470
2291725029
2291733879
2291741874
2291746574
2291757743
2291766410
2291773063
2291780998
2291787101
2291792655
2291800712
2291808341
2291820243
2291840690
2291858390
2291876701
2291897575
2291927787
2291967032
2292001517
2292031669
2292056815
2292086234
2292110892
2292133536
2292153250
2292176444
2292200186
2292221670
2292246512
2292271414
2292312124
2292359121
2292390432
2292414907
2292441396
2292464040
2292486135
2292510549
2292527944
2292574270
2292594228
2292608693
2292628713
2292675832
2292696279
2292720632
2292740651
2292754445
2292769643
2292782338
2292793813
2292806630
2292822133
2292835499
2292848561
2292860463
2292875294
2292888722
2292903309
2293058888
2293085438
2293106678
2293127918
2293147388
2293161609
2293178394
2293194202
2293211231
2293225147
2293243885
2293264087
2293281848
2293299426
2293321826
2293340137
2293358814
2293380298
2293397632
2293413562
2293430469
2293446155
2293465259
2293499377
2293521411
2293542651
2293637316
2293651721
2293663561
2293675707
2293687304
2293698901
2293710497
2293721178
2293736315
2293746752
2293758227
2293768969
2293780077
2293791185
2293802721
2293814257
2293825975
2293836596
2293847704
2293858690
2293869799
2293883043
2293894213
2293905565
2293918260
2293928575
2293940233
2293952501
2293964708
2293975084
2293986620
2293997362
2294008714
2294021104
2294034166
2294044542
2294056871
2294068773
2294079393
2294090806
2294103502
2294115403
2294125962
2294138597
2294149949
2294161790
2294172471
2294184007
2294196702
2294212388
2294224473
2294237473
2294248948
2294260484
2294271897
2294285386
2294297044
2294306809
2294317551
2294330125
2294348923
2294363877
2294382370
2294408310
2294433335
2294457383
2294477219
2294510910
2294532150
2294551193
2294568161
2294586044
2294602463
2294618149
2294637863
2294652878
2294670028
2294688217
2294705917
2294725753
2294744857
2294762008
2294777572
2294795150
2294813522
2294831039
2294850631
2294868453
2294882980
2294899764
2294913314
2294928573
2294944503
2294963546
2294979049
2294997298
2295014144
2295033187
2295051497
2295070906
2295089766
2295104964
2295119368
2295135298
2295150130
2295168806
2295188338
2295205733
2295221907
2295237715
2295255354
2295271406
2295287459
2295300032
2295320295
2295337812
2295355940
2295368574
2295388166
2295402387
2295417463
2295432172
2295450361
2295465559
2295482709
2295496992
2295514265
2295532880
2295551008
2295569379
2295585126
2295604291
2295621808
2295638959
2295655866
2295676374
2295691266
2295711530
2295728803
2295748700
2295771100
2295807843
2295846295
2295868023
2296518229
2296765482
2296794901
2296816385
2296835123
2296855875
2296875528
2297020120
2297039468
2297063028
2297078775
2297095498
2297108865
2297120217
2297132424
2297144693
2297154092
2297168130
2297182778
2297194863
2297207864
2297221352
2297234902
2297248269
2297261758
2297277383
2297290810
2297303689
2297322976
2297340310
2297358681
2297394143
2297413308
2297430825
2297452065
2297485329
2297530312
2297549355
2297575172
2297593361
2297607338
2297626747
2297641762
2297659706
2297679359
2297695594
2297709938
2297739967
2297754676
2297775184
2297793311
2297820594
2297871925
2297900001
2297923987
2297940650
2297960792
2297978614
2298008277
2298060645
2298088111
2298102576
2298121985
2298146704
2298169226
2298202246
2298218359
2298231360
2298243078
2298253210
2298264319
2298277075
2298291357
2298302404
2298317236
2298331762
