3240708805
3240719486
3240731388
3240742802
3240754459
3240764286
3240773991
3240784794
3240793766
3240804386
3240814762
3240824345
3240834293
3240846561
3240857548
3240868900
3240880192
3240891605
3240901066
3240912662
3240923343
3240933597
3240944095
3240952518
3240964115
3240973453
3240985416
3240995670
3241007205
3241017032
3241026981
3241037113
3241048282
3241059268
3241070865
3241080142
3241090457
3241099612
3241109561
3241121219
3241130496
3241140872
3241151492
3241160403
3241171023
3241180423
3241193728
3241204898
3241214541
3241225161
3241235782
3241245608
3241255557
3241265506
3241275759
3241286318
3241296817
3241307376
3241315615
3241326663
3241337893
3241347659
3241357546
3241367922
3241379153
3241389101
3241398867
3241409243
3241420107
3241430239
3241441530
3241450014
3241460634
3241470766
3241480898
3241492190
3241503054
3241514345
3241525271
3241536318
3241546267
3241557314
3241567018
3241578188
3241589479
3241598329
3241610781
3241620607
3241629946
3241639040
3241648683
3241658449
3241670351
3241681337
3241690981
3241701540
3241710634
3241720399
3241731264
3241743288
3241753480
3241764223
3241774904
3241785707
3241795350
3241805055
3241815431
3241824769
3241834230
3241845216
3241854921
3241865785
3241875795
3241886109
3241894837
3241905824
3241916200
3241926209
3241936097
3241946290
3241956544
3241965150
3241976746
3241987366
3241997071
3242006898
3242016846
3242026368
3242037232
3242047120
3242056946
3242066956
3242076722
3242086731
3242096558
3242106934
3242116456
3242128663
3242137940
3242147644
3242158203
3242168274
3242178040
3242188172
3242198303
3242208435
3242218567
3242229492
3242238342
3242248657
3242257385
3242268921
3242277832
3242289551
3242296753
3242309509
3242318542
3242328308
3242338013
3242348755
3242358093
3242368957
3242379577
3242389221
3242399536
3242409424
3242418701
3242428405
3242438598
3242448120
3242457397
3242468566
3242479187
3242488525
3242498840
3242508422
3242520690
3242530883
3242540527
3242550781
3242561157
3242570007
3242580077
3242590942
3242600707
3242610839
3242620544
3242629394
3242640197
3242649047
3242659850
3242668944
3242679870
3242689757
3242699462
3242708800
3242719725
3242729125
3242739196
3242750670
3242760314
3242770140
3242779906
3242789916
3242799254
3242808959
3242818785
3242828429
3242839598
3242848570
3242859313
3242869383
3242878539
3242888182
3242898619
3242909849
3242918394
3242927244
3242938353
3242947020
3242958128
3242970457
3242982420
3242992430
3243003050
3243012693
3243022642
3243032469
3243042356
3243052122
3243061216
3243072081
3243092283
3243103269
3243112364
3243123106
3243133054
3243142393
3243152647
3243163389
3243173887
3243183286
3243192503
3243203001
3243214658
3243224912
3243234434
3243244565
3243254026
3243264097
3243273923
3243283323
3243294065
3243304075
3243313657
3243323667
3243333188
3243343381
3243352964
3243365110
3243375119
3243384641
3243394712
3243404843
3243416013
3243426938
3243437192
3243447324
3243458310
3243468259
3243478513
3243488705
3243497922
3243508786
3243517819
3243528683
3243538571
3243547665
3243557126
3243566647
3243576474
3243585202
3243597226
3243608090
3243617550
3243627865
3243639035
3243648678
3243658139
3243667599
3243678219
3243688473
3243697506
3243707150
3243717465
3243727657
3243737911
3243747921
3243758297
3243768734
3243777767
3243789547
3243800289
3243810482
3243821590
3243831661
3243842525
3243854183
3243865536
3243875423
3243888118
3243898739
3243910885
3243921749
3243931881
3243943965
3243954464
3243963802
3243973384
3243984920
3243995113
3244005000
3244015071
3244024593
3244034664
3244045528
3244056209
3244065974
3244078792
3244089595
3244100825
3244110896
3244122005
3244131770
3244143184
3244154353
3244164790
3244176082
3244185420
3244193843
3244203242
3244213252
3244221675
3244230281
3244238826
3244247248
3244255305
3244263606
3244272090
3244281550
3244289790
3244298213
3244306208
3244315730
3244324153
3244332209
3244340754
3244349909
3244359431
3244367060
3244375300
3244384394
3244393366
3244402094
3244410883
3244419550
3244428522
3244435969
3244445490
3244453364
3244463495
3244470942
3244481135
3244489740
3244499323
3244507563
3244515924
3244524897
3244532465
3244543085
3244551630
3244559870
3244569025
3244577936
3244587152
3244596247
3244604975
3244615289
3244624445
3244631952
3244641657
3244649652
3244659296
3244668146
3244676874
3244686029
3244693842
3244702264
3244711053
3244719293
3244728082
3244736383
3244745477
3244752984
3244761224
3244771234
3244779962
3244787652
3244797357
3244805352
3244813104
3244821466
3244829339
3244838006
3244846795
3244855401
3244863824
3244870965
3244882928
3244891534
3244900018
3244908563
3244916314
3244924432
3244933038
3244942986
3244952508
3244961785
3244970086
3244977776
3244987054
3244995354
3245005059
3245011834
3245021233
3245029046
3245037957
3245046563
3245054009
3245062737
3245070977
3245078728
3245086419
3245095208
3245104790
3245113396
3245123467
3245131585
3245140740
3245147576
3245156548
3245165398
3245174797
3245182732
3245191399
3245199211
3245207451
3245215141
3245223015
3245231804
3245239433
3245248222
3245255791
3245264458
3245272209
3245281853
3245290031
3245299248
3245306816
3245314628
3245323234
3245331291
3245341057
3245349724
3245357414
3245365654
3245374077
3245382927
3245390312
3245399101
3245407646
3245416191
3245425041
3245433342
3245442070
3245450614
3245459281
3245468681
3245475822
3245485343
3245493339
3245500480
3245509025
3245517997
3245526298
3245535087
3245543693
3245550468
3245559257
3245567680
3245575614
3245583549
3245592399
3245600516
3245609122
3245617728
3245625846
3245633658
3245642203
3245650748
3245659110
3245667655
3245674857
3245683707
3245691642
3245701285
3245709830
3245717704
3245726371
3245734610
3245743460
3245750235
3245760367
3245768241
3245776663
3245784232
3245791617
3245801016
3245808157
3245819144
3245827017
3245836050
3245844107
3245852286
3245860892
3245867972
3245874930
3245886404
3245893729
3245903982
3245910208
3245919302
3245926504
3245934439
3245949759
3245957693
3245966665
3245975515
3245983511
3245992239
3245999380
3246008719
3246016043
3246025564
3246034231
3246042105
3246049307
3246057547
3246066091
3246074819
3246082571
3246090872
3246098745
3246107656
3246114919
3246125234
3246136221
3246144766
3246153066
3246159902
3246170705
3246179617
3246188345
3246197622
3246205984
3246214834
3246223623
3246232290
3246239919
3246248525
3246257009
3246266774
3246274709
3246282522
3246290578
3246298940
3246308156
3246316457
3246324514
3246333608
3246341909
3246351430
3246359914
3246370595
3246378835
3246386525
3246394887
3246403371
3246412953
3246421376
3246430592
3246438771
3246447011
3246456654
3246465504
3246474721
3246482899
3246490895
3246499806
3246507497
3246515797
3246524953
3246534474
3246541676
3246550587
3246558156
3246564991
3246573842
3246581654
3246590260
3246599110
3246606739
3246616383
3246625172
3246632496
3246642018
3246648609
3246657948
3246667347
3246675831
3246684864
3246694081
3246703358
3246711964
3246720509
3246728870
3246738514
3246747364
3246755848
3246765003
3246772755
3246781544
3246789234
3246797230
3246804737
3246813404
3246821338
3246829334
3246838489
3246846424
3246855457
3246864185
3246871509
3246880481
3246889087
3246897571
3246906849
3246915027
3246923633
3246932056
3246940418
3246947925
3246956592
3246965076
3246973133
3246981800
3246990589
3246998218
3247006763
3247014880
3247022754
3247030994
3247040149
3247047473
3247055896
3247063953
3247071521
3247080188
3247087695
3247097278
3247106189
3247113269
3247122363
3247130420
3247139392
3247163257
3247172168
3247181262
3247189807
3247197375
3247205371
3247214648
3247223132
3247231616
3247239611
3247248034
3247256213
3247262805
3247272387
3247281787
3247288378
3247296496
3247306445
3247313830
3247322802
3247331103
3247339526
3247348498
3247357470
3247363634
3247374499
3247381029
3247389818
3247397326
3247405138
3247412707
3247421129
3247430285
3247438219
3247445360
3247454027
3247462267
3247470202
3247479540
3247487413
3247494371
3247508959
3247517321
3247526598
3247534960
3247543993
3247551988
3247559984
3247569750
3247578295
3247586595
3247595934
3247603746
3247612230
3247621019
3247629686
3247638475
3247646532
3247655199
3247663621
3247672350
3247680101
3247689134
3247699022
3247706468
3247716295
3247724534
3247733323
3247741258
3247750718
3247759263
3247767869
3247777086
3247786119
3247793992
3247801988
3247810777
3247818956
3247827378
3247835740
3247843675
3247852159
3247859361
3247868699
3247876512
3247884141
3247892991
3247900865
3247909409
3247917344
3247925706
3247933457
3247943101
3247952073
3247959214
3247967515
3247975266
3247984116
3247990037
3247999375
3248007310
3248015793
3248025132
3248031113
3248041550
3248048264
3248057847
3248066391
3248074021
3248083054
3248091416
3248099411
3248106369
3248114670
3248123276
3248129013
3248138108
3248145249
3248153610
3248161667
3248170151
3248177597
3248187058
3248194321
3248201218
3248210800
3248218247
3248225815
3248234726
3248242294
3248251694
3248259323
3248268051
3248275864
3248283676
3248291977
3248299728
3248307602
3248316330
3248324264
3248332077
3248339767
3248348739
3248356857
3248365524
3248374069
3248382187
3248390792
3248398910
3248407272
3248415756
3248423080
3248431747
3248440658
3248448776
3248456527
3248464889
3248473556
3248481185
3248488937
3248496749
3248505660
3248512862
3248522018
3248529525
3248537276
3248545333
3248553329
3248561385
3248568282
3248576949
3248585494
3248593062
3248601424
3248609237
3248617049
3248626266
3248635055
3248642623
3248650069
3248658614
3248667037
3248675948
3248682113
3248691817
3248698714
3248707320
3248715010
3248723799
3248729903
3248738692
3248748824
3248755599
3248765242
3248772627
3248779830
3248787947
3248795394
3248804060
3248813887
3248821028
3248829939
3248837569
3248844527
3248854109
3248860762
3248871138
3248878340
3248886153
3248894758
3248902876
3248911238
3248918806
3248926314
3248935042
3248941755
3248949995
3248958296
3248965925
3248973921
3248983320
3248992781
3249001265
3249009016
3249016890
3249025740
3249033064
3249041426
3249050947
3249059492
3249067915
3249077497
3249086591
3249094709
3249103864
3249113691
3249121565
3249130415
3249138776
3249146894
3249155988
3249163312
3249171857
3249180341
3249188398
3249196027
3249204328
3249213422
3249220930
3249230390
3249238752
3249247541
3249255231
3249264447
3249273175
3249281781
3249290570
3249298383
3249306317
3249314496
3249322980
3249331891
3249340497
3249349042
3249356854
3249365155
3249373273
3249382184
3249390485
3249399152
3249407514
3249416058
3249423810
3249431500
3249440472
3249449384
3249457806
3249466046
3249474225
3249482831
3249490826
3249498822
3249507367
3249515973
3249524945
3249533246
3249540997
3249549542
3249558453
3249566754
3249575604
3249584027
3249591534
3249600445
3249608868
3249616375
3249624432
3249634259
3249642010
3249651715
3249660382
3249668865
3249676495
3249684979
3249694500
3249702618
3249710308
3249718670
3249726421
3249734417
3249742352
3249752972
3249761150
3249770000
3249778301
3249786968
3249795391
3249804424
3249813274
3249822796
3249831280
3249839702
3249848186
3249856670
3249866069
3249875347
3249883525
3249891643
3249900920
3249907878
3249917156
3249926616
3249936077
3249944255
3249952678
3249961162
3249969097
3249977641
3249986003
3249995097
3250003215
3250010661
3250019023
3250027690
3250034404
3250043132
3250052531
3250060649
3250069255
3250077312
3250085307
3250094096
3250101787
3250111552
3250120036
3250127604
3250135112
3250143535
3250151713
3250160869
3250169474
3250178447
3250186198
3250193888
3250202433
3250210124
3250219950
3250228190
3250236247
3250245219
3250253031
3250261393
3250269389
3250277812
3250287943
3250295634
3250304484
3250312418
3250321085
3250329020
3250336832
3250345011
3250353190
3250363200
3250372660
3250380839
3250390421
3250399027
3250407267
3250416422
3250425028
3250433939
3250441202
3250451029
3250459696
3250467325
3250476358
3250485025
3250493570
3250501932
3250510355
3250519571
3250527872
3250536966
3250545694
3250553263
3250562723
3250571695
3250580179
3250589334
3250596780
3250604959
3250612222
3250620645
3250630106
3250638956
3250647928
3250656656
3250665384
3250673379
3250682718
3250690652
3250698770
3250706582
3250715249
3250723977
3250731973
3250740457
3250749063
3250757913
3250766214
3250774026
3250782144
3250791543
3250799050
3250808450
3250817422
3250825418
3250834085
3250842141
3250852029
3250860513
3250869241
3250878213
3250886636
3250895303
3250905801
3250914407
3250923013
3250931435
3250940530
3250948830
3250958535
3250966164
3250974038
3250984414
3250991738
3251000222
3251008156
3251017495
3251026345
3251035195
3251043679
3251052163
3251060585
3251069374
3251077736
3251086281
3251094582
3251103676
3251110451
3251120217
3251128578
3251137245
3251146340
3251154762
3251161965
3251169655
3251179360
3251187416
3251196388
3251204994
3251213539
3251221840
3251231300
3251240761
3251249245
3251257484
3251267067
3251275795
3251284584
3251293251
3251302223
3251311195
3251319496
3251327308
3251335060
3251345619
3251353859
3251360817
3251369850
3251378456
3251386573
3251394569
3251403236
3251411415
3251420448
3251430152
3251439247
3251447242
3251455482
3251465614
3251473548
3251482520
3251491126
3251499366
3251508643
3251517799
3251526832
3251534888
3251544288
3251552222
3251561317
3251571021
3251579810
3251588355
3251597266
3251606666
3251613868
3251623084
3251632422
3251641150
3251650550
3251658179
3251666663
3251675696
3251683692
3251692237
3251700110
3251706275
3251715003
3251724585
3251734900
3251743140
3251750769
3251759802
3251767859
3251776587
3251784766
3251792334
3251799902
3251808081
3251816687
3251824255
3251832983
3251840796
3251847998
3251856848
3251865332
3251872229
3251881628
3251889990
3251897864
3251905371
3251915075
3251924719
3251931555
3251942724
3251951757
3251960058
3251968664
3251978308
3251987158
3251996252
3252004675
3252013098
3252020666
3252030615
3252039770
3252048620
3252056799
3252065038
3252073461
3252081823
3252090246
3252099828
3252107946
3252116064
3252124120
3252132787
3252140356
3252149633
3252159276
3252168249
3252176794
3252185522
3252194555
3252203039
3252211095
3252219701
3252229223
3252237584
3252246618
3252254979
3252262914
3252270543
3252278783
3252287145
3252295873
3252303563
3252313634
3252322240
3252330907
3252339269
3252347753
3252356359
3252363744
3252372289
3252381200
3252389928
3252398412
3252406651
3252414830
3252422826
3252432530
3252440770
3252450413
3252458226
3252466649
3252474888
3252482335
3252492344
3252500645
3252508702
3252517125
3252524998
3252532811
3252542149
3252549595
3252557530
3252566136
3252575291
3252584019
3252592808
3252600865
3252609104
3252618870
3252626927
3252635227
3252643101
3252653782
3252662693
3252671238
3252680088
3252688511
3252694798
3252704624
3252713474
3252721836
3252730686
3252739780
3252747227
3252755772
3252765781
3252773350
3252782444
3252791172
3252799351
3252807590
3252817417
3252826084
3252834446
3252843052
3252851230
3252858799
3252866428
3252875644
3252884128
3252893772
3252901950
3252910007
3252919406
3252928562
3252936923
3252945102
3252954563
3252962375
3252971652
3252981174
3252989108
3252997409
3253005283
3253013461
3253021518
3253031528
3253041782
3253049411
3253058871
3253068149
3253077853
3253086215
3253095309
3253103549
3253112765
3253119235
3253128634
3253137484
3253144748
3253154086
3253164157
3253169162
3253178927
3253189975
3253199069
3253206393
3253215975
3253223910
3253233004
3253241122
3253249301
3253258395
3253266818
3253275424
3253283114
3253292330
3253300143
3253308443
3253317660
3253326144
3253335116
3253342989
3253351290
3253359652
3253369051
3253377901
3253386263
3253393831
3253403658
3253411165
3253419771
3253429232
3253437166
3253446077
3253454927
3253463045
3253471956
3253480440
3253490023
3253498140
3253506563
3253515047
3253523958
3253533174
3253540926
3253549959
3253557894
3253566622
3253574983
3253583467
3253592867
3253601167
3253609651
3253619783
3253628999
3253637849
3253647798
3253655488
3253664827
3253672944
3253683626
3253690950
3253699312
3253707429
3253716035
3253724153
3253733003
3253741609
3253749360
3253757905
3253766145
3253775788
3253784578
3253792878
3253801789
3253810700
3253820405
3253829743
3253837312
3253845124
3253854829
3253862580
3253871674
3253879609
3253887788
3253895905
3253904328
3253912202
3253920808
3253928559
3253937653
3253945588
3253953889
3253961762
3253970063
3253977875
3253986603
3253995392
3254004914
3254013276
3254020417
3254030426
3254038910
3254046540
3254056061
3254063630
3254072235
3254080048
3254088532
3254096527
3254105316
3254114533
3254123688
3254132233
3254141388
3254149445
3254158234
3254166779
3254174957
3254183624
3254191925
3254199982
3254207916
3254216339
3254224457
3254233246
3254242157
3254249786
3254257538
3254266205
3254273834
3254282867
3254291229
3254300201
3254307403
3254314972
3254323028
3254331268
3254339813
3254349945
3254357757
3254367828
3254376495
3254384552
3254393280
3254401275
3254410369
3254419403
3254426849
3254435455
3254444549
3254451873
3254461089
3254470733
3254479827
3254488616
3254496063
3254504424
3254512664
3254519988
3254527801
3254535491
3254545257
3254551787
3254560760
3254566985
3254576934
3254584624
3254594329
3254601653
3254608794
3254617766
3254625884
3254633696
3254641143
3254650420
3254658843
3254665923
3254675261
3254681609
3254691191
3254698760
3254706023
3254715361
3254724455
3254732024
3254740996
3254748198
3254756926
3254766570
3254774626
3254783171
3254792448
3254798979
3254808195
3254815764
3254824309
3254829985
3254839567
3254847441
3254855192
3254864470
3254872343
3254881743
3254890227
3254896391
3254907622
3254915129
3254924650
3254931242
3254943205
3254951262
3254960112
3254968962
3254977079
3254984770
3254992765
3255001554
3255009123
3255017118
3255025419
3255033293
3255042265
3255049162
3255059660
3255069303
3255077543
3255085966
3255093961
3255102201
3255110746
3255118436
3255128324
3255136320
3255143278
3255152372
3255160917
3255168790
3255176481
3255185453
3255193265
3255201200
3255210050
3255217740
3255225248
3255234098
3255241483
3255250089
3255257474
3255266019
3255274076
3255282437
3255290738
3255298612
3255308560
3255316983
3255324796
3255333463
3255341214
3255349576
3255357572
3255365445
3255376187
3255383939
3255392117
3255400540
3255408292
3255416409
3255423184
3255432889
3255440640
3255448392
3255456875
3255464444
3255472012
3255480618
3255488186
3255497159
3255504727
3255513821
3255522244
3255529446
3255537320
3255545681
3255555386
3255563870
3255571743
3255580349
3255588223
3255596646
3255605557
3255613613
3255621365
3255629116
3255638027
3255645352
3255654446
3255662869
3255670742
3255678555
3255686611
3255692776
3255700954
3255709805
3255716763
3255725307
3255734402
3255743862
3255752407
3255759975
3255768459
3255776089
3255785122
3255792568
3255802089
3255808742
3255816127
3255824428
3255830959
3255841701
3255849453
3255857509
3255866664
3255874233
3255882961
3255891139
3255899013
3255907558
3255915187
3255923671
3255932948
3255940517
3255948696
3255957057
3255965297
3255972987
3255980983
3255989833
3255997951
3256005702
3256014125
3256022060
3256030299
3256038051
3256045985
3256056666
3256064479
3256072413
3256080775
3256089015
3256096888
3256105800
3256113795
3256122218
3256130030
3256138209
3256146937
3256154506
3256162989
3256170069
3256178797
3256186732
3256194850
3256202784
3256210963
3256218470
3256225916
3256234706
3256241541
3256250819
3256258448
3256265894
3256274317
3256282191
3256290492
3256300074
3256307948
3256317286
3256324671
3256332362
3256341456
3256348292
3256358118
3256365870
3256374476
3256381983
3256390345
3256397913
3256405665
3256414698
3256423548
3256431055
3256439417
3256447229
3256454981
3256463953
3256470850
3256480371
3256488184
3256496118
3256504663
3256513513
3256520654
3256529321
3256536829
3256547022
3256554468
3256562586
3256570703
3256578516
3256586328
3256595361
3256603174
3256609888
3256619531
3256627649
3256635644
3256643640
3256651636
3256660119
3256668786
3256676233
3256684961
3256692773
3256701623
3256710046
3256717309
3256725549
3256734338
3256742700
3256750756
3256759545
3256767846
3256775720
3256783410
3256792382
3256800378
3256807763
3256815698
3256824365
3256831323
3256840234
3256847497
3256857812
3256865685
3256874047
3256881860
3256890099
3256898827
3256907006
3256915795
3256922997
3256931664
3256938866
3256947533
3256955956
3256963463
3256971642
3256979516
3256987084
3256995507
3257003380
3257011925
3257018578
3257026757
3257036339
3257045189
3257054222
3257061913
3257070763
3257077965
3257086693
3257094628
3257103295
3257111534
3257119957
3257128441
3257136376
3257143700
3257151817
3257161400
3257170006
3257177818
3257185814
3257194542
3257202476
3257210289
3257218285
3257228355
3257237205
3257245140
3257253624
3257260765
3257269554
3257278465
3257289146
3257296898
3257304710
3257313316
3257320945
3257329185
3257337486
3257344810
3257353965
3257361778
3257369712
3257378440
3257385581
3257394371
3257401878
3257410728
3257418785
3257427451
3257435508
3257443199
3257450767
3257459434
3257466880
3257476402
3257484336
3257492149
3257499961
3257507957
3257517478
3257525230
3257535361
3257543601
3257551658
3257560020
3257568076
3257576804
3257584556
3257591697
3257600058
3257608298
3257616782
3257624045
3257632407
3257640830
3257648703
3257656943
3257665427
3257673361
3257681357
3257690024
3257697837
3257705466
3257714133
3257722861
3257730979
3257738669
3257747275
3257754904
3257764609
3257773093
3257782614
3257790610
3257799033
3257807944
3257815756
3257824728
3257833639
3257841757
3257851279
3257860251
3257869223
3257878439
3257886801
3257895102
3257903647
3257911947
3257921774
3257930502
3257938070
3257947653
3257955343
3257964010
3257972982
3257981527
3257990560
3257996969
3258005880
3258017294
3258025717
3258032858
3258040487
3258050741
3258057577
3258068197
3258076559
3258085775
3258092123
3258099874
3258107870
3258116598
3258124532
3258135030
3258142965
3258150411
3258158895
3258166341
3258175985
3258185567
3258194051
3258201009
3258208272
3258218343
3258226033
3258234090
3258242574
3258250875
3258257955
3258268697
3258275167
3258286641
3258292623
3258302815
3258309285
3258318196
3258326619
3258334615
3258340901
3258351399
3258360860
3258369038
3258375203
3258383992
3258393025
3258400594
3258409566
3258418965
3258426533
3258434590
3258440571
3258450886
3258459431
3258466023
3258474446
3258482808
3258491047
3258499287
3258509053
3258516621
3258525593
3258533955
3258541645
3258550068
3258559834
3258568013
3258575825
3258583210
3258592243
3258599507
3258607380
3258617024
3258625080
3258633625
3258642536
3258650288
3258658222
3258667561
3258675922
3258684834
3258693745
3258701801
3258710102
3258720356
3258729145
3258738666
3258746967
3258754413
3258762836
3258770160
3258780231
3258787739
3258795856
3258803913
3258812519
3258820087
3258827839
3258836505
3258845111
3258853412
3258861774
3258869342
3258877155
3258886737
3258894306
3258902606
3258911029
3258919635
3258926593
3258936176
3258944293
3258952594
3258960529
3258968768
3258977313
3258985065
3258993976
3259002277
3259011554
3259020221
3259028827
3259037494
3259046344
3259054400
3259063006
3259072040
3259079486
3259088092
3259095477
3259104632
3259114154
3259122577
3259130694
3259139117
3259148211
3259156085
3259164141
3259172808
3259181475
3259189410
3259198138
3259208392
3259217059
3259225054
3259234454
3259242632
3259251055
3259258868
3259268511
3259277605
3259286394
3259295550
3259303240
3259311053
3259320391
3259329790
3259336992
3259346514
3259355303
3259363726
3259372454
3259381731
3259390825
3259397539
3259406267
3259414995
3259423113
3259432085
3259440508
3259448626
3259457048
3259464922
3259473040
3259480974
3259489336
3259498430
3259506182
3259514360
3259522844
3259531450
3259539140
3259549150
3259557085
3259565569
3259572649
3259581010
3259589677
3259598955
3259607439
3259615373
3259623613
3259632280
3259641008
3259651262
3259660661
3259670366
3259679887
3259689287
3259699113
3259706804
3259715776
3259723954
3259732927
3259741532
3259750016
3259757890
3259766801
3259776139
3259783647
3259792253
3259800187
3259808793
3259817338
3259826554
3259834794
3259842667
3259850419
3259859269
3259867143
3259875871
3259884232
3259892472
3259900956
3259908951
3259918046
3259926163
3259934586
3259943436
3259950455
3259959611
3259968766
3259975968
3259984391
3259992508
3260001358
3260009537
3260019303
3260026566
3260034989
3260043534
3260051529
3260059220
3260069229
3260077896
3260084854
3260093949
3260102921
3260110794
3260119156
3260128494
3260136246
3260145157
3260153763
3260161697
3260170059
3260178421
3260187881
3260197159
3260206741
3260214188
3260222549
3260230240
3260239456
3260248733
3260256546
3260266006
3260273819
3260281875
3260290542
3260298538
3260307876
3260317337
3260326309
3260334304
3260342605
3260351150
3260358901
3260368911
3260377578
3260386001
3260394973
3260404189
3260413101
3260421951
3260431411
3260440872
3260449844
3260458266
3260467056
3260475600
3260485244
3260494155
3260503127
3260511062
3260518752
3260527297
3260536269
3260543838
3260552627
3260561049
3260567702
3260577163
3260585219
3260593459
3260601577
3260610793
3260619460
3260627761
3260635939
3260643752
3260652419
3260660170
3260670302
3260679274
3260688307
3260696791
3260704726
3260712782
3260722914
3260731703
3260738966
3260747328
3260755263
3260763625
3260772841
3260781142
3260787917
3260797560
3260805800
3260814528
3260823012
3260830641
3260839613
3260848036
3260856093
3260865065
3260872816
3260880385
3260889113
3260896132
3260905165
3260912672
3260919142
3260928785
3260936598
3260944960
3260953749
3260963453
3260971022
3260979078
3260988722
3260996717
3261005689
3261014295
3261024915
3261033704
3261042310
3261050367
3261057508
3261066236
3261074964
3261082593
3261090833
3261099866
3261107801
3261115797
3261124830
3261132764
3261140394
3261149427
3261156934
3261165906
3261173108
3261181348
3261189405
3261197828
3261206434
3261213575
3261223218
3261229383
3261239331
3261247144
3261255262
3261263440
3261272168
3261280835
3261288465
3261296582
3261304273
3261312512
3261320264
3261328137
3261336621
3261344373
3261352307
3261360852
3261368359
3261375806
3261383496
3261392590
3261399914
3261408520
3261416211
3261424084
3261432568
3261440625
3261449353
3261457409
3261465649
3261473584
3261481762
3261490124
3261497876
3261506176
3261514904
3261521801
3261531140
3261538037
3261546765
3261555615
3261563305
3261571362
3261580212
3261588085
3261596874
3261604321
3261613171
3261621044
3261629589
3261637463
3261647228
3261655529
3261663464
3261671276
3261679272
3261687756
3261695690
3261703380
3261711742
3261719616
3261727550
3261736339
3261744274
3261751720
3261759166
3261767833
3261776745
3261784740
3261792736
3261800670
3261808666
3261816478
3261825023
3261834117
3261842113
3261850475
3261858409
3261866710
3261876232
3261884960
3261893810
3261902477
3261912547
3261921825
3261929637
3261938243
3261946788
3261955821
3261963390
3261972545
3261980540
3261988902
3261997508
3262006175
3262016490
3262024791
3262033458
3262041514
3262050242
3262058116
3262066478
3262074778
3262084849
3262093516
3262100962
3262110606
3262118052
3262126902
3262135203
3262143321
3262150950
3262158702
3262166270
3262173899
3262182139
3262191355
3262199656
3262208750
3262216074
3262224131
3262231638
3262239512
3262248423
3262255747
3262263865
3262271799
3262279795
3262287791
3262295969
3262306101
3262313547
3262321360
3262329722
3262336985
3262345164
3262352549
3262362131
3262370981
3262378061
3262385996
3262394175
3262401499
3262409677
3262416941
3262425302
3262434580
3262442392
3262450571
3262457224
3262465036
3262473825
3262482248
3262489511
3262500009
3262507517
3262515756
3262523264
3262532907
3262540903
3262549509
3262557077
3262564951
3262573312
3262581186
3262589914
3262598703
3262607309
3262615060
3262622812
3262630258
3262638864
3262648324
3262656808
3262664132
3262672616
3262678659
3262687265
3262695871
3262704354
3262710824
3262720285
3262727059
3262735482
3262744149
3262750070
3262759469
3262769601
3262775521
3262786263
3262793282
3262800240
3262808114
3262816659
3262825021
3262833321
3262841073
3262848885
3262856759
3262865426
3262874154
3262882638
3262890755
3262898690
3262906136
3262913033
3262922433
3262931283
3262940072
3262947762
3262956368
3262964791
3262972847
3262981331
3262991463
3262999215
3263007454
3263016121
3263023934
3263031258
3263039498
3263049568
3263057991
3263065315
3263074471
3263082405
3263089302
3263097725
3263107491
3263115059
3263123360
3263131538
3263138313
3263146065
3263152779
3263163704
3263172005
3263179695
3263187324
3263195198
3263202278
3263210457
3263219429
3263227424
3263236213
3263245369
3263253303
3263260872
3263269661
3263277961
3263286873
3263294502
3263303657
3263311225
3263317939
3263326423
3263335884
3263343940
3263351203
3263359321
3263367134
3263374519
3263383125
3263392463
3263401008
3263409004
3263417182
3263424751
3263432624
3263440253
3263449714
3263457343
3263465400
3263473762
3263482062
3263489020
3263496467
3263505805
3263514899
3263522223
3263529914
3263537360
3263545539
3263552436
3263560370
3263568305
3263577277
3263585212
3263592414
3263600165
3263608344
3263617255
3263626410
3263634345
3263642707
3263650946
3263659979
3263668402
3263676642
3263685370
3263694586
3263702338
3263710394
3263718634
3263726691
3263735846
3263744940
3263753302
3263762884
3263771490
3263780279
3263788153
3263798224
3263806586
3263813727
3263823614
3263831915
3263839605
3263847601
3263856756
3263865545
3263873297
3263881659
3263889471
3263897772
3263906073
3263913763
3263923101
3263931768
3263940008
3263947393
3263955328
3263963079
3263971563
3263981390
3263988836
3263998724
3264004888
3264014593
3264021246
3264030889
3264037176
3264046880
3264054632
3264063238
3264071172
3264077154
3264087041
3264095586
3264103155
3264111333
3264120672
3264128301
3264135747
3264144109
3264151677
3264160650
3264169378
3264176641
3264185613
3264194341
3264202703
3264210149
3264218145
3264227544
3264236394
3264243840
3264252324
3264259343
3264266545
3264276006
3264283940
3264292363
3264299565
3264308110
3264315801
3264324223
3264331792
3264339604
3264349187
3264355595
3264364690
3264373051
3264380498
3264387700
3264397404
3264405888
3264414921
3264423039
3264429020
3264437321
3264447453
3264455449
3264463688
3264472783
3264480107
3264488408
3264496159
3264504582
3264513066
3264521061
3264530400
3264538761
3264547611
3264554631
3264562992
3264571232
3264579350
3264587711
3264595585
3264603214
3264611942
3264620365
3264627811
3264636539
3264644901
3264651615
3264660526
3264667972
3264675907
3264684452
3264692692
3264700321
3264708744
3264716617
3264724857
3264732670
3264741703
3264750492
3264758609
3264766483
3264774784
3264783695
3264792179
3264800052
3264808963
3264815860
3264824588
3264831668
3264841556
3264849185
3264857852
3264865604
3264874454
3264881839
3264889713
3264897830
3264906619
3264914066
3264921634
3264929385
3264938235
3264946231
3264954837
3264963626
3264972964
3264980777
3264988956
3264997806
3265006228
3265013858
3265021853
3265029727
3265038333
3265046267
3265055301
3265062808
3265071780
3265079593
3265087466
3265095401
3265103823
3265110659
3265119082
3265127322
3265134829
3265143313
3265152102
3265161257
3265169192
3265177249
3265186038
3265194094
3265202212
3265207949
3265217349
3265227724
3265234072
3265244997
3265252077
3265259280
3265267702
3265277224
3265284243
3265293947
3265301394
3265310610
3265317385
3265326418
3265333620
3265342653
3265351381
3265359865
3265367128
3265375673
3265383486
3265391420
3265401247
3265407595
3265416933
3265423220
3265432497
3265440065
3265448488
3265457765
3265463747
3265471132
3265479372
3265489320
3265497072
3265504884
3265512880
3265520692
3265529482
3265537233
3265545106
3265554811
3265561891
3265569398
3265576723
3265586305
3265594179
3265602968
3265609437
3265619142
3265626649
3265636781
3265644655
3265654176
3265662233
3265671327
3265679200
3265686280
3265695619
3265703920
3265715699
3265723512
3265731263
3265739930
3265747804
3265755616
3265763978
3265773072
3265781068
3265789552
3265797669
3265805482
3265813111
3265820924
3265829469
3265838197
3265845826
3265854310
3265861756
3265870179
3265878052
3265885987
3265894959
3265902711
3265910828
3265918397
3265927796
3265936280
3265944703
3265952515
3265960999
3265969056
3265976014
3265982117
3265989197
3265995789
3266002625
3266009095
3266016602
3266023438
3266030335
3266036194
3266043213
3266048889
3266054199
3266064636
3266071350
3266078125
3266084168
3266090271
3266096314
3266102295
3266112671
3266121033
3266128357
3266135254
3266142090
3266148560
3266155456
3266164123
3266170044
3266179321
3266184631
3266191772
3266199402
3266204101
3266211242
3266219665
3266226440
3266233581
3266240112
3266245666
3266253784
3266259826
3266268188
3266274841
3266282043
3266289001
3266298217
3266304809
3266312866
3266319824
3266325988
3266334167
3266341674
3266349853
3266357238
3266364379
3266371703
3266378295
3266385742
3266392272
3266399658
3266406738
3266414855
3266421081
3266429137
3266438049
3266444274
3266452453
3266458495
3266466003
3266472106
3266479858
3266486083
3266493835
3266500609
3266507323
3266513854
3266520446
3266527648
3266535399
3266541991
3266548400
3266554931
3266561400
3266568358
3266574523
3266581481
3266588683
3266595092
3266601989
3266608763
3266615477
3266622496
3266629332
3266636168
3266644469
3266651671
3266658202
3266665282
3266672972
3266679625
3266687132
3266693663
3266700255
3266708617
3266715941
3266723021
3266730101
3266736937
3266744383
3266751341
3266758360
3266765257
3266772215
3266778807
3266785277
3266791929
3266799376
3266806273
3266812559
3266819212
3266826109
3266832457
3266839171
3266845762
3266852049
3266859861
3266867430
3266874388
3266881773
3266888365
3266895018
3266901487
3266908750
3266915647
3266922117
3266929502
3266936277
3266943296
3266950743
3266957151
3266964048
3266971189
3266978636
3266986387
3266992246
3266999571
3267006590
3267014280
3267019956
3267029234
3267036741
3267042966
3267050596
3267057493
3267064207
3267071348
3267078245
3267085203
3267092100
3267098752
3267105466
3267112363
3267119199
3267126645
3267133725
3267141782
3267148740
3267155759
3267162290
3267169309
3267176267
3267183286
3267190000
3267197568
3267205381
3267211667
3267218625
3267224973
3267232541
3267238706
3267246091
3267255124
3267263120
3267271115
3267281918
3267288999
3267296323
3267303525
3267311765
3267318906
3267326779
3267334409
3267342221
3267348935
3267359494
3267367245
3267373532
3267380795
3267386899
3267395138
3267401669
3267408627
3267417599
3267424496
3267431942
3267438839
3267445981
3267452816
3267459958
3267467099
3267475582
3267482540
3267489071
3267496151
3267502377
3267509762
3267516476
3267525509
3267532528
3267539425
3267547726
3267555844
3267562802
3267570248
3267577511
3267585445
3267592587
3267599606
3267605648
3267612484
3267619991
3267626583
3267635616
3267642818
3267650021
3267656979
3267663937
3267670956
3267679500
3267686886
3267694820
3267701290
3267707760
3267715328
3267722530
3267728206
3267736019
3267744381
3267751217
3267758052
3267764888
3267772274
3267778377
3267786861
3267793575
3267802852
3267809566
3267815547
3267822261
3267828304
3267836482
3267842342
3267849544
3267857295
3267864559
3267871211
3267879207
3267885738
3267891597
3267898860
3267906184
3267911006
3267920161
3267926143
3267933711
3267939815
3267947078
3267954768
3267963374
3267969844
3267976619
3267984126
3267992427
3267999202
3268006587
3268016353
3268023372
3268029841
3268036799
3268043269
3268051326
3268058467
3268065120
3268073237
3268081599
3268087458
3268095393
3268100459
3268108149
3268114619
3268124018
3268130854
3268138056
3268144465
3268151301
3268157404
3268165339
3268172175
3268178278
3268186945
3268192561
3268200617
3268206538
3268213984
3268220820
3268230402
3268238154
3268243281
3268252619
3268258295
3268265009
3268272883
3268279597
3268286677
3268295038
3268301874
3268308039
3268314631
3268322565
3268328547
3268339106
3268345636
3268350641
3268359980
3268366693
3268373590
3268380732
3268387629
3268395136
3268402155
3268407892
3268415949
3268422418
3268430292
3268436945
3268446039
3268453851
3268458917
3268467340
3268472528
3268481134
3268487970
3268495111
3268502985
3268511469
3268517938
3268524835
3268531549
3268539667
3268546320
3268552606
3268559442
3268567438
3268575799
3268584100
3268591363
3268600152
3268606866
3268614190
3268622674
3268629632
3268636041
3268644281
3268651666
3268659051
3268668145
3268675653
3268683221
3268691461
3268698602
3268705926
3268713555
3268721368
3268728814
3268736627
3268744012
3268751519
3268758538
3268765862
3268772820
3268780206
3268787774
3268796380
3268803338
3268809930
3268817925
3268824639
3268832085
3268840630
3268848077
3268855035
3268861687
3268868096
3268874627
3268881280
3268889824
3268896111
3268904534
3268911736
3268918572
3268925164
3268931145
3268938897
3268947380
3268954400
3268961724
3268969109
3268975579
3268983391
3268990776
3268997795
3269007317
3269015190
3269022087
3269029228
3269035881
3269043083
3269050041
3269058342
3269065849
3269072258
3269079033
3269086113
3269093559
3269100578
3269109001
3269116142
3269122978
3269131035
3269137932
3269144707
3269151482
3269158195
3269166984
3269174003
3269181084
3269188591
3269195854
3269202873
3269210014
3269217643
3269226066
3269235099
3269242912
3269250724
3269258171
3269265129
3269272819
3269285148
3269292228
3269299613
3269307853
3269315361
3269322380
3269329215
3269336601
3269345939
3269353874
3269360404
3269369621
3269377616
3269384818
3269393180
3269400077
3269408012
3269416251
3269424613
3269431998
3269437797
3269445182
3269454703
3269461173
3269468558
3269474845
3269484488
3269490836
3269495841
3269504874
3269513175
3269520194
3269526236
3269534598
3269540580
3269547049
3269553519
3269562674
3269569693
3269578116
3269584037
3269591910
3269598258
3269604117
3269611624
3269618582
3269626151
3269633780
3269641898
3269647330
3269656363
3269663565
3269670767
3269678458
3269686148
3269693045
3269699698
3269706778
3269713370
3269721182
3269728506
3269735648
3269744437
3269751150
3269757132
3269765005
3269772391
3269779104
3269787527
3269794729
3269802420
3269810476
3269817373
3269823355
3269830313
3269837881
3269844717
3269852957
3269858694
3269866507
3269873098
3269880239
3269887197
3269895071
3269902273
3269907522
3269917532
3269923208
3269929373
3269936514
3269943289
3269951650
3269958975
3269965200
3269971548
3269977285
3269984487
3269991567
3269999075
3270006277
3270013723
3270021413
3270029287
3270036428
3270044790
3270052846
3270060781
3270068899
3270076345
3270083669
3270090932
3270098440
3270108205
3270115835
3270123098
3270129812
3270137929
3270145131
3270152028
3270159414
3270169545
3270176625
3270184377
3270191579
3270198354
3270205129
3270212209
3270219167
3270226735
3270234548
3270242238
3270250050
3270257131
3270263905
3270272023
3270279286
3270286794
3270294179
3270301137
3270307973
3270314076
3270321950
3270328725
3270337514
3270345692
3270353749
3270360402
3270368031
3270374684
3270382741
3270390919
3270397877
3270405201
3270411244
3270418385
3270425526
3270431996
3270440236
3270447438
3270454640
3270461659
3270468861
3270475758
3270482594
3270489613
3270497669
3270505177
3270512501
3270520008
3270527821
3270534107
3270543263
3270551380
3270559559
3270566517
3270575062
3270581898
3270590809
3270599293
3270606068
3270614918
3270621265
3270628834
3270634754
3270641651
3270647694
3270656299
3270663685
3270671863
3270678455
3270685962
3270692188
3270699329
3270705616
3270714161
3270722889
3270730518
3270738697
3270746692
3270754810
3270763233
3270771106
3270778369
3270786121
3270793323
3270800586
3270807117
3270813953
3270820728
3270828357
3270836414
3270843799
3270850879
3270857898
3270864612
3270871570
3270878589
3270886523
3270893542
3270901294
3270908069
3270914783
3270921191
3270928638
3270936145
3270944324
3270951648
3270958118
3270965198
3270971301
3270977710
3270984851
3270992724
3270999804
3271007007
3271013354
3271020862
3271027697
3271034350
3271041064
3271049670
3271056445
3271063647
3271071887
3271077685
3271085681
3271092333
3271102038
3271110949
3271118029
3271125475
3271131762
3271141161
3271146166
3271155627
3271163622
3271170153
3271176867
3271184435
3271190478
3271196703
3271203783
3271213427
3271220812
3271226061
3271236010
3271241259
3271249621
3271255968
3271262987
3271271044
3271278612
3271284899
3271291186
3271300585
3271306566
3271312609
3271320849
3271330492
3271338366
3271345018
3271352159
3271358751
3271365282
3271372240
3271379747
3271387010
3271393541
3271399889
3271406664
3271414110
3271421007
3271428087
3271436754
3271443346
3271450304
3271457506
3271464708
3271470689
3271478441
3271486742
3271493883
3271500536
3271507494
3271514696
3271521532
3271528062
3271538499
3271547166
3271554002
3271561815
3271569993
3271577012
3271583726
3271590623
3271599962
3271608201
3271614793
3271622789
3271630113
3271638475
3271646104
3271653428
3271660875
3271668870
3271677110
3271684251
3271691819
3271698594
3271705918
3271713792
3271721910
3271728379
3271735764
3271742845
3271749619
3271755845
3271763352
3271771531
3271778733
3271786362
3271793015
3271799607
3271803880
3271816087
3271823533
3271833237
3271840073
3271846360
3271855881
3271862961
3271869919
3271878342
3271886277
3271894700
3271902024
3271909043
3271914841
3271923081
3271931321
3271939133
3271947068
3271956345
3271961655
3271970688
3271976425
3271985337
3271992905
3272000717
3272010605
3272017990
3272025192
3272032334
3272039230
3272046311
3272055100
3272061813
3272069565
3272076096
3272083908
3272090744
3272098495
3272107651
3272116257
3272123764
3272132065
3272141342
3272149155
3272156784
3272164474
3272171982
3272179062
3272187118
3272193588
3272202011
3272209274
3272217331
3272224472
3272231796
3272240219
3272247482
3272253952
3272261337
3272270309
3272277694
3272284591
3272292465
3272300643
3272308700
3272316451
3272324264
3272331832
3272339584
3272346847
3272354598
3272361678
3272369735
3272376876
3272384322
3272391463
3272398544
3272405868
3272413680
3272420760
3272427657
3272434432
3272441695
3272448958
3272456954
3272464095
3272472091
3272479659
3272485885
3272492782
3272498580
3272505904
3272512923
3272522750
3272529769
3272535323
3272545150
3272552169
3272560347
3272567244
3272575850
3272585250
3272592757
3272599349
3272607772
3272615035
3272621993
3272628951
3272637435
3272643904
3272651289
3272657393
3272665877
3272673018
3272680098
3272689192
3272697615
3272704451
3272711226
3272719160
3272727034
3272733748
3272741926
3272750288
3272758833
3272766340
3272773665
3272780806
3272788435
3272795759
3272803389
3272810103
3272817915
3272824568
3272831404
3272839277
3272845930
3272853682
3272860395
3272868391
3272875532
3272883650
3272890547
3272897932
3272904829
3272913252
3272920637
3272928083
3272935590
3272945356
3272952863
3272963239
3272970441
3272979108
3272986921
3272994917
3273001813
3273008527
3273016096
3273023481
3273031293
3273039838
3273046430
3273054548
3273060224
3273068525
3273075727
3273082685
3273089887
3273097333
3273103681
3273110578
3273118818
3273126020
3273133527
3273140546
3273147870
3273153852
3273161420
3273168927
3273177472
3273184674
3273190961
3273197553
3273204572
3273212323
3273218305
3273226605
3273234845
3273242536
3273249555
3273257733
3273265179
3273272931
3273279523
3273285748
3273293866
3273299359
3273307904
3273317242
3273324200
3273331402
3273338055
3273345318
3273350995
3273361004
3273368085
3273375409
3273381878
3273389203
3273395977
3273403607
3273408917
3273417279
3273424298
3273429181
3273437481
3273442852
3273453656
3273461651
3273467938
3273475445
3273482830
3273490643
3273497051
3273504620
3273511700
3273519146
3273525799
3273533245
3273540569
3273547894
3273555279
3273562786
3273570110
3273575176
3273583965
3273590679
3273598858
3273605389
3273613140
3273619610
3273627910
3273634441
3273641460
3273652508
3273659038
3273666118
3273684795
3273692180
3273702251
3273710857
3273718731
3273728008
3273736431
3273744609
3273752422
3273760356
3273767620
3273775493
3273782939
3273790080
3273796733
3273804912
3273812969
3273820781
3273827617
3273834209
3273841533
3273848613
3273855266
3273862956
3273869731
3273877727
3273885234
3273891215
3273898662
3273908183
3273916240
3273922771
3273929607
3273936748
3273944560
3273951152
3273957683
3273965983
3273972697
3273978679
3273986735
3273994243
3274001140
3274008464
3274015361
3274022013
3274029399
3274036357
3274044413
3274052470
3274059489
3274065776
3274072489
3274080302
3274087931
3274094950
3274103190
3274109904
3274116801
3274124186
3274130656
3274136881
3274144145
3274153666
3274161173
3274168009
3274175089
3274181803
3274189738
3274196146
3274204142
3274211100
3274220316
3274227701
3274235209
3274241068
3274249491
3274258280
3274267679
3274275187
3274282084
3274288981
3274297464
3274305582
3274314127
3274321695
3274329325
3274336954
3274343790
3274350748
3274358133
3274365580
3274373453
3274381754
3274388468
3274396097
3274404093
3274411417
3274419107
3274426798
3274432108
3274438760
3274444864
3274454263
3274461221
3274469156
3274476175
3274483865
3274489786
3274499490
3274505655
3274514078
3274521036
3274527139
3274535745
3274542459
3274550882
3274559305
3274565774
3274573404
3274581155
3274588601
3274596902
3274603189
3274611001
3274617044
3274624307
3274631631
3274638101
3274648049
3274653970
3274660256
3274667520
3274675210
3274681619
3274687234
3274694436
3274702310
3274710061
3274719033
3274726296
3274734841
3274742837
3274749734
3274758462
3274768105
3274775430
3274784768
3274793252
3274800454
3274807229
3274815163
3274822365
3274830239
3274839333
3274846535
3274854592
3274861855
3274869301
3274876565
3274884560
3274893471
3274901833
3274908974
3274916115
3274922402
3274929482
3274937538
3274946266
3274955300
3274963478
3274970619
3274979409
3274986977
3274994545
3275001991
3275011025
3275018227
3275025185
3275033363
3275041115
3275048927
3275056496
3275063698
3275071388
3275080482
3275089821
3275096962
3275105568
3275114052
3275121376
3275128883
3275135658
3275143715
3275150856
3275157936
3275167335
3275174843
3275182411
3275189674
3275195961
3275203834
3275209938
3275217140
3275225074
3275232948
3275239906
3275246498
3275253578
3275260963
3275267494
3275275123
3275282264
3275289833
3275296729
3275303199
3275309730
3275316810
3275323402
3275331703
3275339271
3275346534
3275353126
3275361182
3275368507
3275375648
3275382606
3275389991
3275397315
3275404212
3275411780
3275419410
3275425513
3275433143
3275440284
3275449805
3275456275
3275463843
3275470557
3275477210
3275484595
3275491614
3275498755
3275506873
3275512366
3275520545
3275526343
3275534461
3275542090
3275548743
3275557349
3275562659
3275571082
3275577857
3275584326
3275589453
3275597144
3275605567
3275612647
3275620032
3275626196
3275633093
3275639746
3275645911
3275654883
3275661902
3275670264
3275676611
3275684058
3275690344
3275698218
3275703406
3275711401
3275719702
3275727331
3275734228
3275741492
3275748144
3275754431
3275762732
3275771032
3275777197
3275783728
3275791601
3275797705
3275805090
3275810827
3275819311
3275827368
3275833044
3275840856
3275847448
3275853979
3275858984
3275868933
3275877783
3275885229
3275892248
3275899084
3275904821
3275913244
3275920934
3275929662
3275936071
3275945776
3275954015
3275962072
3275969640
3275975561
3275983495
3275991735
3275998632
3276004919
3276011754
3276018224
3276024877
3276032018
3276040746
3276048803
3276056554
3276064672
3276072789
3276081334
3276088537
3276097203
3276104406
3276112767
3276120031
3276127965
3276136266
3276143773
3276151097
3276157994
3276166844
3276174352
3276182347
3276190343
3276197972
3276204747
3276212132
3276220189
3276226598
3276234654
3276241368
3276249303
3276255833
3276264928
3276274266
3276282017
3276291112
3276297948
3276305943
3276313450
3276322179
3276329503
3276338353
3276345860
3276351964
3276360570
3276367283
3276373631
3276381505
3276389439
3276396275
3276403721
3276410679
3276417576
3276424473
3276433079
3276440037
3276447300
3276453526
3276460240
3276467564
3276474766
3276484043
3276490940
3276498326
3276505467
3276513340
3276519322
3276528172
3276534702
3276542637
3276548618
3276557346
3276563694
3276569736
3276576572
3276586216
3276592808
3276598545
3276606724
3276613132
3276620701
3276626255
3276634800
3276642917
3276650303
3276656589
3276663242
3276668735
3276676487
3276683506
3276690403
3276695652
3276704990
3276710971
3276717319
3276726413
3276734531
3276740818
3276747653
3276754917
3276764011
3276770603
3276779087
3276786716
3276791782
3276800205
3276808261
3276815402
3276824008
3276830844
3276839755
3276845981
3276856113
3276862155
3276869113
3276878757
3276884494
3276890903
3276899570
3276905490
3276914096
3276920688
3276928256
3276937961
3276945956
3276953830
3276962741
3276970492
3276978854
3276987338
3276995639
3277004611
3277012118
3277019137
3277027926
3277036715
3277044833
3277053317
3277062350
3277070101
3277078158
3277085726
3277094637
3277102023
3277110507
3277118319
3277125521
3277133273
3277141940
3277149264
3277157931
3277165987
3277173678
3277181490
3277189242
3277196688
3277204928
3277212618
3277220309
3277227572
3277235079
3277241732
3277249849
3277257052
3277266573
3277274141
3277281832
3277289949
3277298494
3277304598
3277311617
3277318636
3277327364
3277333467
3277342440
3277348970
3277355440
3277363863
3277372164
3277379061
3277386202
3277392854
3277400911
3277407442
3277415621
3277423067
3277431612
3277438753
3277446138
3277452791
3277458223
3277469331
3277476045
3277483247
3277490388
3277499849
3277506502
3277514009
3277521028
3277529390
3277535676
3277543672
3277551179
3277558259
3277565461
3277574006
3277580354
3277589448
3277596528
3277605684
3277613557
3277621858
3277628144
3277634553
3277642060
3277650483
3277657014
3277663911
3277672151
3277679902
3277686799
3277693513
3277698762
3277705048
3277716401
3277723664
3277729768
3277736237
3277744538
3277751374
3277757417
3277766206
3277773041
3277781831
3277786774
3277795136
3277801606
3277809296
3277816315
3277822785
3277829377
3277838105
3277844513
3277852692
3277859345
3277864655
3277872162
3277881928
3277889130
3277896576
3277903473
3277910553
3277917267
3277923615
3277930329
3277939911
3277946381
3277953522
3277959259
3277967255
3277972992
3277980011
3277988068
3277996796
3278002106
3278009857
3278016998
3278023346
3278030060
3278036408
3278044464
3278052338
3278058990
3278065643
3278072906
3278080658
3278087555
3278095611
3278102692
3278110443
3278116913
3278123871
3278130585
3278137298
3278144500
3278152923
3278159942
3278166717
3278174530
3278181671
3278189178
3278195892
3278202789
3278210662
3278217559
3278224151
3278230865
3278237823
3278244110
3278251861
3278260528
3278267852
3278276092
3278284393
3278290984
3278300201
3278306976
3278314544
3278321624
3278331146
3278338348
3278346282
3278353423
3278360686
3278367828
3278375701
3278383880
3278390594
3278398162
3278404876
3278412139
3278419524
3278426909
3278435210
3278441863
3278449065
3278455657
3278463408
3278470427
3278477446
3278484832
3278492156
3278499663
3278506743
3278513884
3278522734
3278532256
3278539458
3278548613
3278556121
3278563445
3278570342
3278577666
3278584990
3278592436
3278600981
3278608489
3278615569
3278623198
3278630217
3278638701
3278645537
3278652739
3278660551
3278668242
3278675078
3278681059
3278687102
3278694487
3278700835
3278706816
3278715727
3278720732
3278729460
3278735502
3278741484
3278748808
3278755156
3278762236
3278769865
3278777739
3278784391
3278790373
3278799711
3278805326
3278814054
3278821440
3278829557
3278834623
3278841703
3278847990
3278855497
3278863554
3278872465
3278879362
3278886320
3278893095
3278899076
3278907621
3278913786
3278922941
3278929289
3278938993
3278944852
3278951017
3278958341
3278964933
3278972318
3278980192
3278990629
3278999052
3279005887
3279012723
3279021512
3279029752
3279037870
3279045560
3279055875
3279063443
3279069730
3279078214
3279087003
3279095792
3279102811
3279110501
3279119046
3279127347
3279135587
3279141629
3279149869
3279155973
3279164334
3279173123
3279180264
3279188504
3279194058
3279201199
3279209561
3279216641
3279223172
3279229337
3279238675
3279245877
3279253751
3279262662
3279269620
3279276517
3279283169
3279289395
3279299771
3279308743
3279316617
3279324612
3279332669
3279340420
3279349270
3279356472
3279364407
3279371853
3279379666
3279386563
3279394375
3279401944
3279410427
3279418240
3279424710
3279433560
3279440823
3279450527
3279458950
3279466641
3279474392
3279482876
3279490383
3279498684
3279507229
3279514065
3279522854
3279529812
3279537136
3279545010
3279552395
3279559353
3279566494
3279574795
3279582485
3279590114
3279597988
3279605129
3279612209
3279619533
3279626797
3279635463
3279642483
3279649807
3279656826
3279666958
3279675502
3279683315
3279691616
3279698207
3279707180
3279713588
3279720424
3279728359
3279734096
3279743129
3279751857
3279758388
3279765529
3279773830
3279780544
3279788051
3279795009
3279803310
3279810146
3279816921
3279823756
3279830959
3279837672
3279843837
3279853236
3279862331
3279868495
3279875209
3279883082
3279889613
3279895656
3279903224
3279909633
3279918788
3279924098
3279931239
3279936610
3279945949
3279953151
3279959498
3279969386
3279976222
3279982081
3279988795
3279996241
3280002711
3280013331
3280020106
3280028651
3280035548
3280043421
3280052210
3280057887
3280066310
3280074610
3280080226
3280087306
3280094996
3280103541
3280110316
3280117152
3280122279
3280131251
3280139429
3280146510
3280154444
3280161402
3280168238
3280175684
3280182032
3280190821
3280198450
3280204920
3280212000
3280218958
3280227869
3280234400
3280241785
3280248743
3280256617
3280263269
3280271875
3280277185
3280283716
3280291773
3280298304
3280306299
3280315088
3280319178
3280327967
3280335474
3280342188
3280348291
3280354883
3280364710
3280371301
3280378870
3280385095
3280390894
3280399622
3280405115
3280413904
3280420618
3280427576
3280434473
3280440576
3280449182
3280457727
3280464807
3280472192
3280480798
3280486902
3280493188
3280499841
3280507715
3280513208
3280520105
3280528528
3280534814
3280541162
3280548791
3280554834
3280563440
3280573510
3280580529
3280587732
3280594323
3280603173
3280611474
3280619348
3280626245
3280633386
3280642236
3280650292
3280656152
3280668359
3280677331
3280686181
3280693444
3280701135
3280708642
3280716393
3280723962
3280730676
3280738671
3280747216
3280753747
3280761742
3280768761
3280775536
3280782799
3280789635
3280796654
3280804162
3280811486
3280817833
3280824669
3280830651
3280837853
3280844079
3280852440
3280860863
3280869225
3280876061
3280883019
3280889672
3280896080
3280902489
3280910851
3280919030
3280925621
3280933739
3280940087
3280947960
3280952965
3280962975
3280968834
3280977440
3280983299
3280991600
3281000267
3281005882
3281014305
3281020226
3281029808
3281037987
3281045189
3281052574
3281060142
3281068016
3281075218
3281083336
3281092003
3281098350
3281105797
3281112449
3281120323
3281126976
3281134727
3281140831
3281149803
3281156883
3281164817
3281171714
3281178917
3281185875
3281194542
3281204368
3281211509
3281219200
3281227134
3281233787
3281242027
3281248985
3281257957
3281265586
