3317049308
3317055778
3317061393
3317067069
3317072074
3317077384
3317083244
3317088615
3317093925
3317100089
3317106132
3317112357
3317118766
3317126456
3317133048
3317140555
3317146476
3317153617
3317159659
3317166801
3317173453
3317179923
3317187064
3317194388
3317200492
3317207328
3317215751
3317223502
3317231437
3317238517
3317245719
3317250479
3317258414
3317266776
3317276175
3317283744
3317290641
3317299674
3317305899
3317313162
3317321036
3317327506
3317335623
3317342825
3317349173
3317356925
3317364005
3317371207
3317379935
3317386099
3317394461
3317401480
3317407767
3317415518
3317420706
3317429495
3317436453
3317443167
3317451102
3317458670
3317466665
3317475577
3317483755
3317489370
3317498282
3317505911
3317513113
3317518911
3317532644
3317541250
3317548880
3317558279
3317566641
3317575064
3317582876
3317591543
3317600393
3317608877
3317616628
3317621877
3317630422
3317641226
3317645193
3317656179
3317663381
3317672475
3317678030
3317688345
3317697317
3317702810
3317712270
3317719289
3317728261
3317735525
3317744192
3317752859
3317760488
3317769033
3317775747
3317784414
3317790517
3317799001
3317806630
3317814504
3317821523
3317828298
3317837514
3317844106
3317854543
3317864553
3317870595
3317878774
3317887746
3317894948
3317901845
3317910695
3317923146
3317931752
3317939931
3317948110
3317957448
3317964467
3317973073
3317981862
3317989919
3317996632
3318005299
3318013356
3318020924
3318029347
3318037648
3318046010
3318053334
3318060719
3318066395
3318077748
3318084096
3318092274
3318100880
3318108021
3318116566
3318123768
3318132801
3318139515
3318147999
3318155751
3318164051
3318169361
3318179920
3318189442
3318196705
3318204457
3318212452
3318221790
3318229725
3318238514
3318245838
3318254261
3318264698
3318271168
3318280628
3318287586
3318296802
3318303944
3318310657
3318316944
3318326404
3318334278
3318340931
3318348377
3318357044
3318364246
3318371204
3318379017
3318387928
3318393360
3318402393
3318409290
3318417530
3318424183
3318432422
3318439991
3318447254
3318452503
3318460987
3318468128
3318479114
3318486499
3318494739
3318502063
3318507923
3318517505
3318523792
3318533557
3318540271
3318547412
3318554797
3318561755
3318570483
3318576770
3318582813
3318591785
3318598743
3318606921
3318613696
3318621997
3318629382
3318638537
3318646777
3318654101
3318661975
3318669238
3318675342
3318682605
3318690417
3318697802
3318704028
3318711291
3318719836
3318725390
3318733569
3318741198
3318749743
3318755175
3318764514
3318770068
3318779772
3318787585
3318793994
3318801623
3318809680
3318815722
3318823718
3318829699
3318837939
3318846423
3318853930
3318860339
3318867724
3318876025
3318881579
3318891283
3318897143
3318905444
3318911242
3318921191
3318926989
3318935900
3318944872
3318954821
3318961230
3318969408
3318977648
3318983568
3318991625
3319000902
3319008654
3319015795
3319023424
3319031481
3319038256
3319046984
3319055834
3319063463
3319071215
3319078661
3319086473
3319094286
3319101000
3319109728
3319117723
3319125170
3319133043
3319140367
3319147203
3319155565
3319162584
3319170519
3319177477
3319190050
3319197496
3319203355
3319211961
3319219102
3319227891
3319236680
3319242967
3319251390
3319258897
3319266527
3319275682
3319280259
3319290941
3319297227
3319305101
3319312852
3319318284
3319330003
3319339463
3319348680
3319356492
3319364793
3319372483
3319382737
3319389634
3319397996
3319409532
3319415513
3319424607
3319431687
3319436570
3319443589
3319449876
3319455674
3319461900
3319467576
3319473862
3319481065
3319485703
3319493638
3319498338
3319504685
3319510789
3319517319
3319521958
3319528794
3319535630
3319541428
3319546189
3319553086
3319559556
3319565476
3319571763
3319577866
3319585068
3319590928
3319598069
3319603379
3319610215
3319616623
3319623154
3319628769
3319635056
3319642258
3319648728
3319654160
3319660569
3319667221
3319672409
3319678452
3319682663
3319690171
3319696335
3319702316
3319709274
3319714401
3319722031
3319727402
3319733444
3319738693
3319744492
3319751083
3319755844
3319762436
3319767807
3319773788
3319780258
3319785568
3319793259
3319800705
3319806381
3319812118
3319817795
3319824020
3319828842
3319835800
3319840378
3319846664
3319851242
3319857834
3319861923
3319866989
3319873337
3319879928
3319886642
3319892135
3319898483
3319905990
3319911544
3319916977
3319923202
3319928024
3319933944
3319938278
3319944931
3319952072
3319956710
3319964157
3319968002
3319973495
3319979965
3319985214
3319992721
3319996505
3320001815
3320009078
3320014572
3320020065
3320026107
3320030196
3320037093
3320041976
3320048812
3320054488
3320059737
3320066329
3320071517
3320076644
3320083114
3320086959
3320093795
3320101668
3320107467
3320113387
3320117354
3320126205
3320131576
3320139022
3320145858
3320151168
3320156539
3320162581
3320167403
3320173629
3320179610
3320184615
3320191207
3320196639
3320201949
3320210006
3320216536
3320222579
3320228560
3320235152
3320241622
3320247969
3320253707
3320263655
3320269881
3320273848
3320281050
3320287398
3320292769
3320300582
3320305525
3320311324
3320316695
3320321700
3320329085
3320335860
3320340315
3320346358
3320351119
3320357954
3320363142
3320366621
3320375410
3320381575
3320387129
3320394209
3320399641
3320405745
3320411909
3320416609
3320422529
3320427534
3320434187
3320439497
3320444685
3320452254
3320457075
3320463911
3320469526
3320473860
3320480330
3320487471
3320493208
3320498457
3320504194
3320509199
3320516462
3320521772
3320529341
3320535200
3320541487
3320547712
3320554609
3320559065
3320565412
3320572004
3320577253
3320582990
3320587019
3320595625
3320602949
3320608808
3320616987
3320623579
3320629743
3320636152
3320641706
3320646833
3320653059
3320658918
3320665815
3320673383
3320677839
3320684797
3320692243
3320698591
3320705122
3320710676
3320716047
3320722822
3320728193
3320735334
3320740278
3320747724
3320755292
3320760969
3320767743
3320773847
3320780744
3320786664
3320792035
3320797529
3320801191
3320808210
3320814374
3320821027
3320826581
3320830609
3320839826
3320848249
3320854474
3320861615
3320867230
3320872602
3320878705
3320884381
3320889569
3320894940
3320901105
3320905805
3320911725
3320916608
3320922467
3320927899
3320933759
3320939679
3320944928
3320950421
3320955853
3320962140
3320966473
3320972699
3320976971
3320983441
3320989056
3320994916
3320999371
3321005536
3321010541
3321016583
3321022442
3321029400
3321040875
3321047040
3321051190
3321057049
3321063092
3321068463
3321076458
3321081097
3321087323
3321091595
3321097943
3321103558
3321110943
3321118328
3321122723
3321130352
3321135601
3321140545
3321144390
3321153118
3321157391
3321163311
3321169354
3321175091
3321180035
3321185528
3321192242
3321198223
3321204571
3321209332
3321215496
3321220257
3321226055
3321232403
3321239483
3321246746
3321250652
3321257793
3321263409
3321268658
3321273907
3321279949
3321286236
3321291790
3321296490
3321302532
3321308452
3321313763
3321321575
3321326702
3321332256
3321338543
3321342815
3321349102
3321355938
3321361065
3321366924
3321372966
3321378948
3321384685
3321389629
3321395061
3321402080
3321406536
3321412761
3321418499
3321423015
3321428020
3321434063
3321439251
3321445415
3321452068
3321456218
3321462200
3321468242
3321473247
3321479473
3321484111
3321490093
3321495952
3321500163
3321507488
3321512187
3321517619
3321523357
3321528606
3321535014
3321538982
3321545940
3321550945
3321557353
3321562175
3321568217
3321573650
3321579448
3321584575
3321590312
3321597270
3321602336
3321609660
3321616984
3321621928
3321628032
3321634074
3321639323
3321644877
3321649455
3321657451
3321662639
3321666728
3321676860
3321683635
3321688640
3321695536
3321700724
3321707011
3321712260
3321718791
3321724894
3321730143
3321735881
3321740947
3321748515
3321752848
3321758891
3321765238
3321770487
3321775675
3321783976
3321788737
3321794535
3321800578
3321804423
3321811564
3321816325
3321822794
3321829020
3321835856
3321840922
3321846415
3321851481
3321858683
3321864420
3321868632
3321874613
3321881388
3321886698
3321891947
3321898844
3321904642
3321910441
3321915995
3321922037
3321927653
3321933329
3321937540
3321945109
3321949930
3321956217
3321961832
3321967692
3321972025
3321977884
3321984720
3321988566
3321994608
3322000956
3322006083
3322010111
3322018412
3322023722
3322030436
3322036966
3322042337
3322047403
3322052774
3322058451
3322064432
3322069803
3322074625
3322081034
3322086832
3322092752
3322099100
3322103128
3322109049
3322114237
3322121195
3322127786
3322133829
3322138406
3322146341
3322151712
3322156961
3322164041
3322171121
3322176553
3322181436
3322186868
3322194192
3322199258
3322205118
3322211893
3322217386
3322223245
3322229043
3322234231
3322241006
3322245889
3322252237
3322258462
3322263345
3322269327
3322274270
3322280740
3322286233
3322291482
3322298135
3322303994
3322309304
3322314004
3322320230
3322325479
3322331399
3322336221
3322342202
3322348855
3322354104
3322360879
3322367471
3322372109
3322378335
3322383950
3322390359
3322395547
3322400857
3322404702
3322412576
3322419351
3322425637
3322430215
3322437539
3322442849
3322450661
3322456460
3322462441
3322467568
3322473794
3322479409
3322485696
3322491372
3322497170
3322502663
3322507912
3322512978
3322518227
3322525368
3322529397
3322536355
3322540688
3322547158
3322551613
3322558022
3322563149
3322569375
3322574624
3322580483
3322585000
3322590920
3322597512
3322603066
3322608071
3322613930
3322619057
3322625038
3322629616
3322635353
3322641640
3322647438
3322655678
3322660805
3322666054
3322671364
3322678017
3322683388
3322689980
3322696205
3322701759
3322707008
3322712868
3322719338
3322724342
3322728310
3322736366
3322742470
3322748329
3322752602
3322759132
3322765724
3322769630
3322776833
3322780800
3322788002
3322792213
3322798561
3322804420
3322808937
3322814674
3322822731
3322828895
3322834389
3322839332
3322843239
3322850563
3322855263
3322862220
3322868080
3322872719
3322878029
3322884010
3322889808
3322895118
3322901161
3322906349
3322912025
3322916359
3322923317
3322928443
3322934974
3322940834
3322946815
3322951698
3322957618
3322962928
3322968238
3322973976
3322979469
3322986366
3322990882
3322997230
3323002662
3323008399
3323013404
3323019386
3323025245
3323030982
3323035560
3323042030
3323048011
3323053687
3323059364
3323064979
3323070716
3323076270
3323082374
3323088599
3323094215
3323098731
3323105567
3323111854
3323119666
3323141211
3323148536
3323152503
3323160193
3323166175
3323170997
3323177344
3323184790
3323191138
3323197059
3323201575
3323207618
3323212744
3323218238
3323224829
3323228553
3323235694
3323241065
3323246558
3323252234
3323257300
3323264014
3323268592
3323274573
3323280066
3323285681
3323289527
3323296240
3323301611
3323306616
3323312293
3323317481
3323322119
3323327063
3323334082
3323340186
3323346106
3323350073
3323355994
3323361914
3323367285
3323373206
3323379126
3323384375
3323388281
3323395300
3323400122
3323406348
3323411474
3323417456
3323422644
3323428320
3323434668
3323439490
3323447607
3323451819
3323458044
3323461950
3323469946
3323472632
3323480749
3323485937
3323491980
3323496984
3323502905
3323508886
3323515661
3323520727
3323526709
3323531774
3323537329
3323542272
3323547521
3323553930
3323558996
3323564855
3323569921
3323575964
3323581213
3323586523
3323592870
3323597021
3323602880
3323608556
3323614782
3323618749
3323625097
3323629919
3323636816
3323642065
3323647863
3323652746
3323658788
3323663915
3323669530
3323675878
3323682836
3323689245
3323693883
3323700109
3323705602
3323712072
3323717870
3323725194
3323731603
3323736791
3323742833
3323748205
3323754186
3323759801
3323765661
3323771581
3323777257
3323782811
3323789342
3323794591
3323800878
3323806676
3323811681
3323817662
3323823278
3323828588
3323834508
3323840123
3323846898
3323853612
3323859654
3323863683
3323869481
3323875768
3323881139
3323885838
3323891149
3323897191
3323903356
3323908360
3323912999
3323919408
3323924962
3323930882
3323936009
3323942052
3323947423
3323952733
3323958287
3323963902
3323970311
3323976353
3323982823
3323987279
3323993565
3323998204
3324004979
3324010472
3324016514
3324022435
3324027684
3324033909
3324039586
3324045872
3324051060
3324056981
3324062474
3324067906
3324074803
3324079625
3324085850
3324091832
3324097752
3324102818
3324108311
3324114292
3324119725
3324125523
3324131504
3324137242
3324141575
3324149143
3324154331
3324159764
3324165745
3324171360
3324176304
3324183323
3324188938
3324195896
3324201695
3324208164
3324213108
3324221775
3324227390
3324232700
3324240086
3324246128
3324252110
3324256199
3324263462
3324268040
3324273289
3324280979
3324285618
3324290684
3324297275
3324303379
3324309116
3324315281
3324322422
3324326389
3324333408
3324338657
3324343845
3324349277
3324356724
3324361057
3324366916
3324371738
3324377781
3324383823
3324389316
3324395725
3324401279
3324406162
3324411411
3324417820
3324423191
3324427890
3324433444
3324439426
3324444004
3324449924
3324455112
3324461032
3324467380
3324473422
3324478916
3324483188
3324489719
3324496738
3324503024
3324509311
3324514499
3324519809
3324526462
3324531406
3324537326
3324542697
3324549045
3324553744
3324560092
3324567538
3324573642
3324579074
3324585605
3324591037
3324595676
3324602450
3324605319
3324613742
3324620212
3324625278
3324630404
3324637362
3324643161
3324648227
3324653781
3324660495
3324665927
3324672335
3324676913
3324683383
3324689730
3324695468
3324701754
3324707614
3324712741
3324718539
3324724887
3324729220
3324735446
3324742526
3324748812
3324753146
3324760653
3324765658
3324773226
3324778170
3324785922
3324791110
3324799410
3324804965
3324810702
3324816195
3324822054
3324827609
3324833468
3324839877
3324845980
3324852511
3324858187
3324864657
3324871615
3324877291
3324883822
3324889498
3324895785
3324900240
3324906222
3324911959
3324918123
3324924410
3324932223
3324938082
3324944918
3324950472
3324955416
3324960909
3324967318
3324972567
3324979464
3324985445
3324991243
3324997103
3325002901
3325008455
3325012728
3325019625
3325024019
3325031710
3325037386
3325043123
3325048799
3325055757
3325060640
3325067720
3325072725
3325079134
3325085054
3325091463
3325096346
3325102815
3325107454
3325115205
3325120027
3325125887
3325132845
3325137239
3325144563
3325148836
3325156587
3325163240
3325168245
3325173433
3325180391
3325185701
3325192171
3325197542
3325203950
3325208345
3325215242
3325221712
3325227693
3325233491
3325239106
3325245027
3325250886
3325258027
3325262300
3325270662
3325275361
3325282319
3325289094
3325293855
3325298982
3325305696
3325313508
3325320405
3325326448
3325331330
3325340058
3325346589
3325352754
3325360200
3325366426
3325371369
3325377656
3325383454
3325389863
3325395600
3325401276
3325407014
3325413300
3325419038
3325425507
3325431733
3325438325
3325442902
3325449433
3325455598
3325460114
3325465546
3325472260
3325477143
3325483613
3325489594
3325495331
3325501923
3325506562
3325514802
3325519501
3325526215
3325532868
3325537873
3325543000
3325550995
3325556550
3325562226
3325568695
3325574555
3325580475
3325587006
3325592377
3325596650
3325602997
3325608795
3325615570
3325620575
3325628388
3325634308
3325640595
3325645783
3325652680
3325657196
3325664215
3325669037
3325674408
3325679230
3325684540
3325690460
3325696320
3325701630
3325707184
3325712250
3325716156
3325723175
3325728790
3325735931
3325740997
3325746979
3325751678
3325757721
3325765045
3325770233
3325777130
3325782379
3325787628
3325793243
3325799530
3325804535
3325810882
3325816192
3325822540
3325828583
3325834503
3325839447
3325843292
3325850067
3325858368
3325863983
3325872284
3325879425
3325884552
3325891815
3325898223
3325903595
3325910125
3325916107
3325921722
3325928924
3325935272
3325941680
3325946746
3325953155
3325959014
3325964446
3325970611
3325975860
3325982391
3325988250
3325994232
3325998687
3326004485
3326009368
3326015289
3326021819
3326025848
3326032989
3326038665
3326043914
3326049712
3326055938
3326060882
3326066802
3326072478
3326077849
3326084014
3326089690
3326094512
3326100554
3326107024
3326111968
3326117095
3326123748
3326129302
3326134978
3326140777
3326148528
3326155120
3326159270
3326165618
3326171721
3326176543
3326181243
3326188506
3326193511
3326198882
3326204436
3326209746
3326215483
3326219451
3326227019
3326233184
3326239043
3326242827
3326248686
3326255278
3326260527
3326265837
3326271086
3326278044
3326283415
3326288970
3326293303
3326301054
3326305693
3326312712
3326318205
3326323088
3326328337
3326335417
3326340361
3326346648
3326352507
3326358733
3326364409
3326372282
3326379423
3326385527
3326391264
3326397734
3326404082
3326409941
3326416350
3326422087
3326428496
3326434111
3326439299
3326443876
3326450529
3326456755
3326461515
3326466642
3326473112
3326479582
3326485197
3326491606
3326495756
3326502714
3326508329
3326514128
3326520658
3326525968
3326532072
3326536222
3326542448
3326548551
3326553678
3326558988
3326565458
3326569853
3326576078
3326581144
3326587187
3326593656
3326598844
3326604948
3326608976
3326616178
3326620206
3326626981
3326632475
3326637479
3326643766
3326649625
3326653837
3326660123
3326666044
3326673002
3326678617
3326683988
3326690214
3326694181
3326701688
3326704496
3326712308
3326716764
3326723111
3326728666
3326734769
3326740201
3326745145
3326750516
3326756803
3326761869
3326768155
3326776639
3326780973
3326786954
3326792630
3326799710
3326804349
3326811185
3326816617
3326822599
3326827970
3326834806
3326840238
3326845120
3326851895
3326856900
3326862576
3326870816
3326875028
3326881314
3326887113
3326892789
3326898770
3326904752
3326910123
3326917386
3326922696
3326929105
3326935147
3326940701
3326947476
3326954800
3326961209
3326966397
3326971768
3326978177
3326983304
3326989468
3326995877
3327001431
3327006802
3327012173
3327017666
3327023587
3327029934
3327034878
3327040188
3327046902
3327051419
3327056790
3327062832
3327067776
3327073819
3327079190
3327084744
3327090298
3327096096
3327101773
3327105740
3327112881
3327117581
3327125515
3327129483
3327136746
3327140591
3327147854
3327152188
3327157498
3327164395
3327168301
3327175686
3327178738
3327187283
3327192837
3327197842
3327203030
3327210842
3327219082
3327224758
3327229458
3327234829
3327240627
3327245815
3327251858
3327257412
3327262722
3327267666
3327274624
3327280056
3327286098
3327290554
3327298549
3327304043
3327309597
3327314296
3327319546
3327325771
3327329799
3327336635
3327341152
3327349331
3327353725
3327360073
3327365139
3327369716
3327376125
3327383083
3327387172
3327393032
3327397792
3327404933
3327410244
3327414272
3327420436
3327426784
3327431911
3327438991
3327446437
3327452114
3327456447
3327465602
3327471034
3327478603
3327483974
3327489345
3327496059
3327500087
3327506801
3327513087
3327519008
3327523524
3327529506
3327533961
3327540126
3327546413
3327552028
3327557643
3327563502
3327568507
3327574733
3327579982
3327585963
3327593104
3327597438
3327603358
3327609157
3327614406
3327620814
3327624782
3327631495
3327637111
3327642299
3327648158
3327654139
3327659083
3327665004
3327669825
3327676417
3327681361
3327687770
3327694850
3327699244
3327705531
3327711329
3327718592
3327722987
3327729334
3327735377
3327741297
3327746607
3327753626
3327759547
3327765955
3327771815
3327777491
3327782618
3327788416
3327794093
3327799708
3327806239
3327812220
3327817774
3327824244
3327829798
3327835596
3327841090
3327846888
3327852808
3327858607
3327865504
3327870875
3327875880
3327882776
3327887598
3327894373
3327900599
3327906336
3327912195
3327918116
3327923914
3327929285
3327935022
3327940821
3327946558
3327952112
3327958033
3327964869
3327969263
3327975977
3327980371
3327988733
3327994043
3328000818
3328006433
3328013208
3328018946
3328025537
3328031275
3328037927
3328043726
3328049768
3328055994
3328061853
3328067407
3328073206
3328080408
3328084863
3328091760
3328096521
3328103662
3328108850
3328116541
3328122156
3328129846
3328136072
3328141809
3328147668
3328153406
3328158838
3328164758
3328170495
3328174890
3328182702
3328187951
3328193506
3328199487
3328204980
3328209314
3328216943
3328223779
3328228967
3328235193
3328240075
3328246423
3328251489
3328257165
3328263879
3328270715
3328274987
3328281396
3328287194
3328293786
3328300195
3328306481
3328311486
3328319177
3328321984
3328330712
3328335839
3328341393
3328346459
3328354455
3328361230
3328366113
3328372643
3328378381
3328383813
3328390344
3328397607
3328402184
3328408715
3328414452
3328420312
3328426293
3328431908
3328436242
3328444360
3328451684
3328460961
3328466576
3328472863
3328477318
3328483605
3328488793
3328495446
3328500634
3328507042
3328513207
3328518822
3328523827
3328529442
3328535607
3328541405
3328547448
3328553856
3328559288
3328566002
3328572045
3328579186
3328586327
3328592247
3328599572
3328606835
3328612877
3328619347
3328624657
3328631249
3328637230
3328643395
3328648705
3328654442
3328659935
3328666222
3328673180
3328680687
3328687401
3328692284
3328697960
3328702843
3328709923
3328716209
3328720787
3328728172
3328734215
3328739586
3328743736
3328750206
3328757103
3328762657
3328769249
3328774193
3328780662
3328785667
3328792198
3328797264
3328803184
3328809532
3328814171
3328820396
3328825157
3328832908
3328838524
3328844322
3328850059
3328855919
3328861351
3328867759
3328873924
3328878868
3328886070
3328892112
3328898704
3328904624
3328910057
3328915916
3328922813
3328928184
3328933006
3328939781
3328946372
3328952232
3328958030
3328963523
3328969261
3328974754
3328980613
3328987083
3328993369
3328998862
3329003196
3329009849
3329015769
3329021201
3329027366
3329032981
3329039451
3329044334
3329051231
3329056174
3329061729
3329068198
3329073813
3329080955
3329087180
3329092978
3329098227
3329102317
3329110068
3329114158
3329121970
3329128135
3329134482
3329139914
3329146445
3329151755
3329158164
3329164511
3329171714
3329178244
3329183615
3329189475
3329194419
3329200888
3329205710
3329211936
3329218588
3329224509
3329229575
3329233847
3329240195
3329245993
3329252585
3329258139
3329263815
3329268881
3329274863
3329280234
3329285849
3329291647
3329298727
3329303915
3329310019
3329315756
3329321494
3329326804
3329332480
3329339255
3329345114
3329349997
3329355429
3329361777
3329367636
3329374106
3329379965
3329387655
3329394003
3329399801
3329405966
3329410422
3329416525
3329422323
3329430136
3329438192
3329443075
3329449118
3329453146
3329460409
3329466085
3329472006
3329477987
3329483297
3329489401
3329495138
3329500204
3329506552
3329511923
3329515829
3329522665
3329528097
3329535848
3329541281
3329547140
3329553304
3329559896
3329565145
3329571005
3329576620
3329582418
3329587972
3329593710
3329601888
3329608236
3329614523
3329620321
3329626058
3329632040
3329637655
3329643209
3329648885
3329653707
3329658895
3329667623
3329672140
3329678976
3329685872
3329692525
3329698507
3329705160
3329711263
3329716695
3329723043
3329729268
3329734273
3329739522
3329746053
3329751729
3329758077
3329763753
3329770772
3329776326
3329783040
3329788411
3329793965
3329800496
3329805745
3329811482
3329815938
3329822164
3329829305
3329833211
3329840352
3329844686
3329851338
3329857076
3329861775
3329867940
3329873982
3329878377
3329885579
3329890828
3329896321
3329902669
3329907979
3329913106
3329918538
3329925191
3329929951
3329936116
3329942403
3329947774
3329952962
3329958638
3329964986
3329970479
3329977437
3329983052
3329988667
3329993123
3329999287
3330005818
3330011067
3330016072
3330021504
3330028462
3330032856
3330039143
3330044819
3330049336
3330055378
3330062031
3330068318
3330073506
3330078694
3330084004
3330089924
3330095417
3330100483
3330106770
3330111286
3330116596
3330122029
3330127522
3330132649
3330137837
3330143757
3330149861
3330153950
3330160725
3330164692
3330171406
3330175434
3330183857
3330190876
3330197651
3330204304
3330210896
3330218464
3330224445
3330231342
3330236408
3330242145
3330247639
3330253437
3330261616
3330266865
3330272724
3330279621
3330283893
3330291462
3330298176
3330304401
3330310688
3330316120
3330321247
3330326679
3330332050
3330337360
3330343158
3330347248
3330354694
3330360309
3330366474
3330371540
3330377460
3330383136
3330388263
3330394245
3330398395
3330404315
3330409564
3330415302
3330421832
3330427265
3330433917
3330438678
3330444171
3330450092
3330454730
3330460651
3330467731
3330476947
3330480853
3330486774
3330492572
3330498981
3330503802
3330510699
3330517291
3330522540
3330528278
3330533588
3330539935
3330544391
3330550555
3330557330
3330562335
3330567218
3330571063
3330578692
3330584430
3330590411
3330594623
3330601764
3330606585
3330611834
3330616656
3330622149
3330628863
3330634356
3330639605
3330644366
3330649920
3330655963
3330660968
3330666949
3330673297
3330679278
3330685137
3330691241
3330698992
3330704974
3330712115
3330718341
3330724261
3330729632
3330733904
3330741961
3330746661
3330753253
3330758196
3330764178
3330770220
3330775774
3330781756
3330787127
3330792925
3330800311
3330806292
3330810381
3330817583
3330823382
3330829119
3330835894
3330839922
3330847063
3330852801
3330857378
3330863116
3330868914
3330873797
3330880083
3330886126
3330891558
3330897844
3330902300
3330908648
3330914690
3330920977
3330926409
3330931536
3330936968
3330942705
3330948931
3330954668
3330961016
3330965960
3330972185
3330977190
3330983354
3330988420
3330994768
3331002275
3331007524
3331012468
3331018267
3331024126
3331029131
3331035051
3331039873
3331048296
3331054888
3331060869
3331066728
3331071428
3331077409
3331081987
3331088823
3331096208
3331101640
3331107195
3331113237
3331118303
3331122209
3331129472
3331135454
3331141313
3331146135
3331152177
3331156572
3331162492
3331167985
3331175004
3331180009
3331185258
3331191606
3331195939
3331202409
3331207841
3331213029
3331220048
3331225847
3331232194
3331237931
3331243974
3331249284
3331256242
3331261369
3331268083
3331270951
3331278459
3331284623
3331289323
3331296769
3331302568
3331308549
3331314103
3331319169
3331324662
3331331925
3331337907
3331342545
3331348710
3331354630
3331359940
3331365250
3331370683
3331375993
3331383683
3331387528
3331394608
3331400163
3331406449
3331411637
3331417680
3331422562
3331430375
3331435380
3331441117
3331446244
3331451981
3331457047
3331461747
3331468705
3331475724
3331481156
3331487137
3331492447
3331497757
3331504105
3331509659
3331516190
3331523026
3331528397
3331533829
3331538895
3331545304
3331550553
3331555863
3331562271
3331567459
3331572220
3331578507
3331584366
3331590409
3331596207
3331601578
3331607559
3331612686
3331618424
3331623429
3331627335
3331634659
3331640091
3331646195
3331650955
3331656815
3331662308
3331667618
3331673904
3331680069
3331685135
3331691360
3331695938
3331701981
3331708450
3331713821
3331720657
3331726273
3331731827
3331737930
3331746231
3331752151
3331759292
3331765213
3331772781
3331779312
3331783584
3331791214
3331796158
3331801895
3331808426
3331814163
3331820022
3331825149
3331831619
3331836868
3331843460
3331851150
3331856460
3331863540
3331869827
3331876846
3331884231
3331889053
3331895095
3331900650
3331906143
3331912795
3331918167
3331923293
3331929580
3331935134
3331940811
3331946975
3331953384
3331958999
3331964919
3331970840
3331976699
3331981460
3331986953
3331992995
3331999221
3332005202
3332012160
3332017898
3332024062
3332030471
3332035171
3332041579
3332046462
3332051772
3332058120
3332065261
3332071242
3332075637
3332081801
3332087966
3332092788
3332098647
3332104018
3332109328
3332115676
3332120253
3332125991
3332131606
3332137282
3332143142
3332148330
3332153823
3332160353
3332165236
3332172438
3332178908
3332182814
3332189528
3332195449
3332201064
3332206191
3332211867
3332217482
3332223219
3332228530
3332233901
3332241164
3332246352
3332252638
3332259596
3332265395
3332270705
3332276564
3332281691
3332287795
3332293959
3332298903
3332304701
3332309462
3332315626
3332321791
3332327284
3332337233
3332343458
3332349196
3332355787
3332361403
3332366469
3332371718
3332377394
3332384779
3332390089
3332396254
3332401014
3332407179
3332413038
3332417494
3332423475
3332428907
3332434279
3332440260
3332445448
3332451796
3332455824
3332462233
3332467787
3332474073
3332479505
3332485365
3332490309
3332496412
3332500929
3332510084
3332517652
3332522413
3332527662
3332533033
3332539747
3332544935
3332549024
3332556226
3332562086
3332566847
3332573072
3332577833
3332583204
3332589124
3332594068
3332599989
3332606092
3332611341
3332617994
3332622816
3332630445
3332636426
3332642225
3332646802
3332652662
3332657422
3332663221
3332669996
3332675733
3332682020
3332686170
3332693250
3332697706
3332704053
3332708204
3332716321
3332720411
3332727552
3332732434
3332737806
3332744825
3332750928
3332756116
3332761914
3332768689
3332773816
3332780286
3332785169
3332791272
3332798047
3332803357
3332808362
3332814099
3332819470
3332825269
3332831922
3332836926
3332843457
3332850293
3332855664
3332860791
3332866223
3332873181
3332877942
3332884290
3332886914
3332894666
3332900586
3332906506
3332911877
3332917187
3332922681
3332928723
3332934277
3332939465
3332945752
3332951428
3332956494
3332961011
3332968640
3332973401
3332979382
3332983960
3332990063
3332994824
3333000805
3333006665
3333011975
3333018444
3333022839
3333030590
3333033581
3333043103
3333048962
3333056042
3333064038
3333068127
3333075634
3333080883
3333086987
3333091442
3333099133
3333103039
3333108532
3333113903
3333118786
3333124462
3333128124
3333134045
3333139721
3333146069
3333149731
3333155651
3333161266
3333165417
3333170116
3333177197
3333183178
3333187206
3333193005
3333197033
3333203136
3333207714
3333216564
3333222057
3333227611
3333233898
3333240429
3333246960
3333251171
3333259838
3333265758
3333271007
3333277721
3333284557
3333288769
3333296581
3333304271
3333310070
3333313976
3333320018
3333326122
3333331493
3333337108
3333343883
3333348888
3333353160
3333359935
3333364940
3333371837
3333376842
3333383678
3333389965
3333394786
3333402355
3333407482
3333413341
3333418956
3333424877
3333430675
3333436229
3333441661
3333447887
3333453014
3333456981
3333465465
3333470653
3333476634
3333481212
3333487132
3333492503
3333497813
3333504039
3333510570
3333515697
3333519603
3333526622
3333531322
3333537730
3333543651
3333549693
3333555858
3333561595
3333567332
3333572520
3333578685
3333584544
3333589793
3333595652
3333602061
3333606089
3333612498
3333618419
3333623118
3333628733
3333634776
3333640452
3333645579
3333651133
3333655162
3333662852
3333668772
3333674510
3333680796
3333686228
3333691966
3333697337
3333702708
3333709544
3333713816
3333720591
3333725718
3333732005
3333736765
3333742991
3333748179
3333755869
3333762034
3333767832
3333773386
3333779429
3333784800
3333790537
3333796152
3333800486
3333808054
3333812693
3333820444
3333827769
3333831431
3333838206
3333843882
3333849192
3333855234
3333860239
3333867136
3333872019
3333877268
3333883188
3333887949
3333896067
3333902109
3333906321
3333912668
3333919077
3333924387
3333930002
3333935190
3333941477
3333947397
3333953257
3333958872
3333963571
3333969980
3333975473
3333981577
3333988169
3333993845
3333999704
3334005319
3334010874
3334016672
3334022287
3334028635
3334034250
3334040415
3334045786
3334050790
3334057626
3334062204
3334069101
3334075204
3334080331
3334085886
3334092355
3334097543
3334104929
3334111093
3334117502
3334123300
3334128915
3334134592
3334140207
3334145151
3334150766
3334156991
3334162668
3334169443
3334175119
3334180490
3334184884
3334191781
3334198068
3334203744
3334210763
3334215646
3334220346
3334227304
3334233041
3334239450
3334244394
3334252084
3334256906
3334262765
3334269052
3334275216
3334280648
3334284921
3334291818
3334298104
3334303536
3334310006
3334314950
3334321176
3334325997
3334332467
3334338876
3334347115
3334352364
3334359322
3334364144
3334371468
3334377450
3334384957
3334392342
3334396493
3334403878
3334409371
3334414376
3334420235
3334426461
3334431649
3334437508
3334442269
3334449593
3334454964
3334459237
3334466866
3334472603
3334479073
3334485116
3334489815
3334494515
3334500679
3334507271
3334513131
3334518563
3334524361
3334530770
3334536934
3334542183
3334548470
3334553902
3334560311
3334565377
3334571602
3334576851
3334581551
3334587288
3334592110
3334599007
3334604866
3334611702
3334616707
3334620796
3334626961
3334633003
3334638374
3334643929
3334651741
3334657784
3334664314
3334671700
3334675972
3334684029
3334689949
3334696175
3334700996
3334707405
3334714729
3334720222
3334725899
3334732063
3334737739
3334742073
3334749946
3334755134
3334762031
3334767341
3334774482
3334779121
3334785530
3334791328
3334797676
3334803413
3334809028
3334814155
3334820076
3334825874
3334831611
3334838325
3334844123
3334848884
3334854866
3334863899
3334869331
3334875740
3334880378
3334886177
3334893501
3334899360
3334907661
3334912849
3334917976
3334923286
3334929756
3334935737
3334941108
3334947212
3334953071
3334958198
3334963386
3334969123
3334974494
3334981330
3334986457
3334992438
3334999091
3335004035
3335010200
3335018256
3335026130
3335033515
3335039802
3335046638
3335052680
3335058173
3335064460
3335069892
3335074531
3335081794
3335089179
3335094245
3335100104
3335106391
3335112189
3335117804
3335122260
3335128669
3335136054
3335145514
3335152289
3335156867
3335163520
3335169379
3335174994
3335181159
3335188056
3335193732
3335198676
3335205206
3335210639
3335216681
3335223273
3335228766
3335234869
3335239935
3335246405
3335252631
3335258490
3335265082
3335271429
3335276739
3335282660
3335288031
3335293890
3335299261
3335304877
3335310858
3335316901
3335323675
3335328863
3335333990
3335340399
3335346808
3335351813
3335358160
3335362921
3335369513
3335375799
3335381353
3335387396
3335391424
3335399847
3335405706
3335410650
3335418829
3335426764
3335436041
3335446783
3335455572
3335461309
3335469549
3335475164
3335482305
3335488226
3335495489
3335502264
3335508672
3335514227
3335520025
3335525518
3335530523
3335536688
3335542181
3335548406
3335554876
3335561590
3335567205
3335573248
3335580938
3335587041
3335592107
3335597539
3335604192
3335609930
3335613714
3335621892
3335627874
3335633062
3335640264
3335646734
3335651922
3335658025
3335664495
3335669378
3335676153
3335680974
3335687871
3335693242
3335698735
3335704961
3335711126
3335717717
3335724248
3335729253
3335736028
3335742742
3335748784
3335754460
3335759893
3335765691
3335770940
3335777471
3335783513
3335788762
3335794805
3335800725
3335806035
3335812627
3335818059
3335823796
3335830449
3335835820
3335840703
3335846867
3335859685
3335868230
3335875188
3335882329
3335890507
3335897893
3335905278
3335913090
3335920476
3335928471
3335934147
3335941411
3335948247
3335954655
3335960576
3335967289
3335973576
3335980534
3335986516
3335992558
3335999455
3336005925
3336011601
3336018071
3336023991
3336028935
3336035832
3336040715
3336046940
3336052738
3336057072
3336064396
3336069645
3336076969
3336081913
3336087895
3336092900
3336099430
3336105534
3336111698
3336116886
3336122013
3336127384
3336132511
3336139042
3336144169
3336151249
3336155949
3336159306
3336163761
3336167789
3336172428
3336177128
3336181583
3336187015
3336191532
3336196354
3336200382
3336205204
3336210148
3336215092
3336220035
3336227299
3336231205
3336235966
3336239689
3336245121
3336250065
3336254520
3336258610
3336263431
3336266849
3336273197
3336278263
3336283329
3336287967
3336292118
3336297184
3336300541
3336305851
3336310062
3336313968
3336318180
3336323001
3336328312
3336332828
3336337162
3336341983
3336346622
3336351139
3336356632
3336360599
3336365360
3336369876
3336374088
3336378726
3336384220
3336388492
3336392948
3336398013
3336401920
3336406558
3336409976
3336416690
3336422366
3336428348
3336432681
3336435977
3336440921
3336446536
3336452640
3336457462
3336461002
3336466861
3336471011
3336476382
3336480777
3336485232
3336490298
3336496463
3336501224
3336505130
3336510257
3336514224
3336518802
3336525271
3336530398
3336534854
3336539859
3336543582
3336549624
3336553775
3336558536
3336563968
3336568240
3336573611
3336577639
3336582095
3336587588
3336590762
3336596560
3336602420
3336607180
3336611575
3336616153
3336619143
3336624148
3336627932
3336633303
3336638186
3336642642
3336647708
3336651126
3336656436
3336660220
3336666262
3336670291
3336679202
3336682376
3336687625
3336692202
3336696719
3336701174
3336707461
3336712588
3336717043
3336721377
3336724856
3336729800
3336733157
3336738589
3336744082
3336749331
3336752993
3336759585
3336763918
3336768679
3336772524
3336778567
3336783755
3336790713
3336795046
3336799746
3336804018
3336808779
3336813784
3336818667
3336824892
3336828615
3336834048
3336838930
3336842776
3336849001
3336854006
3336859011
3336863711
3336870669
3336876040
3336880617
3336885500
3336890322
3336896242
3336901796
3336908083
3336914858
3336919435
3336925539
3336929018
3336935793
3336939333
3336947451
3336952455
3336958132
3336962465
3336966738
3336972353
3336976808
3336979372
3336987917
3336992739
3336999147
3337003053
3337008547
3337013246
3337018007
3337023317
3337028078
3337032716
3337038759
3337041994
3337047853
3337052736
3337057008
3337062196
3337067079
3337072572
3337078371
3337084291
3337088869
3337091737
3337097963
3337103395
3337108827
3337114931
3337120302
3337124757
3337129945
3337135866
3337141237
3337145265
3337151185
3337158326
3337164125
3337168214
3337174196
3337178224
3337183839
3337189698
3337196107
3337202760
3337208375
3337212770
3337217286
3337223634
3337228456
3337233033
3337238343
3337243592
3337250245
3337255311
3337259095
3337265626
3337270814
3337275697
3337278504
3337285340
3337289430
3337295777
3337299928
3337306764
3337312745
3337316651
3337322022
3337327027
3337335145
3337339600
3337345704
3337349671
3337356324
3337361573
3337366761
3337372132
3337378968
3337385499
3337391175
3337394044
3337401490
3337407532
3337413270
3337417664
3337422974
3337429688
3337436463
3337441163
3337448182
3337452698
3337458680
3337464661
3337469605
3337477051
3337481324
3337488526
3337495728
3337500550
3337508667
3337513306
3337519776
3337525391
3337532776
3337536988
3337544129
3337548157
3337554199
3337559571
3337563538
3337571106
3337579041
3337583679
3337588562
3337594727
3337599426
3337605408
3337609009
3337615357
3337620850
3337626160
3337632629
3337639282
3337643921
3337651917
3337656921
3337664795
3337669434
3337676514
3337681396
3337688721
3337693848
3337699341
3337702698
3337713135
3337716553
3337723450
3337728027
3337734924
3337739441
3337743957
3337751770
3337755371
3337762573
3337768982
3337778381
3337784546
3337789856
3337794922
3337797668
3337806091
3337811401
3337816772
3337821594
3337826721
3337831176
3337836547
3337840576
3337846984
3337852844
3337858215
3337862426
3337868713
3337873168
3337879089
3337883666
3337888915
3337895873
3337902404
3337907897
3337913818
3337921508
3337926879
3337934325
3337938659
3337946471
3337952758
3337959045
3337965270
3337970336
3337978271
3337983031
3337989318
3337994811
3338001586
3338007201
3338012878
3338018310
3338023192
3338029479
3338035094
3338041198
3338046569
3338052916
3338057494
3338064452
3338068786
3338075438
3338080748
3338087462
3338094786
3338099913
3338105040
3338109679
3338114989
3338119872
3338124999
3338130736
3338136046
3338142455
3338147643
3338154296
3338159728
3338166625
3338171569
3338177733
3338181700
3338187926
3338194457
3338198607
3338204344
3338208617
3338214720
3338219359
3338225462
3338231566
3338236266
3338241698
3338247252
3338252623
3338257323
3338263548
3338268126
3338273375
3338279845
3338285521
3338291136
3338296568
3338300719
3338308226
3338313902
3338319700
3338325010
3338330870
3338334410
3338341185
3338346312
3338352720
3338360167
3338366697
3338371275
3338375975
3338381529
3338386290
3338390623
3338396116
3338402952
3338408689
3338413938
3338419798
3338425413
3338429747
3338435667
3338440855
3338447935
3338453489
3338459410
3338463499
3338470213
3338474729
3338479978
3338482908
3338490354
3338496519
3338502622
3338508054
3338513670
3338519590
3338523924
3338529783
3338534727
3338541196
3338548460
3338552915
3338559080
3338564939
3338570249
3338574583
3338580076
3338585508
3338590330
3338599058
3338603940
3338610593
3338614622
3338621702
3338627256
3338634397
3338640500
3338648374
3338652952
3338658628
3338665403
3338670163
3338674924
3338680478
3338685544
3338692929
3338697324
3338702695
3338708188
3338713498
3338718259
3338724057
3338729978
3338736020
3338741269
3338746518
3338751767
3338755612
3338761045
3338766294
3338770810
3338777341
3338782651
3338787656
3338792966
3338797543
3338803403
3338807309
3338814877
3338819577
3338826413
3338830319
3338837033
3338843137
3338850095
3338856320
3338862668
3338869382
3338874020
3338881406
3338885983
3338893490
3338898434
3338904843
3338912045
3338916806
3338922787
3338927914
3338935544
3338939206
3338945187
3338950863
3338955929
3338961056
3338967465
3338972287
3338977047
3338982174
3338987057
3338991208
3338996579
3339005368
3339010617
3339015622
3339020809
3339025387
3339031002
3339035397
3339041989
3339048336
3339054135
3339061154
3339067379
3339071835
3339077023
3339083615
3339088192
3339094479
3339099972
3339106503
3339112057
3339117733
3339123653
3339129513
3339133907
3339140377
3339147274
3339151119
3339157833
3339161739
3339168514
3339174129
3339179317
3339182552
3339191158
3339196346
3339205318
3339209286
3339215145
3339220028
3339227413
3339232845
3339239498
3339246212
3339252193
3339257442
3339262813
3339267818
3339273250
3339277340
3339283199
3339289425
3339294857
3339301204
3339307308
3339312801
3339318782
3339324703
3339330806
3339338069
3339343013
3339347347
3339353755
3339358455
3339363643
3339369136
3339374874
3339379817
3339387813
3339391292
3339397884
3339401851
3339407039
3339411372
3339417598
3339423396
3339429256
3339433711
3339438960
3339442989
3339449397
3339455257
3339460567
3339464900
3339471309
3339475459
3339482173
3339486751
3339493098
3339499019
3339505061
3339511348
3339518001
3339523372
3339527217
3339533442
3339538264
3339543086
3339547908
3339555537
3339560176
3339566768
3339570979
3339575923
3339581111
3339586909
3339591365
3339598689
3339603694
3339609675
3339614314
3339619868
3339626033
3339631648
3339636103
3339640803
3339648127
3339653315
3339660761
3339665522
3339670588
3339675288
3339680903
3339685298
3339691889
3339698664
3339704829
3339709162
3339714900
3339720942
3339725214
3339731318
3339736933
3339744685
3339750300
3339756708
3339761164
3339769160
3339773981
3339779536
3339785822
3339793574
3339797419
3339805292
3339811213
3339815729
3339820429
3339826533
3339831782
3339837702
3339843500
3339847895
3339854548
3339858759
3339865595
3339869928
3339876154
3339881769
3339886591
3339893366
3339898554
3339902765
3339907953
3339914240
3339919001
3339924616
3339930719
3339935907
3339941400
3339946161
3339950617
3339955744
3339961786
3339967340
3339972284
3339977594
3339981684
3339987238
3339992670
3339997919
3340002069
3340008051
3340012506
3340019464
3340024591
3340028803
3340035394
3340040582
3340045831
3340051630
3340057855
3340064996
3340071039
3340076837
3340083734
3340088800
3340094537
3340098749
3340104547
3340109918
3340114618
3340120660
3340124689
3340131036
3340135614
3340142572
3340147577
3340153253
3340158807
3340165216
3340170404
3340176019
3340180597
3340186700
3340191217
3340195794
3340202691
3340208062
3340214959
3340219659
3340227471
3340234185
3340241265
3340248162
3340253472
3340261041
3340267327
3340273187
3340279534
3340284966
3340291680
3340295342
3340304070
3340309808
3340316827
3340320855
3340327569
3340330926
3340356805
3340364495
3340372246
3340375848
3340382744
3340386895
3340393120
3340398369
3340404595
3340409234
3340415764
3340419976
3340426140
3340431389
3340436638
3340441826
3340447320
3340453850
3340459160
3340463555
3340469902
3340475090
3340480462
3340486138
3340491814
3340498162
3340503228
3340508904
3340513848
3340519585
3340524285
3340530327
3340535454
3340539971
3340546929
3340551567
3340557610
3340562126
3340566887
3340571587
3340578362
3340583428
3340589897
3340593437
3340600151
3340603752
3340610161
3340612846
3340619194
3340624382
3340631340
3340635551
3340641716
3340647331
3340652702
3340656670
3340662956
3340669304
3340675896
3340681572
3340685539
3340690849
3340696831
3340702202
3340705803
3340713615
3340719230
3340724663
3340730705
3340735344
3340743828
3340749199
3340755424
3340760246
3340766533
3340772514
3340778617
3340784416
3340790641
3340795402
3340801811
3340807914
3340815544
3340820060
3340825004
3340831474
3340836174
3340841300
3340847099
3340853324
3340859489
3340864921
3340869682
3340875419
3340881767
3340887321
3340891715
3340897941
3340904166
3340910270
3340916190
3340922782
3340927604
3340932609
3340939445
3340944694
3340950736
3340957084
3340963065
3340968070
3340974540
3340978690
3340985099
3340990348
3340995231
3341001456
3341007865
3341011832
3341018119
3341024222
3341029532
3341033683
3341039725
3341046378
3341052970
3341057242
3341062125
3341067069
3341072440
3341076468
3341084342
3341088797
3341094596
3341099662
3341104972
3341108939
3341114676
3341121085
3341125174
3341131766
3341137259
3341141287
3341148001
3341152335
3341157889
3341163748
3341167777
3341174063
3341179740
3341185660
3341190970
3341195059
3341199637
3341205618
3341211295
3341216727
3341222525
3341229239
3341234488
3341241019
3341247488
3341252554
3341257254
3341262747
3341267752
3341274527
3341279898
3341285391
3341289603
3341294913
3341300589
3341305899
3341311575
3341316946
3341321829
3341327444
3341331656
3341336905
3341342825
3341348562
3341353933
3341360708
3341367178
3341372305
3341376760
3341382010
3341387136
3341392569
3341398672
3341405020
3341411367
3341417166
3341422293
3341428701
3341434866
3341439443
3341445852
3341452078
3341457327
3341464346
3341468862
3341473989
3341478933
3341484548
3341489736
3341496755
3341503652
3341511221
3341515005
3341520742
3341527944
3341534109
3341539785
3341545278
3341550832
3341558034
3341560842
3341567190
3341573232
3341578542
3341582937
3341588247
3341594900
3341601308
3341605276
3341611074
3341617055
3341622487
3341627065
3341631948
3341639638
3341645070
3341650930
3341656118
3341662771
3341668569
3341674978
3341681569
3341686330
3341692556
3341697194
3341705434
3341710195
3341716848
3341721547
3341728688
3341733205
3341739492
3341744374
3341749867
3341754323
3341759633
3341766164
3341771047
3341777394
3341784535
3341789906
3341795033
3341800588
3341808583
3341815907
3341820363
3341827260
3341834401
3341841664
3341846852
3341851918
3341858754
3341864369
3341869801
3341875539
3341882252
3341887929
3341894642
3341900990
3341906972
3341911976
3341918812
3341924122
3341930287
3341934865
3341941578
3341947682
3341953846
3341959340
3341966298
3341971791
3341979847
3341984364
3341989491
3341995533
3342001210
3342006520
3342012440
3342016957
3342024647
3342028431
3342035267
3342040821
3342045826
3342051014
3342056507
3342062184
3342067372
3342073963
3342080860
3342087086
3342093433
3342098927
3342104359
3342111195
3342117054
3342122974
3342127552
3342134022
3342138294
3342145191
3342150318
3342157093
3342161426
3342167225
3342172962
3342178455
3342183887
3342191151
3342197193
3342202320
3342207874
3342214466
3342219776
3342224048
3342230823
3342236133
3342241443
3342247242
3342251941
3342257984
3342265003
3342269519
3342276905
3342282215
3342287525
3342293689
3342298450
3342304187
3342308765
3342313343
3342319385
3342326404
3342331470
3342334217
3342341785
3342346424
3342351612
3342355884
3342361743
3342368335
3342373828
3342378955
3342384265
3342389270
3342395435
3342400867
3342406177
3342410693
3342417102
3342421558
3342427966
3342432971
3342437732
3342443225
3342448413
3342455920
3342459949
3342465991
3342472644
3342477893
3342484729
3342491382
3342497729
3342503528
3342510058
3342515185
3342520190
3342526172
3342531360
3342536914
3342542468
3342545764
3342553393
3342558032
3342564807
3342569201
3342574694
3342580920
3342586596
3342591418
3342598254
3342603015
3342608020
3342613208
3342618273
3342625353
3342628344
3342635790
3342642810
3342648852
3342654650
3342660082
3342664782
3342670153
3342675952
3342680834
3342687914
3342693774
3342699938
3342705248
3342710802
3342715563
3342720019
3342724841
3342731066
3342734911
3342742602
3342748644
3342753344
3342759692
3342764025
3342770190
3342775988
3342781054
3342787035
3342792956
3342797228
3342803087
3342808520
3342811632
3342817858
3342824633
3342829332
3342833544
3342839769
3342846850
3342852160
3342858690
3342865343
3342871691
3342877611
3342883593
3342888536
3342896776
3342902269
3342908251
3342913683
3342919786
3342924913
3342930467
3342934679
3342940721
3342944811
3342950243
3342957384
3342964525
3342968736
3342973924
3342979723
3342984972
3342990465
3342996141
3343001329
3343007677
3343012987
3343018175
3343022569
3343029527
3343035448
3343039659
3343044176
3343050096
3343055711
3343061021
3343067613
3343072435
3343077623
3343083116
3343089586
3343095567
3343098619
3343105638
3343110216
3343116075
3343121934
3343125963
3343132798
3343139512
3343144212
3343149339
3343154466
3343160264
3343165269
3343168260
3343175645
3343184373
3343190721
3343196153
3343202195
3343207627
3343212449
3343218614
3343223802
3343231309
3343237474
3343245042
3343250474
3343255174
3343260911
3343266831
3343272080
3343279221
3343284715
3343290391
3343295518
3343301316
3343307053
3343311509
3343318284
3343324570
3343331101
3343336777
3343341599
3343346726
3343352586
3343358567
3343362900
3343369736
3343374131
3343378892
3343384873
3343388718
3343394822
3343398911
3343404954
3343413437
3343418442
3343422165
3343428635
3343433762
3343438523
3343443467
3343448777
3343451889
3343460373
3343463303
3343470688
3343475083
3343481125
3343485703
3343491196
3343499131
3343505295
3343510178
3343515610
3343521103
3343528000
3343532334
3343537155
3343543808
3343552414
3343560776
3343568100
3343575058
3343582504
3343588669
3343593491
3343600082
3343604538
3343608017
3343613876
3343619492
3343624069
3343630051
3343635788
3343641830
3343647507
3343651901
3343657333
3343661362
3343665634
3343670944
3343676864
3343682724
3343686935
3343692123
3343697006
3343700180
3343706039
3343710129
3343716354
3343720871
3343726730
3343731430
3343735580
3343740707
3343746750
3343751632
3343757248
3343764511
3343769271
3343774826
3343780197
3343784896
3343790512
3343795455
3343800704
3343805404
3343812667
3343816146
3343821639
3343825851
3343831466
3343835555
3343841171
3343845931
3343851852
3343856918
3343860702
3343865646
3343871322
3343876449
3343883529
3343888900
3343894210
3343898910
3343903365
3343909713
3343913375
3343918380
3343924606
3343930099
3343935043
3343940536
3343944930
3343949813
3343953719
3343960616
3343967391
3343972823
3343977157
3343983321
3343987411
3343992293
3343998214
3344003219
3344007674
3344014266
3344019027
3344025130
3344029281
3344034957
3344040267
3344045516
3344052657
3344058516
3344064437
3344068770
3344075118
3344079329
3344084883
3344089949
3344096480
3344101180
3344106002
3344111861
3344116378
3344122603
3344127425
3344133223
3344137496
3344141829
3344146468
3344151656
3344156478
3344162581
3344166853
3344171004
3344176375
3344182662
3344186324
3344191328
3344197310
3344203413
3344207564
3344212752
3344217940
3344221907
3344227583
3344233931
3344240156
3344244612
3344251692
3344256941
3344262739
3344269514
3344276228
3344282088
3344286787
3344293135
3344299483
3344303633
3344309675
3344313948
3344319624
3344325544
3344330000
3344335554
3344341597
3344347456
3344352400
3344358442
3344364546
3344370649
3344375593
3344383467
3344388044
3344393721
3344401045
3344405561
3344410200
3344416242
3344422163
3344426557
3344432539
3344438520
3344446333
3344451154
3344456587
3344461347
3344468672
3344473066
3344480512
3344483686
3344491010
3344493940
3344503034
3344507734
3344514204
3344517133
3344525251
3344532087
3344537641
3344542341
3344547895
3344552900
3344559492
3344564924
3344569684
3344574384
3344581159
3344585370
3344591718
3344597272
3344601789
3344607282
3344612104
3344617658
3344625409
3344630475
3344634748
3344641217
3344646528
3344651715
3344654584
3344661359
3344667951
3344674237
3344678632
3344685407
3344689740
3344694867
3344700910
3344705793
3344712812
3344717572
3344723187
3344728070
3344734784
3344739728
3344744916
3344749982
3344755902
3344761640
3344768903
3344774091
3344779950
3344784467
3344789838
3344795941
3344801312
3344806683
3344815045
3344819989
3344824689
3344831769
3344837384
3344842816
3344848920
3344854413
3344858685
3344866925
3344873089
3344877850
3344880536
3344888409
3344893780
3344898114
3344904034
3344909771
3344915204
3344920758
3344925274
3344930584
3344936261
3344941693
3344947918
3344952252
3344957135
3344963238
3344967266
3344973675
3344978131
3344984661
3344991619
3344996136
3345001995
3345007794
3345013409
3345018292
3345023175
3345028424
3345034344
3345041180
3345043987
3345051129
3345055706
3345061077
3345065106
3345071209
3345075909
3345082928
3345087322
3345093914
3345099712
3345103619
3345110332
3345114666
3345120281
3345129192
3345136761
3345140972
3345147137
3345150860
3345156902
3345161541
3345166973
3345173382
3345179119
3345185161
3345189983
3345195232
3345200481
3345203716
3345210491
3345218181
3345222881
3345227337
3345233318
3345239483
3345244854
3345249309
3345254863
3345260357
3345266521
3345272014
3345278057
3345283428
3345287822
3345294048
3345298381
3345304729
3345311260
3345315654
3345321819
3345327007
3345332988
3345338237
3345342815
3345348857
3345354961
3345362224
3345369182
3345374126
3345379497
3345383952
3345391765
3345394695
3345401592
3345408794
3345415813
3345421611
3345427470
3345431743
3345436992
3345443034
3345448283
3345452861
3345459331
3345463420
3345470012
3345474040
3345479594
3345485332
3345490275
3345496562
3345502788
3345508525
3345516093
3345519450
3345525920
3345529948
3345535014
3345540446
3345547343
3345551677
3345556254
3345561930
3345566691
3345569621
3345576091
3345582743
3345587565
3345592326
3345597270
3345602091
3345608683
3345613627
3345619181
3345624247
3345630412
3345635295
3345641154
3345645548
3345651835
3345656901
3345663493
3345669291
3345675211
3345681376
3345685709
3345692362
3345697184
3345703593
3345708659
3345715861
3345721232
3345728068
3345731791
3345738993
3345743021
3345749125
3345755472
3345761088
3345767313
3345773234
3345778300
3345784403
3345789957
3345797892
3345801554
3345809427
3345815043
3345821146
3345827128
3345832560
3345836954
3345843302
3345847635
3345855082
3345861917
3345869059
3345873514
3345879068
3345884867
3345888407
3345895182
3345899271
3345907083
3345912210
3345918192
3345924234
3345929605
3345934671
3345940470
3345946268
3345950540
3345957559
3345964212
3345968851
3345974527
3345981668
3345988016
3345992715
3345998026
3346003885
3346009378
3346016763
3346021280
3346027505
3346031351
3346037637
3346043069
3346048074
3346054056
3346060403
3346064798
3346070779
3346074441
3346081155
3346087137
3346093118
3346099466
3346106057
3346110391
3346115091
3346119790
3346126321
3346131204
3346136331
3346142007
3346147195
3346152017
3346157998
3346162698
3346167764
3346174050
3346177835
3346183389
3346190469
3346194558
3346200173
3346205850
3346210977
3346216470
3346220559
3346227273
3346232949
3346238564
3346243691
3346249124
3346252908
3346259072
3346263039
3346269997
3346276345
3346282082
3346287453
3346293313
3346297585
3346304360
3346309060
3346315652
3346321389
3346327309
3346330605
3346336648
3346341286
3346347329
3346352029
3346357155
3346363442
