3129243026
3129254928
3129265670
3129276412
3129286788
3129297042
3129308578
3129318465
3129328414
3129338790
3129348800
3129360213
3129369491
3129380233
3129391158
3129400863
3129411239
3129422347
3129432540
3129442000
3129451766
3129462142
3129471419
3129481795
3129491378
3129502425
3129511336
3129521773
3129530867
3129541487
3129551253
3129562300
3129572981
3129582747
3129593245
3129604231
3129614363
3129624556
3129635420
3129646529
3129657027
3129667097
3129677534
3129686140
3129697127
3129708906
3129719710
3129730024
3129740584
3129750837
3129762434
3129772078
3129783613
3129793623
3129803328
3129814619
3129824201
3129836103
3129846113
3129857160
3129866926
3129876814
3129887495
3129897138
3129907087
3129918501
3129926862
3129936872
3129948164
3129956647
3129969099
3129979169
3129987043
3130000226
3130010847
3130023237
3130032026
3130043012
3130054853
3130062665
3130074872
3130084943
3130096601
3130106916
3130115705
3130125226
3130136090
3130145001
3130158307
3130169599
3130177411
3130188825
3130196820
3130208356
3130218793
3130230450
3130241559
3130250714
3130260052
3130272015
3130281781
3130291852
3130302533
3130313885
3130325116
3130335248
3130346478
3130357403
3130367596
3130378765
3130389752
3130401348
3130412579
3130422589
3130432659
3130442608
3130452374
3130462322
3130471539
3130482830
3130492718
3130501751
3130512249
3130522076
3130532513
3130543743
3130553265
3130563641
3130574261
3130583172
3130594280
3130602825
3130614727
3130624859
3130634197
3130644939
3130654888
3130665752
3130675518
3130685039
3130695903
3130705242
3130717632
3130727458
3130737407
3130747783
3130757976
3130769695
3130779888
3130790569
3130801067
3130811137
3130821696
3130832256
3130843364
3130853130
3130863628
3130876872
3130886394
3130899333
3130908854
3130921550
3130930949
3130941813
3130953288
3130963908
3130973185
3130984660
3130994426
3131005229
3131015177
3131025309
3131035624
3131046855
3131056803
3131068766
3131079814
3131092509
3131103312
3131113993
3131125285
3131135233
3131146708
3131158366
3131169535
3131180216
3131189921
3131198649
3131211283
3131223124
3131233866
3131243631
3131253763
3131264505
3131273722
3131284952
3131296244
3131306436
3131317606
3131327677
3131336405
3131348429
3131359171
3131370401
3131379923
3131389383
3131400919
3131412149
3131421426
3131432901
3131444559
3131456338
3131467691
3131476846
3131490213
3131500406
3131511697
3131521463
3131530435
3131541360
3131551858
3131566934
3131578530
3131588845
3131599404
3131610391
3131621255
3131632913
3131644631
3131654214
3131664773
3131673806
3131685281
3131695413
3131706277
3131716836
3131726907
3131736977
3131747414
3131756142
3131767678
3131778725
3131788430
3131800454
3131811440
3131821633
3131831826
3131843239
3131854042
3131864968
3131875954
3131885598
3131896462
3131907753
3131918556
3131929787
3131941017
3131951698
3131962074
3131972511
3131983925
3131994972
3132005775
3132016701
3132027626
3132038612
3132047890
3132059791
3132069862
3132081398
3132089638
3132100502
3132111915
3132123695
3132133949
3132142982
3132153419
3132165443
3132175270
3132186134
3132198036
3132209632
3132220863
3132230995
3132242774
3132253272
3132263893
3132274329
3132284644
3132295875
3132306861
3132317420
3132329078
3132339820
3132351539
3132363746
3132373939
3132383704
3132397681
3132407386
3132418555
3132428321
3132439978
3132451087
3132461829
3132471167
3132480506
3132489539
3132498633
3132507178
3132515784
3132525244
3132535010
3132543250
3132551856
3132560523
3132569678
3132578833
3132588171
3132597388
3132605872
3132615515
3132622961
3132632788
3132641089
3132652319
3132660803
3132669226
3132677527
3132686011
3132694983
3132705237
3132713720
3132723303
3132730444
3132741797
3132750464
3132759069
3132767614
3132777075
3132785803
3132793920
3132803747
3132811193
3132819128
3132829321
3132837744
3132845678
3132854101
3132862707
3132871496
3132881017
3132888952
3132897985
3132906957
3132915685
3132923681
3132932958
3132942235
3132950292
3132959081
3132967870
3132975683
3132983678
3132992956
3133002050
3133011693
3133019079
3133028295
3133036229
3133044896
3133053319
3133061193
3133069738
3133078405
3133086522
3133094518
3133103612
3133112950
3133120946
3133128270
3133136815
3133144933
3133152989
3133160802
3133169774
3133178075
3133187596
3133195714
3133203954
3133212987
3133222630
3133231114
3133238744
3133247655
3133254857
3133263280
3133271458
3133280186
3133288670
3133297276
3133305516
3133312962
3133321324
3133330479
3133338719
3133348240
3133356968
3133365574
3133372532
3133382969
3133391514
3133399510
3133408238
3133416294
3133424168
3133432957
3133442295
3133451267
3133459934
3133467381
3133476353
3133484531
3133495274
3133504368
3133511997
3133520298
3133528599
3133536228
3133545505
3133553074
3133561863
3133570408
3133578159
3133586887
3133594944
3133604099
3133610569
3133618198
3133627598
3133636692
3133643222
3133650791
3133661533
3133669895
3133682285
3133688266
3133697299
3133704563
3133714755
3133723239
3133731784
3133740146
3133748691
3133758029
3133765781
3133773898
3133783908
3133792270
3133800266
3133808322
3133817355
3133826450
3133835605
3133844394
3133852634
3133861484
3133868625
3133878573
3133884250
3133894504
3133903415
3133911044
3133919162
3133927279
3133937960
3133946139
3133954623
3133963717
3133971835
3133977694
3133988253
3133996127
3134002536
3134012484
3134018099
3134028109
3134035433
3134044833
3134053439
3134062350
3134070467
3134077425
3134086337
3134094881
3134103915
3134111910
3134120272
3134129855
3134138033
3134146639
3134154513
3134165804
3134174898
3134182894
3134192721
3134200411
3134208468
3134219149
3134227388
3134234530
3134242891
3134250338
3134258638
3134267916
3134274385
3134283480
3134291353
3134299410
3134308382
3134316561
3134325655
3134335176
3134343782
3134350191
3134358247
3134367342
3134376863
3134381868
3134391328
3134399568
3134407747
3134415987
3134424776
3134431551
3134439790
3134450044
3134457857
3134465242
3134474397
3134482698
3134490327
3134499544
3134506746
3134514802
3134523530
3134531892
3134540986
3134548738
3134557405
3134563752
3134571687
3134581330
3134590669
3134599153
3134606172
3134614778
3134623200
3134631196
3134642182
3134649568
3134658479
3134666779
3134672944
3134680940
3134690095
3134698701
3134707490
3134716584
3134723847
3134732575
3134741791
3134749726
3134758454
3134765717
3134775971
3134782380
3134790314
3134801728
3134809357
3134817292
3134826691
3134833588
3134846650
3134855011
3134865143
3134872528
3134881989
3134890839
3134899689
3134907440
3134915253
3134923310
3134932831
3134940521
3134949066
3134956268
3134964874
3134974884
3134981903
3134991241
3134999542
3135006866
3135013763
3135023285
3135031525
3135040314
3135048309
3135057098
3135064422
3135072540
3135079681
3135087921
3135095855
3135104950
3135111664
3135119171
3135127716
3135135772
3135143707
3135153411
3135160736
3135168121
3135177581
3135185150
3135192901
3135201629
3135212432
3135220001
3135228057
3135236663
3135244048
3135252654
3135259673
3135267913
3135277129
3135284209
3135290923
3135301299
3135307464
3135318999
3135326995
3135337859
3135344634
3135353057
3135360442
3135370635
3135378631
3135387237
3135397246
3135404143
3135413115
3135420195
3135428008
3135436309
3135445769
3135453582
3135462249
3135469451
3135477996
3135485015
3135495452
3135502532
3135511992
3135519988
3135529326
3135536345
3135544890
3135553984
3135560027
3135570403
3135578520
3135586028
3135595488
3135602507
3135610381
3135619841
3135630522
3135638823
3135646086
3135653776
3135663298
3135670622
3135679655
3135687590
3135696745
3135704130
3135714201
3135720976
3135728727
3135737394
3135746183
3135754972
3135762480
3135770170
3135778166
3135785673
3135795439
3135803495
3135812773
3135819486
3135828764
3135835539
3135844938
3135854337
3135860563
3135869535
3135876981
3135886320
3135892728
3135902128
3135909086
3135918119
3135928312
3135943204
3135952054
3135959196
3135968473
3135976224
3135984769
3135993497
3136002103
3136009855
3136017850
3136026639
3136034635
3136041959
3136050138
3136058194
3136067227
3136074491
3136082791
3136091519
3136099698
3136107755
3136114285
3136125150
3136132962
3136141568
3136149014
3136157376
3136164883
3136173001
3136181790
3136188260
3136197903
3136206937
3136213834
3136221829
3136230862
3136237637
3136247098
3136253750
3136262356
3136270474
3136279507
3136286404
3136296292
3136303799
3136311673
3136319180
3136328274
3136335965
3136344143
3136351712
3136360440
3136367581
3136376431
3136385159
3136392544
3136399929
3136408352
3136417141
3136426296
3136434292
3136442043
3136447903
3136458767
3136465969
3136473721
3136482265
3136492031
3136499599
3136507107
3136516079
3136523037
3136532314
3136539333
3136546718
3136556728
3136563503
3136572353
3136579799
3136587978
3136596706
3136602565
3136613491
3136620876
3136628627
3136636562
3136644252
3136652553
3136660793
3136667690
3136677211
3136685207
3136693447
3136701869
3136709316
3136718532
3136725551
3136734462
3136742763
3136751247
3136758449
3136766994
3136774745
3136783595
3136791164
3136801356
3136809535
3136818080
3136825770
3136833583
3136841334
3136849513
3136858668
3136865687
3136874293
3136882716
3136890284
3136898768
3136906581
3136914760
3136923426
3136931727
3136939723
3136947230
3136955531
3136963343
3136972071
3136981105
3136989283
3136997279
3137005396
3137013636
3137022547
3137030604
3137037745
3137047022
3137055201
3137064967
3137072413
3137080103
3137088282
3137096094
3137104334
3137113917
3137119959
3137129359
3137137415
3137144251
3137151697
3137160670
3137167994
3137177637
3137184778
3137193812
3137202295
3137212000
3137219568
3137225794
3137236658
3137243677
3137251368
3137259729
3137269190
3137277063
3137283960
3137291406
3137300745
3137308435
3137317224
3137323938
3137333093
3137340296
3137350305
3137359705
3137367212
3137374658
3137381494
3137390955
3137399438
3137406396
3137415918
3137422693
3137430688
3137439661
3137449792
3137458703
3137467737
3137475793
3137485071
3137493921
3137503320
3137509973
3137518457
3137526208
3137535180
3137543420
3137552209
3137559350
3137569543
3137578027
3137585778
3137595483
3137601464
3137610559
3137619470
3137628381
3137636620
3137646203
3137656762
3137664208
3137673058
3137680688
3137688256
3137694665
3137702782
3137711877
3137720849
3137729272
3137737755
3137746911
3137755639
3137765343
3137773949
3137782250
3137789391
3137799828
3137806847
3137816857
3137824669
3137833092
3137841454
3137849694
3137858116
3137866539
3137877037
3137884484
3137894615
3137902611
3137909508
3137918602
3137926964
3137936974
3137945152
3137951439
3137961205
3137969994
3137978783
3137987511
3137995567
3138003502
3138012596
3138018089
3138028404
3138037376
3138045860
3138055137
3138062706
3138070762
3138078270
3138088707
3138096702
3138103782
3138111473
3138121177
3138128013
3138137901
3138146507
3138155540
3138163780
3138171958
3138181419
3138189475
3138198570
3138207420
3138216148
3138224388
3138232078
3138240135
3138248679
3138258018
3138266196
3138274314
3138282005
3138290549
3138299216
3138308921
3138317344
3138325645
3138333884
3138341880
3138350974
3138359641
3138368430
3138376365
3138384360
3138392539
3138400657
3138409385
3138418052
3138426596
3138435630
3138443747
3138452475
3138460349
3138469321
3138480673
3138489890
3138498801
3138506796
3138515708
3138524924
3138532187
3138540488
3138547324
3138557333
3138565634
3138571982
3138583029
3138591635
3138600668
3138609640
3138615927
3138626181
3138634970
3138643637
3138651388
3138660849
3138667746
3138675985
3138683127
3138692099
3138702108
3138709250
3138717611
3138724997
3138735678
3138742880
3138752035
3138760031
3138767477
3138775411
3138783285
3138790487
3138799520
3138807333
3138816488
3138825460
3138834432
3138842184
3138854086
3138863119
3138871420
3138880392
3138888021
3138897359
3138907125
3138915609
3138924459
3138933553
3138941854
3138949666
3138957845
3138967183
3138975911
3138983968
3138993917
3138999715
3139008626
3139018636
3139027059
3139034810
3139042928
3139051656
3139060506
3139068807
3139076375
3139085347
3139094197
3139102254
3139110433
3139120442
3139128987
3139138204
3139147298
3139155660
3139162679
3139173055
3139180440
3139188802
3139198018
3139206807
3139214497
3139222859
3139231526
3139241902
3139250630
3139258076
3139265889
3139275044
3139283345
3139293049
3139300862
3139309285
3139318928
3139326435
3139334675
3139344502
3139352742
3139361347
3139370869
3139379109
3139387593
3139395893
3139404865
3139414631
3139421284
3139432758
3139438801
3139445942
3139455341
3139462666
3139471577
3139477741
3139487141
3139495075
3139502033
3139512348
3139521686
3139530109
3139538837
3139548115
3139557026
3139566486
3139573810
3139584552
3139590778
3139599018
3139607257
3139617084
3139625141
3139635456
3139642108
3139650592
3139659320
3139666156
3139676898
3139686115
3139694232
3139703143
3139712360
3139719562
3139730243
3139738544
3139746784
3139755817
3139764545
3139773456
3139782184
3139790362
3139798297
3139808124
3139815753
3139825885
3139834857
3139842364
3139853045
3139861590
3139869830
3139878009
3139884295
3139892962
3139900775
3139911212
3139918536
3139927691
3139935138
3139943804
3139952655
3139963092
3139971575
3139977130
3139987322
3139993609
3140004412
3140012164
3140021807
3140030352
3140037798
3140048235
3140057085
3140065508
3140073687
3140081438
3140090472
3140099139
3140109576
3140116167
3140124163
3140134112
3140142412
3140150591
3140158465
3140167132
3140175005
3140182390
3140192949
3140201738
3140208941
3140217730
3140225176
3140235735
3140243853
3140251116
3140258928
3140269243
3140279009
3140287248
3140293657
3140301286
3140311601
3140319170
3140328203
3140339250
3140348344
3140358720
3140366045
3140374162
3140385515
3140394426
3140401933
3140410600
3140418230
3140425798
3140435808
3140444536
3140453019
3140461320
3140470414
3140478776
3140485795
3140496660
3140505326
3140513566
3140521562
3140528764
3140539628
3140549272
3140558244
3140566239
3140574784
3140582963
3140591081
3140598832
3140607926
3140616105
3140625016
3140632707
3140641007
3140648270
3140660722
3140669389
3140676957
3140685258
3140692338
3140702286
3140711014
3140719254
3140727311
3140735367
3140744279
3140752518
3140760514
3140769730
3140778397
3140786332
3140794449
3140802689
3140811722
3140820572
3140828141
3140835648
3140844742
3140853348
3140861161
3140867508
3140877396
3140886124
3140893143
3140901566
3140909073
3140918533
3140925369
3140935501
3140943680
3140952835
3140959854
3140968277
3140977066
3140985184
3140993301
3141001541
3141010147
3141018204
3141025833
3141035904
3141044205
3141052994
3141062332
3141071731
3141078506
3141088211
3141097793
3141104690
3141113357
3141121536
3141130752
3141139663
3141146743
3141155044
3141165664
3141173416
3141181045
3141190017
3141198989
3141207473
3141216567
3141224197
3141232131
3141239333
3141246963
3141256850
3141265395
3141274429
3141281936
3141291030
3141297927
3141306289
3141315627
3141325698
3141333816
3141342177
3141351699
3141359755
3141368178
3141377028
3141386306
3141394729
3141403579
3141411330
3141420668
3141428847
3141438735
3141445876
3141454848
3141462844
3141471144
3141479689
3141487258
3141496169
3141504164
3141511122
3141521010
3141527785
3141538466
3141546950
3141555128
3141562453
3141570876
3141576735
3141586684
3141595595
3141605543
3141613051
3141623183
3141630873
3141640211
3141648329
3141657423
3141665846
3141673475
3141682142
3141689467
3141699720
3141707594
3141714979
3141723219
3141731031
3141740553
3141749281
3141758314
3141766004
3141773878
3141782118
3141790174
3141798292
3141806288
3141815138
3141822523
3141832838
3141839246
3141849439
3141857191
3141867445
3141875440
3141883680
3141892591
3141901136
3141908826
3141917798
3141927076
3141933668
3141942518
3141949598
3141959974
3141966810
3141975599
3141984266
3141990857
3142001294
3142009412
3142016675
3142026380
3142035108
3142043775
3142052564
3142060498
3142068921
3142077832
3142087110
3142094861
3142105908
3142114331
3142122022
3142130811
3142140393
3142148999
3142156506
3142164014
3142172436
3142180188
3142188672
3142197095
3142204602
3142212720
3142220532
3142228161
3142238904
3142246777
3142255139
3142264172
3142272229
3142280407
3142288952
3142297985
3142307507
3142316845
3142324536
3142333813
3142342175
3142352673
3142360974
3142368420
3142378552
3142384960
3142393078
3142405285
3142413342
3142420971
3142428478
3142438305
3142447399
3142456554
3142466076
3142474865
3142481579
3142488903
3142499645
3142509655
3142517406
3142527111
3142532726
3142545299
3142553234
3142562816
3142569835
3142579235
3142587841
3142596080
3142604076
3142610790
3142621044
3142627819
3142635326
3142645458
3142653026
3142661083
3142668346
3142677562
3142684886
3142693370
3142704051
3142712474
3142720470
3142728648
3142737376
3142746349
3142755077
3142764171
3142772472
3142782054
3142789867
3142797679
3142806773
3142815257
3142823558
3142832469
3142840281
3142848582
3142856517
3142866526
3142876292
3142884288
3142893138
3142901072
3142908946
3142916575
3142925608
3142934397
3142942942
3142951243
3142959666
3142968394
3142976267
3142984202
3142993968
3143001780
3143010264
3143017893
3143026560
3143035410
3143042796
3143051340
3143061533
3143069285
3143077097
3143085825
3143093760
3143102366
3143109934
3143117686
3143126475
3143136423
3143143992
3143150461
3143160471
3143168406
3143178721
3143186594
3143195749
3143204111
3143211496
3143221201
3143229502
3143238840
3143245554
3143254587
3143263315
3143271982
3143280039
3143289804
3143297434
3143304636
3143314523
3143323251
3143330209
3143337106
3143346933
3143356699
3143360605
3143373483
3143380197
3143389535
3143396860
3143405832
3143412851
3143420114
3143431589
3143438852
3143447824
3143455697
3143463876
3143474252
3143482248
3143490487
3143500619
3143509164
3143517038
3143527475
3143534921
3143543893
3143554513
3143561471
3143571542
3143578317
3143589913
3143598519
3143607736
3143615487
3143624032
3143629403
3143637765
3143646920
3143655038
3143663827
3143672127
3143680611
3143690194
3143698861
3143707406
3143715706
3143723885
3143731942
3143739754
3143748909
3143757637
3143765267
3143774788
3143783089
3143790718
3143799385
3143808846
3143816414
3143824898
3143832527
3143840828
3143848763
3143858956
3143866707
3143874947
3143883248
3143888680
3143899483
3143906624
3143915535
3143923775
3143932625
3143940559
3143948738
3143956673
3143965706
3143974678
3143981636
3143992317
3143998787
3144009834
3144016609
3144025642
3144035286
3144044441
3144053413
3144061226
3144067939
3144078865
3144088325
3144094246
3144102668
3144111274
3144120124
3144127265
3144136970
3144145515
3144153633
3144160835
3144169258
3144177314
3144186897
3144195381
3144202888
3144211128
3144218025
3144226020
3144236884
3144243964
3144252509
3144262275
3144269477
3144277656
3144285834
3144293830
3144302558
3144310248
3144319221
3144325507
3144335944
3144344611
3144351386
3144359443
3144370307
3144378180
3144385932
3144392646
3144403693
3144412421
3144419074
3144427314
3144436591
3144443854
3144453131
3144461005
3144469245
3144479010
3144486151
3144494330
3144503058
3144512152
3144521002
3144528815
3144537115
3144544196
3144554999
3144564398
3144572028
3144581366
3144590277
3144597845
3144605353
3144613043
3144623053
3144629584
3144637030
3144645392
3144656073
3144662726
3144671454
3144679510
3144687384
3144696661
3144704168
3144712469
3144721014
3144730352
3144738470
3144747015
3144755133
3144763861
3144773016
3144781683
3144789068
3144797308
3144806097
3144813482
3144823736
3144831853
3144840582
3144849065
3144857549
3144865362
3144874212
3144881658
3144890325
3144899846
3144908086
3144916204
3144922735
3144932988
3144941106
3144952337
3144961065
3144969915
3144977117
3144987004
3144995488
3145004583
3145011724
3145020574
3145029363
3145037725
3145047002
3145054021
3145063054
3145071660
3145080327
3145089971
3145097905
3145106084
3145114751
3145122807
3145130254
3145139287
3145148137
3145156316
3145163884
3145172795
3145181157
3145190556
3145198308
3145207402
3145216557
3145224064
3145234013
3145242436
3145251164
3145259709
3145267399
3145275212
3145285344
3145293156
3145302250
3145310307
3145318486
3145327336
3145334904
3145343205
3145351933
3145361210
3145370304
3145379276
3145386906
3145395756
3145403812
3145413029
3145422245
3145430973
3145438908
3145446964
3145455265
3145463688
3145472050
3145480472
3145490970
3145498905
3145507267
3145514408
3145522709
3145531803
3145539676
3145548832
3145556461
3145564640
3145573124
3145580692
3145589603
3145599674
3145609378
3145618045
3145626590
3145634647
3145643070
3145652286
3145662174
3145670963
3145679447
3145687869
3145695987
3145705447
3145713626
3145722659
3145730838
3145738162
3145746585
3145754825
3145762820
3145771304
3145781680
3145789859
3145797427
3145805484
3145812869
3145821414
3145830813
3145839480
3145847903
3145855349
3145864016
3145871829
3145879947
3145888858
3145897036
3145905520
3145913516
3145922061
3145929263
3145937625
3145945071
3145953738
3145963015
3145969973
3145978884
3145988894
3145996890
3146005618
3146012515
3146020815
3146029665
3146036135
3146046267
3146054018
3146061098
3146070010
3146079409
3146087954
3146096560
3146105044
3146111880
3146121401
3146131411
3146139162
3146147890
3146156252
3146164187
3146173037
3146181459
3146190126
3146199465
3146209047
3146216127
3146224611
3146231996
3146241945
3146250612
3146257387
3146265383
3146274721
3146283388
3146292421
3146307680
3146314638
3146327211
3146333864
3146344118
3146352968
3146361513
3146370851
3146379579
3146387330
3146395570
3146404909
3146413392
3146421815
3146430726
3146438478
3146446229
3146453553
3146461976
3146471254
3146479188
3146487245
3146496034
3146504884
3146512879
3146522157
3146531068
3146538697
3146546510
3146555055
3146563355
3146572267
3146580811
3146590089
3146599000
3146607301
3146614625
3146623536
3146632081
3146640687
3146650269
3146658448
3146667420
3146676270
3146685059
3146693909
3146702210
3146709534
3146717896
3146725953
3146736634
3146745362
3146754029
3146762574
3146771241
3146780579
3146789063
3146798279
3146806946
3146815979
3146824158
3146832459
3146841187
3146849426
3146858704
3146866699
3146876465
3146884400
3146891419
3146902466
3146912354
3146919922
3146928467
3146936829
3146943176
3146951721
3146960083
3146967102
3146974853
3146982422
3146990356
3146999512
3147009033
3147018005
3147024902
3147033020
3147042480
3147050171
3147058044
3147067688
3147074951
3147084533
3147093689
3147101318
3147109436
3147118164
3147127014
3147135375
3147143310
3147152343
3147161010
3147169189
3147177184
3147186462
3147195007
3147203429
3147211791
3147220641
3147229919
3147238158
3147247069
3147255859
3147264892
3147272460
3147282226
3147289672
3147298644
3147306884
3147314635
3147323180
3147331786
3147340880
3147349608
3147358092
3147366393
3147374511
3147384276
3147393187
3147402281
3147410338
3147419799
3147427977
3147435546
3147446288
3147454222
3147461852
3147472167
3147480528
3147489134
3147497679
3147505980
3147515685
3147523436
3147532286
3147540465
3147549315
3147557982
3147565245
3147573607
3147582091
3147591612
3147598204
3147608763
3147617552
3147626524
3147634520
3147642942
3147650694
3147658995
3147669004
3147675840
3147685789
3147691893
3147702452
3147711119
3147720213
3147726438
3147738401
3147746885
3147754392
3147760984
3147772215
3147780760
3147788389
3147796079
3147805601
3147812376
3147822263
3147830259
3147838438
3147846616
3147855100
3147862607
3147871641
3147879148
3147887571
3147895994
3147903806
3147912534
3147920652
3147929319
3147938474
3147947446
3147955808
3147963865
3147971433
3147979673
3147988950
3147998227
3148005612
3148016110
3148024289
3148031980
3148040708
3148049436
3148058347
3148066647
3148076230
3148084042
3148092709
3148101804
3148110104
3148118832
3148126035
3148135373
3148143918
3148152524
3148161557
3148167782
3148177975
3148185116
3148194394
3148201169
3148211484
3148220089
3148228146
3148234799
3148242978
3148250058
3148262326
3148269833
3148276974
3148287533
3148294796
3148304440
3148314877
3148323239
3148331417
3148340389
3148347347
3148357968
3148364437
3148373776
3148381893
3148390926
3148399105
3148406002
3148415707
3148425289
3148432857
3148440304
3148449215
3148457149
3148465450
3148472774
3148483822
3148492122
3148501339
3148510494
3148519283
3148526912
3148536007
3148544246
3148552547
3148560543
3148569881
3148578243
3148587032
3148596920
3148604549
3148613765
3148622188
3148630428
3148638667
3148647823
3148656429
3148664851
3148674922
3148683162
3148691219
3148700679
3148707454
3148717281
3148727168
3148733516
3148743892
3148750911
3148760188
3148768184
3148777522
3148784724
3148794551
3148800654
3148810725
3148819453
3148827510
3148835200
3148843684
3148850886
3148860347
3148868953
3148876582
3148885432
3148893000
3148901423
3148909663
3148920222
3148927058
3148935481
3148943781
3148950251
3148959895
3148968745
3148976374
3148984980
3148994440
3149002497
3149011103
3149018977
3149027705
3149037592
3149046137
3149055109
3149068110
3149075983
3149084711
3149093561
3149101313
3149110590
3149118464
3149126154
3149136469
3149146235
3149152277
3149162531
3149170526
3149178949
3149185724
3149193842
3149203119
3149210077
3149219721
3149228937
3149236749
3149245355
3149252008
3149262628
3149270929
3149279047
3149286432
3149295892
3149304010
3149312494
3149320978
3149330743
3149340448
3149349908
3149356134
3149367120
3149376031
3149383966
3149392084
3149401056
3149410028
3149419549
3149427789
3149436151
3149444879
3149452752
3149462518
3149471429
3149479425
3149488458
3149496698
3149505120
3149513909
3149523126
3149531304
3149539971
3149548211
3149556939
3149565423
3149573602
3149582879
3149591912
3149599480
3149608392
3149616936
3149625115
3149634087
3149642693
3149651482
3149659539
3149668206
3149675652
3149686455
3149696038
3149704705
3149713311
3149720147
3149728692
3149736504
3149746148
3149754937
3149762566
3149770989
3149779778
3149787346
3149798149
3149806450
3149815666
3149824394
3149833122
3149843193
3149852287
3149859856
3149868095
3149877739
3149885307
3149893913
3149900261
3149911003
3149919243
3149927299
3149933342
3149944023
3149953117
3149961296
3149970024
3149979606
3149986259
3149995537
3150002983
3150010429
3150021049
3150029228
3150037468
3150045707
3150053764
3150062248
3150070854
3150078971
3150087883
3150096488
3150104484
3150115409
3150124870
3150132804
3150143119
3150151664
3150159232
3150167106
3150176078
3150184257
3150193046
3150202201
3150210624
3150219779
3150226920
3150236442
3150244071
3150254264
3150262565
3150270255
3150278312
3150288627
3150298270
3150306205
3150314200
3150322013
3150330069
3150338614
3150348807
3150357657
3150366080
3150374198
3150383231
3150392691
3150401786
3150408866
3150418814
3150427054
3150435050
3150443106
3150453055
3150462271
3150470816
3150480216
3150488333
3150496939
3150504874
3150515982
3150524283
3150533072
3150542776
3150551077
3150558401
3150566763
3150576651
3150584829
3150593374
3150601553
3150608694
3150616934
3150623526
3150634268
3150643118
3150651724
3150659536
3150667532
3150675283
3150685659
3150691580
3150701650
3150710256
3150716055
3150727224
3150735342
3150745474
3150752615
3150760122
3150767996
3150777822
3150785329
3150794363
3150803335
3150810903
3150818899
3150825857
3150834951
3150844655
3150852346
3150861013
3150867299
3150877309
3150885183
3150894399
3150903005
3150912954
3150921743
3150930898
3150940419
3150949453
3150958425
3150967458
3150974233
3150984731
3150992665
3151000661
3151009938
3151019155
3151027699
3151036672
3151043385
3151051930
3151060597
3151069020
3151077809
3151084584
3151094289
3151101491
3151111256
3151120045
3151127919
3151136830
3151144215
3151153126
3151159657
3151168568
3151178578
3151188710
3151197194
3151205433
3151212391
3151220875
3151230702
3151239491
3151247731
3151255726
3151263172
3151271473
3151279957
3151288807
3151297047
3151304615
3151312855
3151320423
3151330128
3151338307
3151346363
3151355152
3151362660
3151371510
3151379627
3151388660
3151397388
3151405201
3151413319
3151421131
3151429432
3151438526
3151447742
3151457264
3151465809
3151473560
3151481800
3151490223
3151499256
3151507679
3151514637
3151523243
3151532642
3151542774
3151551685
3151561023
3151568714
3151577137
3151585254
3151595813
3151602649
3151613696
3151622974
3151631458
3151639148
3151647510
3151654041
3151664478
3151675342
3151684497
3151693530
3151701770
3151709766
3151720386
3151728931
3151737231
3151745288
3151754321
3151762134
3151769885
3151779529
3151788257
3151797290
3151805896
3151814135
3151820300
3151830066
3151838549
3151847949
3151854724
3151863757
3151871875
3151880542
3151888598
3151896899
3151908251
3151915698
3151923510
3151933276
3151940539
3151948657
3151957079
3151964282
3151972460
3151978442
3151988024
3151996874
3152005358
3152012804
3152020800
3152029650
3152038683
3152046801
3152056017
3152064257
3152073229
3152080736
3152088488
3152096605
3152106188
3152114428
3152123034
3152130602
3152138720
3152146654
3152156115
3152164049
3152171556
3152179918
3152187731
3152196031
3152206041
3152214220
3152223131
3152231371
3152239427
3152246507
3152254381
3152263597
3152272630
3152281358
3152291124
3152300035
3152308458
3152318223
3152326829
3152335924
3152344896
3152353563
3152361558
3152370775
3152380174
3152388780
3152396898
3152404588
3152412278
3152420213
3152431565
3152440843
3152448838
3152457139
3152466294
3152474046
3152482652
3152490769
3152499986
3152507920
3152516526
3152524156
3152532212
3152542466
3152550950
3152559556
3152568894
3152577256
3152585313
3152595444
3152603562
3152613206
3152621690
3152629258
3152637559
3152646348
3152655259
3152663682
3152671860
3152679673
3152688157
3152696396
3152706284
3152714341
3152721909
3152731919
3152740158
3152748093
3152757248
3152766159
3152774704
3152783249
3152791489
3152799973
3152807724
3152817368
3152826462
3152835556
3152843857
3152852463
3152859787
3152868393
3152877304
3152885727
3152894028
3152901718
3152911117
3152918198
3152929611
3152938583
3152947311
3152955734
3152965744
3152972946
3152983017
3152994125
3153004440
3153013961
3153021957
3153031112
3153040023
3153048812
3153058029
3153064865
3153074752
3153081405
3153090682
3153099899
3153108810
3153118392
3153126449
3153133956
3153142745
3153151901
3153159652
3153168746
3153177657
3153185226
3153194564
3153202926
3153209884
3153219161
3153228194
3153235641
3153243575
3153252059
3153260299
3153268538
3153277633
3153287703
3153297835
3153305465
3153317000
3153326094
3153334639
3153342452
3153349837
3153358748
3153366805
3153374739
3153382918
3153391280
3153400984
3153408614
3153417464
3153426192
3153435103
3153444014
3153453230
3153462386
3153471175
3153479597
3153487715
3153496199
3153504927
3153513533
3153521712
3153530928
3153538374
3153547407
3153554671
3153563154
3153572676
3153580977
3153588728
3153597151
3153605696
3153613752
3153623091
3153631269
3153636885
3153648420
3153656843
3153664900
3153675642
3153684675
3153693769
3153702986
3153712080
3153718244
3153728071
3153736921
3153744489
3153753034
3153760908
3153770979
3153777753
3153785871
3153794965
3153802473
3153811262
3153820478
3153827802
3153836957
3153846357
3153854841
3153863386
3153871015
3153879743
3153888105
3153896467
3153906293
3153914838
3153923749
3153932782
3153940229
3153947919
3153956830
3153965985
3153974042
3153983197
3153991681
3153999310
3154008649
3154017133
3154026166
3154035016
3154043866
3154051740
3154059918
3154067670
3154075726
3154084637
3154092572
3154101544
3154109479
3154117902
3154125531
3154133465
3154141278
3154149335
3154156476
3154162335
3154169171
3154176556
3154183453
3154190960
3154197125
3154204388
3154211346
3154218487
3154224408
3154231366
3154238507
3154244427
3154253094
3154259747
3154266461
3154274029
3154278729
3154286968
3154295147
3154300518
3154309063
3154316021
3154322247
3154329510
3154336712
3154346172
3154353375
3154359539
3154366558
3154374065
3154381084
3154388042
3154395977
3154404705
3154411175
3154419414
3154425396
3154433758
3154440838
3154449566
3154456890
3154465313
3154473003
3154479107
3154488079
3154494915
3154502971
3154511089
3154517254
3154524761
3154532207
3154539409
3154545818
3154554424
3154563152
3154569377
3154577922
3154584148
3154591655
3154596782
3154605449
3154614421
3154621196
3154629314
3154635173
3154643169
3154651714
3154658122
3154666972
3154674846
3154680827
3154689922
3154697063
3154703654
3154714397
3154720195
3154728007
3154734843
3154741374
3154749309
3154756267
3154763530
3154771769
3154779338
3154787394
3154793986
3154801310
3154810038
3154817485
3154825114
3154832072
3154840922
3154847880
3154854533
3154863322
3154870402
3154877726
3154885905
3154891764
3154899882
3154907755
3154914103
3154922892
3154930521
3154936991
3154944071
3154952006
3154960368
3154969157
3154976237
3154983805
3154990702
3154996439
3155004313
3155011332
3155020304
3155027079
3155033793
3155040751
3155048136
3155053629
3155064249
3155072062
3155078959
3155085306
3155092691
3155099955
3155106913
3155114603
3155122232
3155129557
3155136698
3155143900
3155149637
3155157511
3155165384
3155173624
3155180826
3155186502
3155192850
3155201029
3155207376
3155216837
3155222452
3155230875
3155238016
3155246683
3155254923
3155261636
3155269998
3155277567
3155283487
3155290323
3155297403
3155306314
3155313882
3155320962
3155327493
3155333719
3155341165
3155348367
3155355935
3155362649
3155369424
3155376993
3155383401
3155389016
3155399026
3155407083
3155412576
3155419961
3155425943
3155433084
3155440591
3155446328
3155455178
3155460610
3155467996
3155475381
3155481301
3155489602
3155495156
3155504434
3155510659
3155517556
3155524453
3155530251
3155538674
3155545632
3155551431
3155558877
3155567483
3155574013
3155581460
3155589638
3155596657
3155603066
3155610207
3155617104
3155623452
3155632424
3155640542
3155646157
3155653420
3155660439
3155667580
3155673317
3155681740
3155688759
3155696083
3155703408
3155709450
3155716347
3155723427
3155730629
3155738320
3155745888
3155752480
3155759316
3155765114
3155771523
3155780556
3155788002
3155794838
3155801735
3155809609
3155818520
3155824135
3155833290
3155840492
3155847878
3155852699
3155861244
3155868752
3155876747
3155884926
3155890602
3155898842
3155906166
3155913124
3155920692
3155927955
3155934120
3155942726
3155948524
3155955848
3155962074
3155970436
3155978065
3155984474
3155991798
3155999000
3156008216
3156016334
3156024025
3156030860
3156037757
3156044715
3156051063
3156058448
3156065223
3156073341
3156081397
3156087074
3156094520
3156100013
3156108619
3156116676
3156124183
3156132118
3156139808
3156145606
3156154029
3156160316
3156167884
3156174903
3156183631
3156188575
3156198646
3156204993
3156210975
3156217872
3156225928
3156233008
3156240882
3156249122
3156255713
3156262732
3156269446
3156276282
3156284156
3156293372
3156301062
3156307715
3156314002
3156321387
3156328467
3156335059
3156343238
3156353247
3156358802
3156365882
3156372901
3156378760
3156387427
3156395972
3156403296
3156410620
3156417822
3156424536
3156429663
3156438208
3156445776
3156453284
3156460181
3156467200
3156474524
3156480505
3156489111
3156496191
3156503149
3156509985
3156516211
3156522619
3156532446
3156540198
3156547522
3156554052
3156560095
3156566992
3156574194
3156582739
3156589880
3156597082
3156603918
3156610998
3156617773
3156625097
3156631323
3156638281
3156645727
3156651159
3156658117
3156665686
3156675390
3156682409
3156688635
3156696447
3156703405
3156710668
3156718359
3156724645
3156731970
3156739294
3156745458
3156752966
3156758642
3156766698
3156774938
3156780553
3156788671
3156795263
3156802953
3156808629
3156815832
3156824621
3156832494
3156839696
3156846654
3156853551
3156861974
3156870641
3156877599
3156884862
3156892492
3156899389
3156905492
3156914281
3156922399
3156930761
3156937230
3156944066
3156950719
3156956822
3156966344
3156973180
3156980382
3156987340
3156994603
3157002782
3157009129
3157016210
3157024938
3157031834
3157038976
3157046178
3157052159
3157060948
3157067174
3157074986
3157081029
3157087865
3157096348
3157104283
3157111363
3157118016
3157125401
3157132542
3157137791
3157144566
3157152257
3157160313
3157166966
3157172825
3157181065
3157186497
3157194737
3157204258
3157210728
3157217015
3157224583
3157231236
3157240818
3157247715
3157254002
3157261143
3157268284
3157276341
3157284336
3157290989
3157297642
3157305149
3157311680
3157318699
3157326389
3157334690
3157341648
3157347141
3157353733
3157362766
3157369968
3157377476
3157384434
3157392612
3157399082
3157405857
3157413486
3157419163
3157428379
3157433994
3157443577
3157451572
3157457920
3157466221
3157472385
3157481235
3157488254
3157495334
3157502231
3157509189
3157514865
3157524509
3157531040
3157538181
3157545383
3157554294
3157559726
3157567172
3157574314
3157582431
3157588901
3157596408
3157602146
3157612399
3157618381
3157626865
3157633884
3157641513
3157649326
3157655673
3157662570
3157669406
3157679050
3157686557
3157691135
3157699252
3157706027
3157714450
3157721164
3157728671
3157735080
3157740939
3157747592
3157755954
3157762423
3157771335
3157779452
3157786410
3157792758
3157802462
3157809237
3157817111
3157822055
3157829135
3157836459
3157844760
3157851351
3157858309
3157865939
3157873324
3157880160
3157887911
3157893954
3157901583
3157909213
3157916781
3157922457
3157929415
3157936984
3157945284
3157952364
3157959505
3157966647
3157972140
3157979464
3157986727
3157994234
3158000582
3158007601
3158015047
3158021517
3158027315
3158036226
3158044039
3158051973
3158059481
3158067049
3158072298
3158079683
3158088411
3158095003
3158102083
3158108858
3158115877
3158124727
3158132418
3158139437
3158145296
3158152193
3158159761
3158167269
3158172945
3158186922
3158196932
3158207552
3158217500
3158228853
3158236482
3158243806
3158251924
3158259126
3158265657
3158271944
3158280489
3158287508
3158294466
3158302583
3158311006
3158318513
3158325227
3158331758
3158340242
3158347566
3158355256
3158362275
3158370515
3158377717
3158384309
3158391633
3158399995
3158407685
3158413728
3158421113
3158428804
3158435701
3158443269
3158449433
3158457917
3158464936
3158473115
3158480744
3158487702
3158494599
3158503266
3158510590
3158518037
3158525422
3158532075
3158539826
3158546906
3158555634
3158561799
3158568330
3158576203
3158582551
3158591096
3158597565
3158605500
3158613068
3158619477
3158627045
3158634369
3158642304
3158649445
3158656708
3158664948
3158673127
3158680268
3158686921
3158693024
3158702118
3158709626
3158716034
3158724213
3158731415
3158738434
3158745819
3158754547
3158763703
3158770172
3158779389
3158785858
3158794769
3158802765
3158813507
3158820343
3158827789
3158836151
3158842499
3158850250
3158858063
3158864410
3158873749
3158880829
3158886749
3158893402
3158900909
3158908417
3158916229
3158922882
3158930694
3158938263
3158946136
3158951751
3158959137
3158966766
3158972747
3158980316
3158986724
3158995025
3159002410
3159011505
3159018768
3159024993
3159034271
3159041473
3159047027
3159054351
3159061065
3159070709
3159077545
3159083953
3159090728
3159098419
3159105621
3159113128
3159121185
3159128936
3159136077
3159143584
3159151092
3159159515
3159165923
3159173247
3159179961
3159186736
3159195220
3159202422
3159209868
3159215728
3159221770
3159229705
3159236358
3159243926
3159251922
3159259185
3159266082
3159272124
3159278899
3159287627
3159295562
3159303740
3159310454
3159319365
3159326506
3159333708
3159340361
3159350188
3159357390
3159364287
3159370696
3159378447
3159384306
3159392973
3159399748
3159407988
3159414153
3159421660
3159428313
3159435759
3159444975
3159450957
3159457182
3159466338
3159473051
3159480864
3159486601
3159494536
3159502348
3159509917
3159516020
3159522856
3159533842
3159541227
3159546538
3159552946
3159560576
3159566618
3159571745
3159579496
3159586821
3159594755
3159601652
3159608427
3159615629
3159621305
3159629972
3159638151
3159645536
3159650907
3159658109
3159665190
3159672575
3159679655
3159686613
3159694608
3159702238
3159709257
3159717374
3159725553
3159732511
3159740751
3159746915
3159754301
3159762052
3159768766
3159776334
3159784635
3159792875
3159799772
3159807096
3159814359
3159820890
3159827299
3159834073
3159842557
3159849576
3159857572
3159864896
3159871305
3159878934
3159887052
3159892606
3159902372
3159908719
3159916165
3159924955
3159933255
3159941007
3159947415
3159955777
3159961942
3159970181
3159977994
3159985013
3159992764
3159999112
3160009000
3160016690
3160024136
3160030484
3160037625
3160045804
3160051846
3160061795
3160068204
3160075894
3160084012
3160090665
3160096646
3160103421
3160109646
3160119595
3160128384
3160135159
3160140896
3160148526
3160154507
3160162198
3160168972
3160174771
3160183072
3160189846
3160197537
3160202664
3160211209
3160218533
3160227139
3160232571
3160241055
3160247463
3160254544
3160263088
3160271694
3160278469
3160286709
3160291775
3160300747
3160307095
3160313137
3160322598
3160330959
3160338589
3160345913
3160354336
3160359829
3160368740
3160375881
3160382351
3160393398
3160400539
3160409389
3160416103
3160423122
3160433010
3160439602
3160447353
3160454128
3160459926
3160468898
3160476040
3160483791
3160490200
3160497585
3160504421
3160511928
3160519619
3160528041
3160536830
3160544338
3160551723
3160560573
3160567897
3160576747
3160584804
3160589870
3160598354
3160605495
3160613368
3160620326
3160627162
3160636562
3160643031
3160650905
3160657741
3160665370
3160672023
3160680690
3160689357
3160696803
3160704921
3160710780
3160718348
3160725245
3160732997
3160740748
3160748378
3160755885
3160764491
3160771815
3160777613
3160784266
3160792445
3160798487
3160805629
3160814845
3160822169
3160829188
3160837062
3160842677
3160851039
3160856654
3160866053
3160873622
3160882166
3160889613
3160897364
3160903773
3160911707
3160917445
3160923975
3160934290
3160941798
3160947657
3160954249
3160961939
3160968470
3160976160
3160985010
3160993616
3161000513
3161006128
3161013331
3161021692
3161030176
3161036890
3161045374
3161051661
3161060450
3161067163
3161075098
3161081629
3161088587
3161095362
3161103540
3161111841
3161118982
3161127039
3161133509
3161140405
3161148889
3161154932
3161162195
3161171228
3161178552
3161185083
3161193018
3161200464
3161206873
3161212183
3161220728
3161227930
3161235864
3161242334
3161250940
3161256677
3161264795
3161272790
3161281152
3161286645
3161293359
3161300378
3161308862
3161316003
3161323449
3161330163
3161336938
3161347253
3161353967
3161361352
3161372705
3161382470
3161394799
3161405175
3161413476
3161420312
3161431481
3161441918
3161452233
3161461816
3161470666
3161477929
3161485070
3161492150
3161500695
3161507348
3161514550
3161521935
3161527917
3161536034
3161543542
3161550927
3161558129
3161565148
3161572228
3161579796
3161586999
3161594994
3161602929
3161610375
3161617333
3161622948
3161634484
3161642846
3161649743
3161655297
3161662133
3161670433
3161677880
3161685448
3161692833
3161700157
3161707421
3161713646
3161721398
3161728173
3161736168
3161743370
3161749291
3161756066
3161764610
3161774437
3161782433
3161788170
3161796349
3161802208
3161810020
3161818077
3161823936
3161830650
3161838341
3161844994
3161854393
3161859642
3161869591
3161877586
3161884544
3161891319
3161899010
3161905906
3161912925
3161919334
3161926903
3161933799
3161940147
3161948204
3161955650
3161963401
3161970176
3161977623
3161985557
3161992576
3161999046
3162008079
3162015647
3162022483
3162029563
3162036521
3162041404
3162050132
3162056419
3162063316
3162070335
3162076743
3162083762
3162090659
3162098045
3162106712
3162114097
3162121055
3162126670
3162133079
3162140586
3162147239
3162156211
3162161643
3162168662
3162177268
3162184775
3162192771
3162199241
3162206138
3162215110
3162221702
3162228049
3162235495
3162242087
3162249595
3162257834
3162264670
3162272239
3162279563
3162286826
3162294699
3162302573
3162309836
3162315634
3162323447
3162330161
3162338767
3162346579
3162353903
3162360495
3162367514
3162374350
3162381735
3162389548
3162398337
3162404684
3162412131
3162418723
3162426474
3162433310
3162442404
3162450400
3162455588
3162464377
3162471152
3162478781
3162484457
3162493002
3162500998
3162508444
3162516134
3162522421
3162531210
3162537863
3162545370
3162552389
3162558920
3162567770
3162576559
3162583578
3162590902
3162598471
3162603842
3162611166
3162618307
3162624044
3162633871
3162639303
3162646993
3162653341
3162659811
3162666952
3162674093
3162682638
3162690206
3162697286
3162704488
3162712972
3162720235
3162725668
3162734457
3162740316
3162745687
3162754842
3162763143
3162770223
3162778219
3162786275
3162793355
3162798665
3162805684
3162813558
3162820577
3162826986
3162834798
3162841695
3162849324
3162856588
3162865133
3162872213
3162878621
3162884603
3162890218
3162897664
3162906026
3162914754
3162920064
3162926534
3162934590
3162941854
3162948384
3162956807
3162962056
3162970235
3162977681
3162982991
3162990865
3162998677
3163006245
3163011861
3163018819
3163027119
3163031880
3163053792
3163061665
3163067464
3163076314
3163083638
3163091206
3163098225
3163106282
3163112935
3163120198
3163126729
3163134663
3163141865
3163149189
3163155659
3163164143
3163171406
3163179280
3163185444
3163193684
3163200642
3163207600
3163214131
3163218952
3163229695
3163236531
3163243794
3163250630
3163256977
3163264118
3163271443
3163278645
3163285725
3163294270
3163300861
3163306232
3163314411
3163319782
3163328144
3163336506
3163343647
3163349506
3163356098
3163364399
3163371113
3163379658
3163386066
3163393146
3163400654
3163407795
3163414997
3163422504
3163430134
3163437336
3163445758
3163452655
3163460102
3163468402
3163474872
3163481708
3163488178
3163495197
3163500568
3163507709
3163515705
3163523029
3163530170
3163535968
3163543414
3163550739
3163556171
3163564533
3163572040
3163579730
3163585529
3163592426
3163599628
3163607990
3163614948
3163622516
3163629413
3163636676
3163643817
3163651324
3163657184
3163664569
3163672931
3163679339
3163687091
3163693622
3163702105
3163709857
3163715777
3163722979
3163730792
3163737811
3163745318
3163752093
3163758502
3163766192
3163773211
3163780169
3163786822
3163795672
3163802630
3163809893
3163815325
3163824053
3163830157
3163838214
3163844256
3163853106
3163860491
3163868609
3163876177
3163883990
3163890215
3163898028
3163906756
3163913103
3163918841
3163926104
3163933611
3163940569
3163949297
3163956621
3163961687
3163970354
3163977740
3163985918
3163992144
3163999041
3164007769
3164013689
3164020525
3164027788
3164037127
3164044268
3164052691
3164058855
3164065813
3164074358
3164079668
3164088396
3164094255
3164102983
3164108354
3164117205
3164124468
3164131670
3164139116
3164146501
3164154131
3164161272
3164167131
3164174883
3164182390
3164189653
3164197405
3164203264
3164210039
3164217180
3164226091
3164233171
3164239580
3164247636
3164255388
3164263200
3164270280
3164277177
3164284013
3164292375
3164300065
3164304826
3164316118
3164324418
3164328813
3164338334
3164345720
3164352067
3164361039
3164368608
3164375505
3164384111
3164390885
3164397477
3164404191
3164410050
3164424088
3164434953
3164446855
3164457658
3164464921
3164472367
3164480180
3164487565
3164494340
3164501725
3164508317
3164516190
3164523820
3164530045
3164537064
3164544450
3164551957
3164559647
3164568192
3164575211
3164581009
3164589493
3164596757
3164602311
3164610917
3164616593
3164623246
3164632279
3164640091
3164647171
3164654129
3164660233
3164668839
3164675064
3164683121
3164690018
3164696854
3164702347
3164711075
3164718338
3164725235
3164733109
3164737992
3164746720
3164756607
3164762039
3164770096
3164777603
3164785721
3164792496
3164800369
3164807510
3164817032
3164823379
3164832046
3164838150
3164845413
3164854141
3164861282
3164868240
3164876968
3164882705
3164888870
3164896560
3164903030
3164911880
3164918411
3164927932
3164934768
3164941299
3164948806
3164955703
3164964614
3164972427
3164977493
3164985488
3164992141
3165000198
3165006240
3165013992
3165020339
3165028213
3165035171
3165042678
3165047988
3165056594
3165063674
3165072158
3165078811
3165084792
3165092971
3165100600
3165107253
3165114944
3165122512
3165130813
3165136611
3165145095
3165150466
3165159438
3165167922
3165175185
3165183364
3165189101
3165197524
3165204543
3165211501
3165218032
3165226149
3165233962
3165239943
3165248549
3165254164
3165262648
3165270583
3165277846
3165286696
3165293654
3165299636
3165306594
3165313185
3165320754
3165328139
3165337233
3165344252
3165350539
3165357375
3165365859
3165373183
3165381850
3165388136
3165395338
3165402419
3165410414
3165417067
3165426466
3165432997
3165438429
3165445936
3165453993
3165459425
3165469008
3165475966
3165484327
3165490675
3165499281
3165505201
3165513258
3165522291
3165529005
3165537794
3165546156
3165554213
3165559706
3165567152
3165573255
3165581922
3165590528
3165597120
3165603590
3165611952
3165617994
3165626905
3165632826
3165641065
3165646314
3165655164
3165660841
3165667249
3165673780
3165681287
3165689344
3165695875
3165704786
3165711195
3165717359
3165724317
3165730543
3165738721
3165746473
3165753553
3165761365
3165767957
3165775709
3165783582
3165791456
3165800611
3165806958
3165813733
3165822217
3165829175
3165837964
3165846143
3165852430
3165860608
3165867993
3165875318
3165883924
3165891492
3165898694
3165906201
3165913892
3165921704
3165929517
3165935864
3165943982
3165952039
3165958447
3165965527
3165974561
3165981397
3165989514
3165996899
3166002759
3166013013
3166019299
3166027295
3166034070
3166042859
3166051098
3166057568
3166065869
3166072888
3166078747
3166085278
3166094189
3166102490
3166110241
3166117138
3166125378
3166133130
3166140820
3166146557
3166156506
3166162365
3166170666
3166178601
3166184765
3166191662
3166200512
3166209484
3166216259
3166224926
3166231823
3166237805
3166246410
3166252453
3166261669
3166268749
3166275402
3166283093
3166291149
3166297680
3166304089
3166312328
3166318188
3166327221
3166332897
3166339367
3166346630
3166353283
3166362438
3166369213
3166376354
3166382763
3166389049
3166397045
3166404796
3166412670
3166421215
3166428600
3166436473
3166442760
3166449840
3166456737
3166463634
3166472972
3166479808
3166487560
3166494457
3166502513
3166509105
3166518443
3166525157
3166533458
3166539684
3166547374
3166555492
3166562938
3166571361
3166578624
3166586864
3166593150
3166600658
3166606944
3166616161
3166622203
3166630382
3166638866
3166645824
3166653148
3166661448
3166668406
3166677745
3166684337
3166691112
3166699717
3166706248
3166714427
3166722483
3166728892
3166737315
3166743724
3166751780
3166759349
3166767894
3166775035
3166782786
3166789561
3166797862
3166803721
3166811900
3166817515
3166825999
3166833567
3166842051
3166848887
3166855540
3166865733
3166873057
3166880320
3166888499
3166896983
3166904490
3166910349
3166919932
3166926523
3166934763
3166940134
3166947703
3166956309
3166961130
3166970347
3166978403
3166985483
3166993784
3167001963
3167008432
3167016062
3167022287
3167030527
3167039011
3167045359
3167053965
3167059580
3167068796
3167076853
3167083567
3167090097
3167097910
3167104746
3167112436
3167120249
3167128671
3167135629
3167142954
3167151682
3167158029
3167165781
3167173654
3167181162
3167189401
3167195993
3167204355
3167210641
3167217355
3167224435
3167232248
3167240976
3167247934
3167254220
3167259897
3167268686
3167275277
3167284005
3167292245
3167298593
3167306711
3167312021
3167321359
3167327646
3167334359
3167343270
3167349801
3167358102
3167364022
3167372262
3167380502
3167387277
3167395761
3167404428
3167410470
3167419564
3167425851
3167434579
3167443368
3167455636
3167469674
3167482796
3167494820
3167504586
3167513131
3167521676
3167529122
3167536507
3167544503
3167552621
3167559456
3167567574
3167574593
3167583321
3167590706
3167598519
3167605294
3167612069
3167619149
3167627510
3167635079
3167641793
3167648690
3167655037
3167662300
3167669014
3167676155
3167683296
3167690865
3167697518
3167704659
3167711312
3167718270
3167725289
3167734200
3167745125
3167756172
3167765999
3167775948
3167783821
3167791939
3167800423
3167808174
3167816048
3167823616
3167830086
3167838508
3167846687
3167854561
3167861824
3167870003
3167877266
3167884224
3167891548
3167898445
3167907051
3167914375
3167922126
3167929573
3167935432
3167942695
3167950996
3167958198
3167964912
3167973701
3167981147
3167986824
3167995063
3168002998
3168010078
3168016548
3168025031
3168031745
3168037788
3168045661
3168051399
3168060004
3168066840
3168075324
3168082282
3168088447
3168096442
3168101752
3168111274
3168117622
3168126288
3168132392
3168139472
3168147101
3168153327
3168162909
3168169379
3168177497
3168182563
3168190558
3168196113
3168204291
3168213385
3168220465
3168228217
3168235663
3168242133
3168249030
3168255927
3168263983
3168271735
3168279059
3168283881
3168292365
3168297919
3168304633
3168310614
3168318732
3168326727
3168333930
3168340155
3168348334
3168355353
3168363043
3168369330
3168378485
3168384344
3168391241
3168398260
3168404730
3168413275
3168421515
3168428229
3168435309
3168442328
3168449652
3168456610
3168465582
3168471441
3168479925
3168486883
3168495184
3168500616
3168509283
3168516668
3168523932
3168530584
3168538641
3168544683
3168553839
3168559881
3168568182
3168575201
3168581121
3168589422
3168596136
3168604193
3168609442
3168617742
3168625738
3168633856
3168640264
3168647710
3168654180
3168659734
3168669134
3168677923
3168685613
3168692388
3168698309
3168704900
3168713018
3168720403
3168728643
3168735296
3168742620
3168751226
3168757512
3168765691
3168772771
3168780706
3168788213
3168796880
3168803899
3168810369
3168817266
3168823674
3168832402
3168839177
3168847722
3168854131
3168860784
3168867498
3168874150
3168880376
3168886785
3168895085
3168902471
3168909612
3168917424
3168923406
3168929814
3168937200
3168945928
3168952153
3168957524
3168965459
3168970158
3168979008
3168985783
3168993596
3169000493
3169008855
3169014836
3169021428
3169027898
3169038396
3169044987
3169053349
3169059086
3169065983
3169071721
3169080632
3169089116
3169096562
3169102910
3169109929
3169116642
3169121830
3169128544
3169137944
3169144841
3169150761
3169158451
3169165348
3169172978
3169179753
3169186161
3169194645
3169201115
3169208683
3169218205
3169224613
3169232853
3169240666
3169248173
3169255375
3169262028
3169270267
3169277470
3169283512
3169294254
3169299625
3169306095
3169313969
3169320804
3169326847
3169334293
3169342960
3169350773
3169356083
3169363468
3169372623
3169378727
3169385929
3169395694
3169402347
3169411075
3169417789
3169424930
3169431339
3169441532
3169449466
3169456241
3169463199
3169466678
3169478885
3169485233
3169491214
3169500675
3169507816
3169515262
3169523380
3169532047
3169538883
3169544864
3169554691
3169561038
3169568912
3169574588
3169583255
3169589847
3169595218
3169605044
3169611941
3169618289
3169625735
3169631595
3169639712
3169645938
3169655032
3169660769
3169669436
3169675845
3169683352
3169690555
3169697574
3169705752
3169712405
3169718875
3169726138
3169733584
3169740969
3169749209
3169759951
3169768862
3169775515
3169783023
3169789981
3169797793
3169807925
3169814944
3169825320
3169832766
3169840823
3169849368
3169856692
3169864687
3169873843
3169881350
3169887820
3169892580
3169900088
3169908022
3169914492
3169920840
3169929568
3169937380
3169943850
3169950991
3169957644
3169963564
3169972963
3169981447
3169989626
3169995546
3170002382
