3407852115
3407857364
3407862308
3407868289
3407873050
3407878971
3407884281
3407890689
3407896244
3407903446
3407907657
3407914554
3407920841
3407927738
3407934879
3407939945
3407948001
3407955142
3407962039
3407967288
3407974246
3407979129
3407987796
3407995486
3407999820
3408007449
3408013675
3408019290
3408027164
3408032840
3408040896
3408049136
3408056094
3408064944
3408074283
3408081180
3408091006
3408096988
3408107303
3408113711
3408121524
3408128238
3408138736
3408144839
3408152774
3408161074
3408168948
3408177005
3408184939
3408192813
3408200503
3408207583
3408214297
3408222231
3408229678
3408237856
3408247073
3408256289
3408262331
3408268496
3408276919
3408286013
3408295351
3408303652
3408311465
3408319277
3408323916
3408334780
3408343752
3408351626
3408359926
3408365542
3408374514
3408380800
3408388247
3408394899
3408403811
3408409975
3408419436
3408427797
3408435122
3408441896
3408449892
3408459413
3408465639
3408472597
3408480654
3408487245
3408495973
3408501833
3408508241
3408518862
3408523500
3408532717
3408540529
3408548158
3408555788
3408563295
3408570985
3408578371
3408583620
3408592836
3408600465
3408607973
3408615846
3408623353
3408629152
3408636659
3408644288
3408651735
3408659669
3408666994
3408674196
3408682741
3408690431
3408698671
3408705873
3408712343
3408720826
3408727174
3408736390
3408742860
3408752137
3408759400
3408767091
3408775392
3408784730
3408792359
3408798158
3408807313
3408814820
3408822816
3408831910
3408838441
3408846681
3408853822
3408860474
3408869752
3408879334
3408885804
3408892762
3408902467
3408908631
3408917054
3408924805
3408933900
3408941956
3408947816
3408955689
3408963013
3408972107
3408980225
3408987183
3408994690
3409002930
3409008851
3409017395
3409025513
3409032654
3409038697
3409050293
3409059204
3409067383
3409073120
3409080994
3409088867
3409096558
3409105652
3409113403
3409121216
3409127014
3409136475
3409142395
3409150635
3409158386
3409167358
3409173340
3409182800
3409189026
3409197510
3409203796
3409212707
3409219604
3409228516
3409236084
3409243652
3409248962
3409257446
3409265198
3409273193
3409281067
3409288330
3409296386
3409304443
3409312011
3409317566
3409326233
3409334289
3409344116
3409349975
3409358886
3409364990
3409373352
3409380493
3409388549
3409397888
3409405090
3409411743
3409419128
3409427062
3409432739
3409441772
3409450073
3409457397
3409462768
3409472045
3409477966
3409486022
3409491882
3409500976
3409507751
3409516906
3409524291
3409531798
3409539794
3409547484
3409554870
3409563476
3409570739
3409578551
3409585753
3409593749
3409602050
3409608214
3409616942
3409623656
3409633483
3409637999
3409647948
3409655150
3409662596
3409670653
3409678221
3409687255
3409694640
3409702147
3409709532
3409716857
3409724242
3409731200
3409738951
3409747313
3409755614
3409763426
3409770018
3409778868
3409786803
3409794798
3409799864
3409810973
3409817381
3409824766
3409832640
3409840086
3409847166
3409854490
3409861937
3409870176
3409877012
3409884764
3409891966
3409898436
3409905333
3409913755
3409921934
3409928953
3409935850
3409942625
3409949461
3409956602
3409964353
3409972776
3409978819
3409986814
3409993467
3410000547
3410008360
3410016660
3410024595
3410030637
3410039243
3410044920
3410052488
3410059080
3410066221
3410072752
3410082700
3410090574
3410098386
3410106382
3410112302
3410121335
3410126829
3410136899
3410145200
3410152891
3410161741
3410168577
3410177366
3410187070
3410194761
3410202085
3410210752
3410218137
3410225034
3410234861
3410244565
3410253232
3410262998
3410270566
3410276853
3410282346
3410288571
3410295529
3410301816
3410307675
3410313840
3410320432
3410326474
3410332761
3410339597
3410345334
3410352048
3410357907
3410362973
3410369077
3410373959
3410381589
3410387509
3410393918
3410400937
3410406979
3410413693
3410420712
3410427548
3410432980
3410440610
3410445737
3410452328
3410457516
3410464902
3410469784
3410475827
3410483578
3410489071
3410493527
3410498837
3410504574
3410510067
3410517086
3410522091
3410528805
3410533017
3410539608
3410545285
3410550595
3410556027
3410561886
3410568966
3410573666
3410580014
3410585201
3410590512
3410596859
3410601254
3410606259
3410613888
3410616879
3410624020
3410629757
3410635311
3410640194
3410645748
3410653683
3410658749
3410665279
3410669735
3410675533
3410679989
3410686703
3410692196
3410697689
3410703854
3410709103
3410713558
3410718807
3410724422
3410729915
3410736996
3410741329
3410746944
3410752682
3410758785
3410763057
3410768795
3410773494
3410781063
3410784481
3410791866
3410794979
3410802059
3410807613
3410813045
3410819027
3410824642
3410830013
3410835811
3410841304
3410846981
3410851985
3410857479
3410863765
3410868160
3410875362
3410878475
3410884761
3410891231
3410896968
3410903133
3410908748
3410914607
3410920650
3410925533
3410931392
3410936336
3410941768
3410947871
3410952449
3410958736
3410963496
3410969905
3410975581
3410981074
3410987422
3410992976
3410997493
3411002742
3411009273
3411015071
3411019893
3411026546
3411032527
3411038569
3411044795
3411050227
3411055598
3411060786
3411066401
3411071834
3411077510
3411083430
3411089045
3411094172
3411100093
3411105708
3411110957
3411118220
3411123652
3411129512
3411136348
3411142634
3411148677
3411153559
3411161189
3411168147
3411172419
3411178828
3411184382
3411190119
3411195979
3411202326
3411208430
3411213618
3411218012
3411224360
3411228877
3411235590
3411240290
3411249506
3411256098
3411262324
3411268061
3411272944
3411280390
3411286311
3411291865
3411298456
3411304255
3411309016
3411314875
3411321100
3411327082
3411334589
3411338312
3411344599
3411350825
3411356196
3411361384
3411366938
3411373285
3411379572
3411385309
3411390131
3411395807
3411401484
3411406855
3411412409
3411419367
3411426447
3411432123
3411437250
3411442987
3411448236
3411453119
3411458979
3411465814
3411471186
3411476862
3411482172
3411487482
3411493219
3411500971
3411505609
3411511225
3411517084
3411522577
3411527033
3411533563
3411539606
3411546198
3411551935
3411557550
3411563043
3411567560
3411573785
3411579279
3411588068
3411594781
3411599969
3411604608
3411609979
3411615716
3411621698
3411628168
3411632928
3411638910
3411645257
3411650628
3411655877
3411661493
3411667596
3411673639
3411678827
3411683526
3411688958
3411695977
3411701349
3411708917
3411713372
3411719171
3411724542
3411730096
3411735406
3411740777
3411746820
3411752618
3411757867
3411764764
3411769769
3411774957
3411780023
3411785211
3411792535
3411798211
3411803155
3411808892
3411814507
3411820184
3411825616
3411830377
3411837457
3411840997
3411848382
3411853448
3411859124
3411864495
3411869866
3411878228
3411882561
3411888482
3411894952
3411901055
3411905450
3411911492
3411916924
3411924187
3411930413
3411936211
3411943352
3411949395
3411956048
3411961724
3411967278
3411974785
3411980889
3411986870
3411991204
3411998406
3412003655
3412009697
3412014641
3412021843
3412025139
3412032585
3412035637
3412042900
3412050408
3412054924
3412060295
3412065544
3412071709
3412077385
3412081780
3412088494
3412094048
3412101128
3412106316
3412111748
3412116997
3412120171
3412127007
3412134758
3412139092
3412145378
3412150993
3412155388
3412161247
3412166313
3412172844
3412179314
3412182915
3412189323
3412195976
3412201286
3412206840
3412212456
3412219047
3412223869
3412229912
3412234367
3412240593
3412244926
3412251762
3412259392
3412263664
3412269951
3412273979
3412280693
3412286491
3412291313
3412297416
3412303032
3412307853
3412314567
3412320243
3412325431
3412330436
3412335685
3412342704
3412346977
3412353263
3412358940
3412364982
3412369316
3412377250
3412382865
3412388481
3412395744
3412401542
3412408073
3412413993
3412419486
3412425651
3412431083
3412437736
3412442619
3412449760
3412454887
3412460258
3412468497
3412473930
3412479301
3412483573
3412489677
3412495048
3412501151
3412506095
3412513602
3412518912
3412524467
3412530326
3412535575
3412542106
3412546439
3412553458
3412559256
3412565360
3412570609
3412576468
3412582816
3412588492
3412594291
3412600394
3412605338
3412611014
3412617240
3412621573
3412626822
3412631705
3412640067
3412643485
3412650382
3412656058
3412661246
3412667288
3412671378
3412678458
3412684622
3412689322
3412694998
3412699271
3412705069
3412710196
3412716177
3412722586
3412728079
3412733389
3412738882
3412744498
3412749869
3412755240
3412762747
3412767081
3412773062
3412778799
3412784048
3412789664
3412794913
3412799612
3412807608
3412811026
3412818533
3412823660
3412828909
3412833914
3412839590
3412845877
3412852102
3412857535
3412861868
3412868582
3412872976
3412878653
3412883352
3412889456
3412895010
3412900564
3412906302
3412911795
3412917349
3412923880
3412930960
3412936209
3412942984
3412946035
3412953237
3412956411
3412964285
3412970938
3412976858
3412981802
3412987234
3412993765
3412997793
3413004202
3413008718
3413015737
3413020620
3413027517
3413033071
3413038320
3413043813
3413049184
3413055959
3413062063
3413066701
3413072500
3413079214
3413083303
3413090139
3413095022
3413100881
3413106130
3413113332
3413118398
3413123647
3413129201
3413134511
3413142202
3413146779
3413153005
3413158742
3413163808
3413169545
3413175405
3413180288
3413186269
3413191030
3413197988
3413203176
3413208425
3413213491
3413218862
3413227651
3413232350
3413237905
3413242238
3413248586
3413252919
3413258534
3413263539
3413270925
3413277577
3413283071
3413289235
3413295217
3413302175
3413308461
3413313893
3413320241
3413325795
3413332204
3413336598
3413343983
3413349049
3413356068
3413360768
3413365834
3413370229
3413377492
3413383046
3413388356
3413394215
3413399769
3413404896
3413410206
3413416005
3413421376
3413426747
3413433705
3413439931
3413445057
3413451161
3413455922
3413462391
3413467518
3413473988
3413479908
3413486073
3413490956
3413496388
3413502858
3413506947
3413513417
3413519520
3413524769
3413530018
3413537525
3413543568
3413548939
3413554493
3413559925
3413565968
3413572132
3413577198
3413582936
3413588062
3413593739
3413598988
3413604298
3413611744
3413617237
3413622608
3413629261
3413634632
3413640980
3413647022
3413653309
3413658131
3413664722
3413670093
3413675281
3413680897
3413686146
3413691883
3413697559
3413703297
3413708973
3413713611
3413719410
3413724903
3413731128
3413737476
3413740711
3413747608
3413752613
3413759144
3413764637
3413770252
3413776416
3413782032
3413787037
3413792286
3413798755
3413802845
3413809864
3413815235
3413821399
3413826160
3413832630
3413837574
3413842823
3413848194
3413853626
3413861011
3413865283
3413871326
3413877063
3413881946
3413887683
3413892993
3413898547
3413906726
3413911914
3413917529
3413924487
3413930896
3413936511
3413941821
3413949207
3413954883
3413960376
3413965503
3413971057
3413977588
3413981921
3413989429
3413994250
3414001086
3414004321
3414010913
3414015674
3414022265
3414029529
3414035571
3414040759
3414046313
3414052417
3414056445
3414062793
3414067065
3414075610
3414080432
3414085620
3414091357
3414096728
3414101184
3414107775
3414114245
3414120044
3414126086
3414131640
3414137805
3414143054
3414148242
3414152453
3414160144
3414165209
3414172167
3414176623
3414182726
3414187060
3414192553
3414199999
3414205615
3414212084
3414216357
3414224291
3414228869
3414237109
3414241869
3414249133
3414255053
3414259997
3414266283
3414273180
3414278796
3414282824
3414292773
3414299120
3414303942
3414311205
3414317553
3414323290
3414331164
3414335741
3414342516
3414348131
3414354296
3414360888
3414367052
3414372606
3414379198
3414384325
3414391039
3414394945
3414402147
3414407213
3414415331
3414422533
3414427721
3414434252
3414439928
3414447496
3414452806
3414458422
3414466051
3414470995
3414476488
3414483080
3414488817
3414496935
3414502611
3414508226
3414515489
3414521593
3414527330
3414533373
3414540147
3414545030
3414552293
3414557909
3414563646
3414569871
3414575914
3414580614
3414587572
3414593309
3414599229
3414605333
3414611803
3414616746
3414622911
3414628282
3414635057
3414640184
3414648851
3414658067
3414664537
3414670213
3414675218
3414680345
3414686876
3414690904
3414697252
3414702012
3414708909
3414712693
3414719651
3414727403
3414732286
3414739610
3414745835
3414750718
3414756578
3414761949
3414768479
3414773973
3414780869
3414786302
3414791917
3414797166
3414801377
3414807786
3414814195
3414819688
3414825242
3414830186
3414836350
3414841355
3414846909
3414853318
3414859238
3414865891
3414871262
3414876572
3414882188
3414886948
3414892869
3414899155
3414904282
3414910142
3414915635
3414921250
3414929246
3414934250
3414940354
3414945847
3414952500
3414957932
3414963669
3414969468
3414975510
3414980698
3414984970
3414992112
3414997605
3415003037
3415009629
3415016526
3415022385
3415026779
3415032883
3415036301
3415042893
3415049912
3415055344
3415062424
3415066879
3415072861
3415078049
3415083603
3415091416
3415097275
3415102829
3415108078
3415113632
3415120712
3415128098
3415134506
3415139511
3415146164
3415151657
3415157516
3415163925
3415169052
3415175217
3415180954
3415187851
3415193832
3415197922
3415204513
3415210068
3415216659
3415223434
3415229416
3415234726
3415238815
3415246139
3415251144
3415256271
3415263229
3415267807
3415274215
3415277267
3415284164
3415292892
3415297042
3415303573
3415309860
3415313949
3415320541
3415326400
3415332260
3415336959
3415343246
3415349716
3415355026
3415359603
3415364913
3415373153
3415385299
3415395614
3415405807
3415414596
3415422164
3415430099
3415433883
3415444259
3415453719
3415462447
3415470321
3415480147
3415486251
3415491622
3415499129
3415504012
3415510360
3415515792
3415521041
3415527083
3415533126
3415538741
3415543258
3415550094
3415556807
3415561263
3415567366
3415572982
3415578658
3415585067
3415590071
3415596297
3415601729
3415607222
3415611373
3415618331
3415624800
3415630477
3415637191
3415643294
3415648848
3415655501
3415662032
3415667281
3415674239
3415679244
3415685103
3415690718
3415697127
3415703780
3415708662
3415714522
3415720076
3415725935
3415731368
3415737776
3415745406
3415749861
3415756819
3415759871
3415767805
3415773848
3415780196
3415786787
3415790694
3415798567
3415803755
3415809492
3415815108
3415820357
3415826765
3415832869
3415838728
3415845015
3415848982
3415855269
3415859968
3415866438
3415871992
3415879316
3415884871
3415890364
3415895918
3415903486
3415908918
3415915510
3415918623
3415926435
3415931745
3415938276
3415944807
3415949751
3415955915
3415961653
3415967024
3415973737
3415978987
3415985273
3415991926
3415997907
3416003523
3416008100
3416015058
3416023420
3416028059
3416034101
3416040144
3416045332
3416051923
3416058454
3416064985
3416068281
3416076520
3416081647
3416087202
3416092267
3416097761
3416106611
3416111493
3416117109
3416123395
3416127302
3416133466
3416140546
3416145551
3416152021
3416157209
3416163800
3416170636
3416176252
3416183149
3416188703
3416194501
3416200299
3416205487
3416211286
3416218366
3416224530
3416230756
3416236310
3416241132
3416246137
3416252667
3416257428
3416263898
3416267621
3416274274
3416279889
3416285443
3416291730
3416298261
3416304425
3416310712
3416315961
3416321759
3416326886
3416333356
3416338239
3416344159
3416350384
3416355389
3416361737
3416365948
3416372540
3416379376
3416384991
3416391217
3416397198
3416402447
3416406781
3416413251
3416419110
3416424237
3416431439
3416436017
3416442730
3416449322
3416455304
3416461224
3416465496
3416472210
3416477581
3416483075
3416490399
3416495587
3416501751
3416508282
3416513348
3416519024
3416524884
3416530316
3416535504
3416543926
3416550152
3416556133
3416562481
3416569622
3416575909
3416582989
3416587811
3416594708
3416598492
3416605206
3416611248
3416616802
3416622234
3416627728
3416634319
3416637554
3416646954
3416652203
3416659100
3416664776
3416672100
3416677044
3416682842
3416688396
3416695110
3416700237
3416706646
3416713421
3416718914
3416724773
3416729107
3416735698
3416742046
3416748028
3416753338
3416759197
3416765117
3416771465
3416776470
3416783367
3416787578
3416793804
3416799785
3416804973
3416810405
3416816082
3416822795
3416827678
3416833599
3416839031
3416844707
3416851299
3416856304
3416863262
3416868389
3416875102
3416879924
3416885722
3416892131
3416897502
3416903056
3416908916
3416914653
3416921184
3416925883
3416932353
3416938457
3416945048
3416950297
3416955852
3416962443
3416966716
3416972758
3416979655
3416985210
3416990336
3416994975
3417001384
3417008708
3417015300
3417021281
3417027385
3417033732
3417039103
3417044963
3417052348
3417055766
3417064250
3417070048
3417075053
3417082316
3417087870
3417093364
3417100749
3417108683
3417114909
3417121379
3417126811
3417132365
3417136271
3417144999
3417149943
3417155680
3417162516
3417167704
3417173319
3417178752
3417186198
3417191935
3417199076
3417204020
3417209391
3417215250
3417220622
3417228068
3417233500
3417239909
3417245280
3417251078
3417257670
3417262369
3417268595
3417275065
3417280619
3417286112
3417291544
3417296732
3417301371
3417308451
3417315104
3417320475
3417325663
3417331156
3417336771
3417343790
3417349833
3417355326
3417359720
3417366678
3417371988
3417377298
3417385477
3417388834
3417396646
3417401590
3417406656
3417412699
3417418497
3417423502
3417429422
3417434854
3417441019
3417445169
3417453104
3417458292
3417464456
3417470499
3417475504
3417481302
3417486917
3417492471
3417498575
3417504678
3417511453
3417517069
3417522195
3417527994
3417533609
3417539774
3417546060
3417552713
3417558145
3417563638
3417568948
3417575052
3417581705
3417587686
3417593484
3417599039
3417604165
3417610269
3417616006
3417621805
3417626870
3417631936
3417637246
3417642618
3417648904
3417653482
3417661172
3417667337
3417672708
3417678811
3417684793
3417690530
3417695657
3417702554
3417707986
3417712991
3417720193
3417724038
3417732156
3417739053
3417743569
3417750833
3417756204
3417761331
3417768166
3417772256
3417779458
3417784890
3417789834
3417796365
3417801736
3417807534
3417812051
3417820718
3417826272
3417832009
3417836831
3417840981
3417847878
3417856240
3417865761
3417880044
3417889565
3417896706
3417904091
3417912758
3417918740
3417926186
3417933144
3417940468
3417948342
3417954445
3417960305
3417966103
3417973000
3417979592
3417985085
3417991127
3417997048
3418002785
3418008217
3418014077
3418019753
3418024452
3418031105
3418037697
3418043190
3418050575
3418057594
3418063088
3418070046
3418075112
3418081825
3418088661
3418093727
3418099342
3418105141
3418111610
3418118752
3418124977
3418130714
3418136940
3418142860
3418147743
3418154640
3418159767
3418164955
3418172645
3418177162
3418184975
3418190590
3418196632
3418204140
3418207496
3418214760
3418220375
3418225746
3418230812
3418235939
3418242958
3418248512
3418254982
3418259864
3418264991
3418270851
3418276161
3418281715
3418287757
3418293983
3418298744
3418304298
3418308509
3418315040
3418322242
3418328041
3418332496
3418338417
3418343666
3418349220
3418354896
3418361915
3418367164
3418372657
3418380470
3418387489
3418391273
3418400062
3418405372
3418411292
3418417396
3418423194
3418429542
3418434302
3418438819
3418446509
3418452552
3418458167
3418463843
3418470191
3418476722
3418483985
3418489661
3418494544
3418500281
3418506080
3418511634
3418518897
3418524329
3418530982
3418536841
3418542823
3418548682
3418554297
3418561683
3418566932
3418572852
3418579444
3418584876
3418591590
3418595679
3418603125
3418608985
3418614234
3418620581
3418625830
3418632056
3418636939
3418643836
3418648963
3418654334
3418661536
3418666113
3418672522
3418676917
3418684851
3418690772
3418696204
3418702612
3418708350
3418713477
3418718420
3418725806
3418732275
3418737402
3418742956
3418747046
3418754248
3418758826
3418768103
3418773230
3418778357
3418783606
3418789099
3418796057
3418800696
3418807226
3418813574
3418819067
3418825110
3418829687
3418836889
3418840735
3418849096
3418855383
3418860205
3418867041
3418872839
3418878088
3418884680
3418889135
3418895300
3418901342
3418907629
3418913061
3418917883
3418925268
3418930883
3418936010
3418941320
3418947363
3418953527
3418958715
3418965063
3418970312
3418976415
3418981970
3418986181
3418992590
3418998571
3419004308
3419009069
3419016515
3419021398
3419027685
3419032568
3419038915
3419044530
3419050939
3419056676
3419063207
3419067602
3419074132
3419078893
3419085790
3419092626
3419097997
3419103307
3419109166
3419114415
3419119542
3419128270
3419134130
3419139562
3419144750
3419149022
3419156591
3419162816
3419168493
3419174657
3419178991
3419187841
3419193639
3419199559
3419205663
3419212499
3419217870
3419223607
3419230016
3419236058
3419241368
3419247838
3419253819
3419258824
3419265355
3419269689
3419277074
3419283543
3419289403
3419295689
3419300023
3419307164
3419312535
3419317784
3419324925
3419329198
3419337254
3419343175
3419348057
3419355199
3419359166
3419367955
3419371312
3419378575
3419384312
3419390904
3419396824
3419401280
3419407811
3419414647
3419420018
3419425084
3419429966
3419437230
3419442418
3419448033
3419453953
3419459446
3419464085
3419469822
3419475071
3419481419
3419487034
3419494114
3419499180
3419504368
3419509556
3419515293
3419521336
3419527378
3419533726
3419539585
3419546177
3419552159
3419557346
3419562107
3419568882
3419575596
3419581333
3419587681
3419595249
3419601658
3419607090
3419611912
3419618992
3419625034
3419630650
3419636082
3419640781
3419648594
3419654697
3419659824
3419665928
3419671787
3419677463
3419681064
3419689365
3419695774
3419701267
3419707248
3419711704
3419720066
3419726230
3419731723
3419738010
3419743808
3419748813
3419754306
3419759800
3419766269
3419770908
3419776950
3419781345
3419788303
3419794467
3419798435
3419806308
3419809726
3419816806
3419822849
3419828464
3419835178
3419840427
3419846652
3419855563
3419861606
3419867221
3419871982
3419878574
3419884616
3419890964
3419896884
3419902560
3419908969
3419915073
3419918857
3419927585
3419932223
3419938937
3419944125
3419949924
3419955600
3419962314
3419968112
3419974826
3419979770
3419986362
3419991794
3419997775
3420004306
3420009860
3420016574
3420021579
3420028109
3420035006
3420040988
3420046786
3420053012
3420058566
3420064730
3420070285
3420076449
3420082553
3420088168
3420095370
3420100985
3420106112
3420112155
3420118624
3420125094
3420130282
3420137179
3420142672
3420148409
3420154513
3420159884
3420165865
3420171359
3420177950
3420183321
3420189059
3420196627
3420201937
3420209261
3420213107
3420222079
3420227755
3420233797
3420239230
3420245455
3420251620
3420257113
3420263033
3420268709
3420271944
3420279391
3420285555
3420291231
3420297823
3420302401
3420308504
3420316744
3420322847
3420329744
3420333956
3420341036
3420347811
3420352022
3420357637
3420362276
3420369356
3420374422
3420379549
3420386019
3420390230
3420395723
3420400728
3420408785
3420414888
3420419222
3420425691
3420431063
3420435762
3420441927
3420448335
3420454256
3420459688
3420465791
3420470186
3420476839
3420481416
3420487947
3420493379
3420498933
3420505403
3420509737
3420516512
3420521211
3420527986
3420535066
3420541170
3420546968
3420552339
3420558565
3420564973
3420570466
3420576692
3420582857
3420588472
3420594697
3420601777
3420607820
3420613618
3420618623
3420624360
3420629731
3420636384
3420641511
3420647859
3420655305
3420660737
3420666658
3420671601
3420679536
3420686189
3420691804
3420697846
3420703950
3420712495
3420718659
3420723481
3420729829
3420735200
3420740815
3420747407
3420752046
3420758332
3420764985
3420770234
3420777375
3420781953
3420789460
3420795075
3420800813
3420807587
3420813020
3420818879
3420824616
3420830231
3420835541
3420840546
3420847748
3420852692
3420858918
3420863373
3420870087
3420874909
3420880646
3420886384
3420892853
3420897736
3420902497
3420908539
3420912690
3420919770
3420926606
3420932709
3420937043
3420942597
3420948151
3420952851
3420960419
3420965973
3420971527
3420977265
3420983368
3420988556
3420994477
3421000946
3421006745
3421011078
3421019196
3421024628
3421030243
3421035797
3421040985
3421048615
3421054413
3421059845
3421065521
3421071259
3421076996
3421082550
3421100861
3421106598
3421112274
3421118988
3421124298
3421130829
3421136932
3421143585
3421148895
3421153351
3421161285
3421166839
3421172272
3421178863
3421183319
3421190704
3421196747
3421202911
3421208404
3421215484
3421220733
3421226532
3421231903
3421237762
3421242218
3421249847
3421256500
3421261444
3421267486
3421272674
3421279327
3421283966
3421291107
3421297088
3421303131
3421309234
3421314422
3421320709
3421326141
3421332488
3421337554
3421342925
3421348113
3421354400
3421359100
3421366546
3421371490
3421376373
3421381988
3421387847
3421393890
3421398772
3421405181
3421410674
3421415923
3421420928
3421425872
3421431853
3421437713
3421443084
3421447723
3421454436
3421460479
3421465484
3421471892
3421477019
3421482940
3421487151
3421493255
3421498992
3421504119
3421510405
3421514617
3421521575
3421526641
3421532622
3421538421
3421543547
3421549285
3421555877
3421562102
3421566619
3421574492
3421579497
3421585234
3421590789
3421595732
3421603484
3421609160
3421614531
3421620391
3421625884
3421630889
3421635710
3421642973
3421647368
3421652373
3421658293
3421664092
3421669463
3421674162
3421680632
3421685393
3421692290
3421697600
3421702971
3421710417
3421714384
3421720915
3421725249
3421731718
3421736784
3421742461
3421748747
3421753874
3421759855
3421765654
3421771696
3421776213
3421782133
3421788481
3421794157
3421800566
3421804899
3421812285
3421817778
3421822844
3421827360
3421832365
3421838591
3421844694
3421850554
3421853727
3421861052
3421867033
3421873136
3421879789
3421886320
3421891630
3421896879
3421902189
3421908354
3421913236
3421921110
3421926298
3421931608
3421936979
3421942106
3421948698
3421953581
3421959501
3421964445
3421970121
3421975919
3421982511
3421987211
3421992460
3421999357
3422005094
3422015287
3422021024
3422026884
3422033048
3422037992
3422045804
3422050992
3422057096
3422063566
3422068632
3422075345
3422081449
3422085782
3422093412
3422100309
3422105680
3422111905
3422117887
3422125150
3422129483
3422136686
3422142789
3422148221
3422153165
3422159269
3422165494
3422168973
3422175992
3422182462
3422188321
3422193326
3422198148
3422205533
3422211331
3422218717
3422224088
3422229032
3422236539
3422243314
3422248197
3422255582
3422260953
3422266324
3422272183
3422278226
3422285306
3422288663
3422296780
3422302213
3422307339
3422312894
3422317166
3422324673
3422329434
3422336026
3422342068
3422347134
3422352261
3422356228
3422363919
3422368497
3422375027
3422378628
3422386563
3422390835
3422397061
3422403592
3422407803
3422413968
3422418850
3422425320
3422429654
3422436795
3422443142
3422457974
3422462674
3422470181
3422477383
3422482754
3422488797
3422493191
3422499050
3422505825
3422511196
3422517422
3422522122
3422528286
3422533169
3422540554
3422545742
3422551052
3422558315
3422563747
3422569790
3422575710
3422581142
3422587124
3422593410
3422600124
3422606472
3422611416
3422616970
3422622707
3422627651
3422632595
3422640652
3422646328
3422652126
3422657619
3422663479
3422670131
3422673733
3422680935
3422687832
3422692043
3422697902
3422704006
3422710231
3422716579
3422723537
3422729519
3422733791
3422741665
3422748134
3422754604
3422760158
3422766872
3422771999
3422778469
3422782680
3422790798
3422794155
3422802333
3422807826
3422813320
3422819423
3422822841
3422831508
3422837062
3422842922
3422849696
3422854823
3422861049
3422866847
3422873195
3422879176
3422884975
3422889980
3422896938
3422901210
3422907863
3422915187
3422920863
3422926723
3422931056
3422938014
3422943812
3422948817
3422955226
3422959987
3422965724
3422972682
3422977565
3422983424
3422987575
3422993861
3422998561
3423005336
3423011195
3423016505
3423022303
3423027308
3423034388
3423039759
3423047023
3423052027
3423056910
3423063624
3423069667
3423075343
3423082301
3423088954
3423094691
3423101405
3423106166
3423113490
3423118617
3423123927
3423130335
3423135157
3423141383
3423147486
3423151881
3423158900
3423162013
3423169947
3423176112
3423182032
3423187952
3423192713
3423199854
3423203394
3423210352
3423215967
3423221033
3423228419
3423233179
3423238978
3423244593
3423250086
3423255640
3423260462
3423267115
3423271631
3423278406
3423284510
3423290064
3423296473
3423301050
3423307764
3423313562
3423319056
3423324915
3423330347
3423335840
3423340357
3423349390
3423355555
3423361109
3423366907
3423371302
3423378565
3423385218
3423391321
3423397302
3423402490
3423408411
3423414392
3423420618
3423427027
3423432398
3423438562
3423444238
3423448206
3423454920
3423459985
3423467310
3423473291
3423478784
3423484399
3423489343
3423495752
3423502222
3423507227
3423514246
3423518884
3423525537
3423529870
3423536951
3423543664
3423549402
3423555993
3423561365
3423566736
3423573694
3423578454
3423586084
3423591028
3423596643
3423602380
3423606775
3423613916
3423617212
3423625695
3423631494
3423636865
3423642053
3423646814
3423652429
3423657983
3423663049
3423670190
3423675256
3423682336
3423688806
3423694238
3423700768
3423706628
3423712792
3423718102
3423723535
3423728723
3423733911
3423741174
3423746911
3423752526
3423757775
3423763024
3423767846
3423774621
3423780053
3423786584
3423791650
3423796166
3423802941
3423808556
3423813866
3423819970
3423825890
3423832665
3423837975
3423843285
3423849938
3423854577
3423862084
3423866784
3423874779
3423880456
3423884667
3423891930
3423897789
3423904076
3423909996
3423915612
3423921166
3423926842
3423933800
3423938378
3423944786
3423949974
3423955712
3423962120
3423967247
3423973778
3423979515
3423984825
3423991539
3423996422
3424002648
3424007103
3424014549
3424022362
3424028465
3424033348
3424038170
3424045372
3424050011
3424056358
3424063683
3424068626
3424075951
3424080894
3424086082
3424092369
3424098900
3424105125
3424111717
3424117393
3424122215
3424128197
3424133568
3424140220
3424145225
3424151939
3424157677
3424162742
3424167259
3424173851
3424180137
3424187156
3424191795
3424197349
3424203270
3424209190
3424216453
3424222068
3424227684
3424233787
3424239830
3424245140
3424250572
3424256858
3424262657
3424267540
3424274742
3424280235
3424285362
3424291526
3424297141
3424303306
3424308006
3424315513
3424320823
3424325828
3424332664
3424337669
3424345115
3424351035
3424356345
3424363364
3424367515
3424373985
3424381553
3424387290
3424394370
3424400413
3424407981
3424412803
3424421104
3424428062
3424435752
3424442161
3424449180
3424456138
3424463157
3424469626
3424476462
3424482566
3424488547
3424494346
3424498740
3424505942
3424510459
3424517112
3424523276
3424528342
3424534690
3424539511
3424545432
3424551657
3424559470
3424565329
3424570639
3424575949
3424581626
3424587180
3424592124
3424600241
3424605246
3424611044
3424617270
3424623129
3424630393
3424637229
3424642661
3424648459
3424653830
3424660605
3424665915
3424670248
3424677390
3424682761
3424689474
3424695029
3424700095
3424707053
3424712485
3424719565
3424724325
3424730978
3424737082
3424742148
3424746725
3424752096
3424759970
3424765707
3424771078
3424775290
3424782004
3424787924
3424793051
3424799276
3424804831
3424811728
3424817282
3424822897
3424828695
3424834311
3424840292
3424846090
3424851461
3424856832
3424861898
3424867880
3424874044
3424880941
3424886923
3424892416
3424897787
3424906515
3424912740
3424919271
3424924581
3424930807
3424936483
3424942465
3424947775
3424952718
3424958761
3424964193
3424970480
3424976522
3424981588
3424986898
3424992391
3424999288
3425003866
3425011495
3425016561
3425021993
3425028829
3425033163
3425040914
3425046712
3425051961
3425057516
3425062765
3425068685
3425074788
3425080892
3425085897
3425092305
3425097554
3425102620
3425108541
3425114034
3425120870
3425124349
3425132039
3425137227
3425142537
3425147969
3425154073
3425159932
3425165670
3425170919
3425177388
3425181600
3425187947
3425193868
3425199361
3425205159
3425210225
3425217488
3425221883
3425227559
3425232015
3425240498
3425245564
3425250630
3425256490
3425261983
3425267842
3425273091
3425279866
3425286031
3425291341
3425296529
3425302022
3425307820
3425312703
3425320332
3425325154
3425330708
3425339436
3425343709
3425350239
3425354878
3425363545
3425369404
3425374592
3425379780
3425385457
3425390278
3425396260
3425403401
3425409077
3425414448
3425420002
3425425373
3425430378
3425435688
3425441975
3425448323
3425454060
3425459248
3425464924
3425471516
3425476216
3425482746
3425488728
3425493794
3425499836
3425505573
3425510700
3425516926
3425523213
3425529926
3425536274
3425542561
3425548054
3425554401
3425562458
3425568134
3425573505
3425577961
3425585590
3425590473
3425595844
3425602436
3425609150
3425613911
3425620624
3425625690
3425632465
3425637348
3425643818
3425649738
3425655048
3425661640
3425665790
3425672199
3425676532
3425684528
3425689350
3425694599
3425700763
3425706501
3425711811
3425717731
3425726276
3425731830
3425737445
3425743427
3425749286
3425755146
3425759784
3425766315
3425772602
3425777667
3425784564
3425788898
3425795734
3425799274
3425806781
3425813190
3425818744
3425823810
3425828510
3425834979
3425838214
3425847003
3425852130
3425857318
3425862872
3425867999
3425875446
3425880206
3425887958
3425893878
3425899005
3425904071
3425909869
3425915362
3425921222
3425927936
3425934039
3425939044
3425944415
3425949786
3425955157
3425960650
3425967120
3425972369
3425977130
3425981524
3425989032
3425994769
3425999835
3426006121
3426011737
3426018634
3426023944
3426028949
3426036273
3426041339
3426049212
3426055194
3426060260
3426067340
3426071612
3426079608
3426085833
3426091693
3426097125
3426101641
3426109271
3426112383
3426120745
3426125933
3426131365
3426138262
3426144488
3426149676
3426156268
3426161150
3426167803
3426173235
3426178912
3426185809
3426190264
3426197893
3426203997
3426210955
3426215349
3426220721
3426227556
3426231829
3426240008
3426245501
3426254656
3426264605
3426270403
3426275957
3426281939
3426286333
3426295366
3426299944
3426305498
3426312334
3426316362
3426322649
3426327349
3426333940
3426340593
3426345720
3426352373
3426357866
3426363115
3426367815
3426375933
3426381853
3426387285
3426392778
3426398088
3426403337
3426409441
3426416399
3426421770
3426427446
3426433428
3426439348
3426445512
3426448747
3426456987
3426463579
3426466997
3426472429
3426475542
3426479448
3426485002
3426490739
3426494279
3426498674
3426502214
3426508195
3426512346
3426515764
3426521135
3426526445
3426530473
3426535478
3426538408
3426546464
3426550065
3426555131
3426559709
3426564164
3426568010
3426574052
3426576494
3426582109
3426586992
3426591691
3426596513
3426600297
3426606950
3426611161
3426616716
3426619401
3426625138
3426629472
3426633927
3426636674
3426645585
3426651261
3426655839
3426660600
3426664567
3426670976
3426674211
3426681596
3426686418
3426690568
3426696427
3426701371
3426706071
3426709916
3426715531
3426719560
3426724259
3426728410
3426733903
3426738236
3426742692
3426747025
3426751725
3426756303
3426761185
3426765214
3426770097
3426774369
3426779313
3426785966
3426789201
3426795243
3426799149
3426804520
3426808793
3426813309
3426818253
3426823075
3426827653
3426831803
3426836808
3426841141
3426845597
3426850480
3426855057
3426860734
3426865006
3426869095
3426873673
3426878190
3426882523
3426887284
3426892106
3426896988
3426900711
3426906571
3426908951
3426915238
3426921219
3426925248
3426930374
3426934037
3426940079
3426942887
3426948563
3426951432
3426958939
3426964920
3426968766
3426974625
3426978714
3426984940
3426988663
3426994583
3427000076
3427005509
3427010513
3427016068
3427021561
3427025528
3427031021
3427037125
3427041519
3427046402
3427050797
3427056900
3427060013
3427065445
3427071182
3427077103
3427081802
3427087234
3427092056
3427097122
3427101211
3427106399
3427110611
3427118790
3427123428
3427128494
3427132950
3427137893
3427143204
3427148392
3427150162
3427158035
3427163772
3427168777
3427173416
3427178299
3427182388
3427187393
3427193008
3427198013
3427203079
3427207901
3427212173
3427217300
3427222305
3427227127
3427232925
3427238479
3427243118
3427248489
3427254165
3427258682
3427264907
3427270034
3427275588
3427280471
3427286086
3427290847
3427298171
3427301650
3427307632
3427313369
3427319717
3427323135
3427331008
3427334243
3427341262
3427347854
3427355239
3427360793
3427366286
3427372207
3427376357
3427381850
3427387344
3427391921
3427397231
3427400283
3427408767
3427412246
3427418777
3427424331
3427428359
3427432998
3427439040
3427443740
3427450698
3427454909
3427460769
3427466628
3427473769
3427479140
3427485122
3427489089
3427497939
3427503005
3427507582
3427513991
3427517653
3427524184
3427528945
3427533095
3427541274
3427545607
3427551711
3427555678
3427561659
3427567153
3427571852
3427577284
3427584731
3427589003
3427595046
3427600844
3427606337
3427610487
3427616042
3427621413
3427627211
3427633315
3427637770
3427644301
3427649916
3427655836
3427659743
3427664931
3427670546
3427677870
3427684279
3427689345
3427693861
3427697829
3427703139
3427708449
3427711928
3427719923
3427724806
3427730299
3427733534
3427740553
3427745802
3427749769
3427754652
3427761793
3427765516
3427772596
3427777052
3427782484
3427787001
3427792616
3427797133
3427804701
3427809401
3427815260
3427820082
3427824903
3427829176
3427835829
3427840284
3427847547
3427854139
3427859266
3427866529
3427873731
3427879957
3427886488
3427892347
3427900953
3427906934
3427913587
3427919019
3427923780
3427929578
3427935438
3427939771
3427943555
3427951734
3427956983
3427962965
3427966566
3427973951
3427977552
3427985548
3427988966
3427996717
3428002210
3428008008
3428013318
3428018568
3428024915
3428030042
3428034559
3428040479
3428046583
3428053846
3428062146
3428071424
3428074903
3428082227
3428085584
3428094190
3428098584
3428106763
3428114698
3428118909
3428124952
3428131055
3428137830
3428143384
3428149488
3428155713
3428160352
3428166516
3428171948
3428178113
3428183728
3428188489
3428195325
3428201489
3428207349
3428214551
3428220532
3428227429
3428232373
3428238416
3428241650
3428250195
3428255139
3428260022
3428265881
3428270581
3428275830
3428280225
3428287183
3428292554
3428297681
3428304150
3428310376
3428314099
3428321667
3428327710
3428331921
3428337048
3428342480
3428345776
3428353283
3428359753
3428364087
3428369030
3428375195
3428380505
3428384900
3428389355
3428396069
3428400769
3428406079
3428410962
3428416516
3428423291
3428427929
3428432324
3428440258
3428445202
3428451123
3428455761
3428463146
3428471081
3428477795
3428483288
3428492199
3428496838
3428502819
3428507824
3428514782
3428518078
3428525890
3428532665
3428538219
3428543102
3428548779
3428554638
3428558910
3428564526
3428570202
3428575939
3428582409
3428587841
3428591991
3428599132
3428605053
3428610119
3428614391
3428621227
3428628124
3428633678
3428638195
3428643993
3428650036
3428655040
3428661083
3428667553
3428674877
3428680065
3428685680
3428691051
3428696422
3428701610
3428705700
3428710521
3428720226
3428725902
3428730480
3428736949
3428741100
3428744152
3428751415
3428754650
3428762767
3428766673
3428774669
3428781322
3428786876
3428789073
3428797191
3428800914
3428807994
3428814525
3428820201
3428824291
3428829845
3428833202
3428839977
3428843150
3428851390
3428857433
3428862865
3428865977
3428872569
3428875926
3428882457
3428886973
3428894115
3428899303
3428905528
3428910472
3428915599
3428920421
3428926524
3428930552
3428937388
3428942332
3428947093
3428953807
3428958445
3428962474
3428968089
3428973948
3428979747
3428984507
3428990489
3428996226
3429001719
3429007884
3429014781
3429019847
3429026683
3429031260
3429037547
3429043833
3429049143
3429053721
3429060191
3429064585
3429071299
3429077464
3429079661
3429088877
3429095164
3429102122
3429108286
3429114146
3429121104
3429127268
3429133555
3429137827
3429143870
3429150217
3429155466
3429159983
3429167368
3429172861
3429180491
3429185068
3429190684
3429197825
3429203257
3429209177
3429211130
3429221262
3429228586
3429232981
3429239023
3429246042
3429251291
3429256846
3429263743
3429269480
3429274424
3429281260
3429287546
3429293100
3429295053
3429302622
3429305857
3429314096
3429319406
3429324778
3429329294
3429335153
3429338938
3429345285
3429348459
3429356272
3429360422
3429368234
3429372019
3429378855
3429383798
3429390085
3429394480
3429401010
3429406137
3429412912
3429416574
3429423227
3429427744
3429433359
3429437936
3429444589
3429449594
3429455148
3429460397
3429467294
3429472177
3429477426
3429481515
3429488534
3429493295
3429498727
3429504648
3429509530
3429515756
3429521371
3429526742
3429533883
3429540841
3429545541
3429549692
3429555978
3429562204
3429568063
3429572946
3429578256
3429584237
3429589608
3429595346
3429601083
3429605416
3429611398
3429615914
3429620797
3429629525
3429633859
3429641610
3429645028
3429651986
3429657052
3429661935
3429669198
3429675179
3429680001
3429686227
3429690682
3429697152
3429703134
3429708138
3429712655
3429716012
3429724740
3429728951
3429736825
3429740609
3429747933
3429753182
3429759713
3429764535
3429771249
3429777047
3429783700
3429789559
3429794747
3429799447
3429806466
3429810860
3429819161
3429824349
3429830025
3429835457
3429842293
3429846261
3429852730
3429856942
3429864815
3429869759
3429875557
3429882027
3429887398
3429891671
3429897713
3429902230
3429909920
3429915108
3429922310
3429926766
3429934151
3429940071
3429944222
3429949715
3429955269
3429961556
3429968819
3429972847
3429977913
3429983467
3429988838
3429994148
3429999642
3430005440
3430011360
3430015572
3430018807
3430026314
3430031807
3430035713
3430042671
3430048347
3430052925
3430058235
3430061592
3430068306
3430071541
3430078621
3430081978
3430089180
3430094978
3430099678
3430104744
3430110969
3430116218
3430122871
3430128059
3430134651
3430140205
3430145698
3430150459
3430156868
3430161323
3430167305
3430171394
3430179878
3430184944
3430190742
3430197334
3430203071
3430210945
3430217536
3430225288
3430231819
3430237007
3430242988
3430247383
3430253730
3430258125
3430264106
3430268501
3430271980
3430281135
3430287238
3430293220
3430297492
3430302680
3430307563
3430314277
3430319221
3430325935
3430333320
3430337714
3430344489
3430349006
3430352851
3430360725
3430365729
3430372871
3430380256
3430386542
3430393012
3430397651
3430404059
3430408637
3430413642
3430420844
3430427375
3430432746
3430435981
3430443793
3430447455
3430453925
3430458808
3430465827
3430471381
3430475776
3430480536
3430487250
3430492194
3430497626
3430502753
3430509284
3430513800
3430520026
3430525885
3430532904
3430537787
3430544379
3430549140
3430556830
3430560858
3430567511
3430572760
3430578559
3430582160
3430588629
3430591925
3430601264
3430607245
3430612433
3430617438
3430622748
3430628363
3430633856
3430639227
3430643134
3430649176
3430654181
3430660223
3430664496
3430670843
3430674994
3430682074
3430688422
3430692694
3430698370
3430703802
3430708258
3430713751
3430719488
3430725409
3430731634
3430736883
3430742865
3430747809
3430753607
3430758795
3430763739
3430768805
3430775702
3430782476
3430788458
3430792059
3430798101
3430802923
3430809759
3430815191
3430822027
3430827337
3430833563
3430838751
3430844671
3430849005
3430854193
3430859991
3430865789
3430871527
3430876287
3430882330
3430887213
3430892950
3430896551
3430903387
3430908270
3430917425
3430924505
3430929205
3430933355
3430940374
3430945440
3430952215
3430957220
3430965581
3430972112
3430978216
3430983098
3430988836
3430995244
3430999395
3431005254
3431011480
3431018743
3431023565
3431030218
3431035955
3431043096
3431049627
3431057317
3431062688
3431069646
3431076726
3431081792
3431088262
3431093694
3431100896
3431106206
3431114324
3431119512
3431125859
3431130925
3431137822
3431141057
3431148259
3431151250
3431159184
3431162724
3431169072
3431174138
3431180425
3431184880
3431190007
3431194524
3431203557
3431207280
3431213261
3431218205
3431224675
3431229192
3431234807
3431239690
3431247197
3431251591
3431256901
3431262639
3431268437
3431274235
3431278935
3431284856
3431291142
3431297551
3431302800
3431308537
3431313664
3431318242
3431323308
3431329960
3431334843
3431341923
3431346867
3431352421
3431356877
3431363591
3431367924
3431374028
3431378483
3431386479
3431391117
3431397282
3431403569
3431411076
3431416935
3431425968
3431435795
3431444096
3431450199
3431458988
3431466191
3431475224
3431479069
3431487003
3431490605
3431498051
3431507145
3431512333
3431518192
3431525761
3431530888
3431535709
3431542667
3431549564
3431555485
3431560856
3431567326
3431574711
3431579410
3431583805
3431590702
3431597721
3431603397
3431607853
3431614322
3431621280
3431627445
3431632511
3431636112
3431647159
3431652164
3431658146
3431661625
3431670231
3431674015
3431682438
3431686710
3431697391
3431702274
3431708499
3431713260
3431719913
3431724002
3431729496
3431733707
3431740421
3431744876
3431750980
3431756046
3431760379
3431764652
3431770694
3431774906
3431781070
3431784793
3431791995
3431796817
3431802066
3431806766
3431812747
3431817325
3431823795
3431828860
3431834354
3431839175
3431845401
3431849795
3431855716
3431860294
3431866397
3431872439
3431876651
3431882815
3431887393
3431891665
3431898135
3431902164
3431908511
3431914920
3431920779
3431926516
3431931155
3431936587
3431941897
3431946353
3431950015
3431959964
3431965762
3431974978
3431977114
3431986636
3431990786
3431999209
3432004031
3432010562
3432016848
3432021243
3432024478
3432032351
3432038516
3432043093
3432050418
3432057009
3432062991
3432068301
3432075015
3432079836
3432085940
3432093569
3432101687
3432107546
3432114443
3432118777
3432125918
3432131167
3432137881
3432143740
3432149905
3432154665
3432162051
3432165591
3432173647
3432179262
3432185976
3432189333
3432198733
3432203005
3432208864
3432213381
3432219301
3432224062
3432229677
3432234682
3432240786
3432247072
3432252504
3432258425
3432262758
3432266054
3432273867
3432277102
3432286196
3432289797
3432298098
3432302248
3432307070
3432311769
3432316774
3432322084
3432327639
3432333864
3432337953
3432344606
3432348940
3432354860
3432358888
3432365297
3432370790
3432377260
3432383852
3432389284
3432396181
3432401979
3432407289
3432413698
3432420168
3432425783
3432430910
3432438722
3432444093
3432450136
3432455934
3432462404
3432467897
3432473756
3432478761
3432487062
3432493349
3432499025
3432504518
3432511110
3432515748
3432522340
3432525514
3432532533
3432535829
3432542848
3432546266
3432554506
3432560365
3432564943
3432570070
3432576722
3432581544
3432586183
3432592530
3432597901
3432603822
3432609742
3432615663
3432623109
3432629090
3432635133
3432642884
3432649049
3432654298
3432661683
3432666749
3432674928
3432679933
3432685731
3432692078
3432698426
3432704469
3432711732
3432717164
3432724732
3432730531
3432735902
3432742310
3432746400
3432753480
3432758240
3432764344
3432768922
3432774415
3432778687
3432786255
3432790406
3432797364
3432801880
3432808289
3432813660
3432821106
3432826050
3432834473
3432841248
3432847474
3432851197
3432859070
3432862671
3432871155
3432874695
3432883057
3432887024
3432893982
3432900208
3432904724
3432911072
3432917237
3432920838
3432929077
3432933289
3432940674
3432946167
3432951233
3432956299
3432961670
3432966004
3432973755
3432979065
3432984375
3432991821
3433000427
3433005371
3433012085
3433016907
3433024048
3433028625
3433035522
3433039123
3433046692
3433051514
3433057129
3433062134
3433070007
3433074158
3433080566
3433085510
3433091125
3433095581
3433102112
3433106567
3433112854
3433119507
3433126220
3433131958
3433137024
3433141540
3433147216
3433153015
3433156677
3433165710
3433169738
3433177368
3433181274
3433188171
3433193237
3433199096
3433203552
3433210632
3433215454
3433222900
3433227416
3433233520
3433238098
3433242919
3433249389
3433252990
3433260803
3433268798
3433273559
3433279907
3433284362
3433290221
3433296630
3433300109
3433309448
3433316467
3433320800
3433325866
3433331908
3433335265
3433342590
3433349120
3433356750
3433360778
3433367858
3433371337
3433378722
3433384093
3433390014
3433394897
3433401061
3433407958
3433414611
3433418090
3433424743
3433429809
3433436217
3433441283
3433450377
3433456237
3433462767
3433466246
3433473388
3433476500
3433483947
3433488951
3433496032
3433500182
3433506285
3433511290
3433516722
3433523314
3433528807
3433533263
3433541442
3433548094
3433552794
3433558775
3433564147
3433568541
3433575377
3433580504
3433587889
3433594603
3433599425
3433605467
3433609129
3433616820
3433620299
3433626646
3433631712
3433639464
3433645018
3433649718
3433654112
3433660033
3433665892
3433671385
3433675719
3433682616
3433688963
3433694273
3433700316
3433704466
3433710997
3433716856
3433721373
3433727171
3433733824
3433737974
3433746275
3433750059
3433756956
3433761778
3433768003
3433772886
3433779234
3433785887
3433790647
3433797300
3433803587
3433811033
3433816587
3433824095
3433829771
3433834776
3433841429
3433849485
3433854673
3433862303
3433867857
3433874876
3433877134
3433888731
3433896543
3433900938
3433905698
3433913267
3433916929
3433924924
3433928159
3433936155
3433942136
3433946592
3433952451
3433958738
3433962400
3433970396
3433973875
3433982847
3433988523
3433995298
3434001096
3434005491
3434011411
3434018613
3434023496
3434030820
3434036863
3434043210
3434048276
3434054136
3434059446
3434066037
3434070920
3434078916
3434083310
3434090146
3434094785
3434101071
3434105893
3434111692
3434116635
3434124021
3434129331
3434136411
3434141416
3434146298
3434150754
3434157529
3434162106
3434168088
3434174130
3434180051
3434186093
3434191098
3434195615
3434202084
3434206662
3434213132
3434220334
3434224118
3434230344
3434235226
3434242184
3434247128
3434252560
3434257687
3434264157
3434269101
3434274960
3434281613
3434287289
3434295102
3434301144
3434306332
3434315976
3434321347
3434327572
3434334591
3434336911
3434346737
3434351010
3434358212
3434364010
3434372860
3434376950
3434383358
3434388241
3434394406
3434399350
3434405453
3434409786
3434415280
3434421383
3434427243
3434433041
3434439511
3434445675
3434451657
3434457333
3434465267
3434470394
3434478085
3434482723
3434488705
3434493404
3434500546
3434504330
3434514095
3434521725
3434527340
3434532223
3434538570
3434544491
3434549435
3434556576
3434561886
3434569881
3434572994
3434581234
3434585079
3434593502
3434597225
3434605587
3434610897
3434615658
3434622555
3434629451
3434634395
3434640621
3434647213
3434652889
3434658748
3434664180
3434670345
3434675045
3434680477
3434684993
3434691524
3434696102
3434702571
3434707332
3434713924
3434719539
3434723995
3434729061
3434737239
3434742732
3434748531
3434752864
3434759334
3434764339
3434770686
3434775081
3434781490
3434787959
3434794551
3434799007
3434804012
3434809993
3434813960
3434821162
3434827144
3434833858
3434838679
3434844478
3434848018
3434855525
3434858943
3434865718
3434870479
3434877070
3434882380
3434888789
3434893855
3434899775
3434904170
3434910335
3434916133
3434922236
3434928706
3434934016
3434940242
3434945308
3434951045
3434954585
3434961360
3434966548
3434976863
3434981074
3434987056
3434991572
3434996821
3435000849
3435006892
3435010981
3435017085
3435021052
3435028071
3435034175
3435038630
3435044489
3435050410
3435056452
3435063777
3435067500
3435074214
3435078181
3435086543
3435091120
3435098994
3435102961
3435110041
3435116755
3435120966
3435127131
3435131586
3435135981
3435142756
3435147700
3435154719
3435160395
3435165827
3435171198
3435176752
3435181574
3435187739
3435190912
3435198176
3435203913
3435210322
3435215632
3435220148
3435225763
3435232721
3435238581
3435243891
3435249689
3435256342
3435261408
3435267878
3435272882
3435277704
3435284052
3435290399
3435295099
3435301752
3435306330
3435312433
3435318354
3435323358
3435329279
3435332697
3435340875
3435347650
3435352472
3435358453
3435362848
3435367914
3435373407
3435378412
3435385797
3435390863
3435396295
3435401239
3435406549
3435411066
3435417291
3435422418
3435428949
3435435174
3435440362
3435447198
3435453180
3435457696
3435461175
3435469842
3435473688
3435482721
3435489923
3435495538
3435501397
3435507623
3435513055
3435519769
3435525262
3435531549
3435537042
3435544427
3435551385
3435556207
3435562432
3435569024
3435574639
3435581414
3435588433
3435593499
3435597161
3435605584
3435611871
3435616876
3435622796
3435629388
3435636346
3435642510
3435648187
3435655145
3435659966
3435667840
3435673028
3435679437
3435685845
3435693353
3435698174
3435703851
3435709161
3435714715
3435721368
3435728326
3435734002
3435740594
3435746087
3435751946
3435757683
3435766411
3435770501
3435777886
3435784478
3435789971
3435796563
3435803460
3435809563
3435813897
3435817437
3435825860
3435831963
3435837212
3435843499
3435847710
3435853630
3435858391
3435864800
3435873284
3435878289
3435881890
3435887810
3435891899
3435897026
3435902764
3435909722
3435913872
3435920891
3435925041
3435930535
3435936089
3435940605
3435946160
3435951409
3435957146
3435961784
3435967339
3435971916
3435977165
3435982842
3435988213
3435993156
3435998894
3436004204
3436008659
3436012138
3436020012
3436023491
3436030876
3436035637
3436042351
3436047783
3436053825
3436058647
3436064323
3436068840
3436075615
3436080131
3436086357
3436092888
3436097893
3436103935
3436108696
3436114494
3436118217
3436125175
3436128654
3436137260
3436140922
3436148002
3436153434
3436159050
3436163566
3436170402
3436174736
3436180839
3436184989
3436193229
3436198661
3436204277
3436209220
3436216056
3436221244
3436228752
3436235343
3436240959
3436247306
3436253105
3436259147
3436264091
3436271110
3436275321
3436282829
3436289481
3436293815
3436297477
3436305656
3436309257
3436317130
3436322379
3436330070
3436336173
3436341605
3436346610
3436351676
3436358024
3436363517
3436368766
3436376090
3436380851
3436388785
3436394034
3436400077
3436405082
3436414176
3436418692
3436428641
3436433036
3436439933
3436443106
3436449576
3436455985
3436461356
3436463126
3436472220
3436478385
3436483817
3436488517
3436492789
3436498404
3436503775
3436506888
3436515921
3436522147
3436526602
3436529959
3436538016
3436541617
3436548636
3436551688
3436558524
3436563773
3436570914
3436576895
3436581595
3436586417
3436592764
3436597647
3436603018
3436609488
3436614676
3436619009
3436624441
3436630301
3436635184
3436640982
3436644705
3436654471
3436660635
3436665213
3436668814
3436676748
3436683462
3436689505
3436691458
3436699759
3436705740
3436711172
3436716604
3436723135
3436728933
3436734793
3436739859
3436746084
3436752188
3436756704
3436762503
3436768362
3436772024
3436778494
3436783926
3436793142
3436795523
3436803823
3436807608
3436815054
3436820364
3436825125
3436831716
3436838369
3436843069
3436852773
3436858633
3436865041
3436871267
3436877676
3436884145
3436889150
3436895498
3436901479
3436908620
3436914968
3436921682
3436926870
3436934316
3436939321
3436947317
3436951711
3436957448
3436963369
3436969167
3436973623
3436977041
3436986562
3436992910
3436999013
3437004384
3437010671
3437015615
3437020070
3437025136
3437032155
3437037404
3437044057
3437049550
3437053884
3437060231
3437064687
3437070058
3437080007
3437090261
3437099904
3437109609
3437116384
3437124806
3437130727
3437134755
3437140981
3437147023
3437152272
3437156850
3437161916
3437167592
3437172902
3437177846
3437185109
3437190236
3437196584
3437201894
3437207509
3437213917
3437219167
3437223744
3437231190
3437237599
3437243519
3437247914
3437254017
3437258534
3437263966
3437269887
3437273427
3437281666
3437288075
3437293873
3437299672
3437304188
3437309315
3437315419
3437320363
3437326771
3437332203
3437337513
3437344593
3437349476
3437353932
3437359852
3437364186
3437371022
3437377003
3437383290
3437387867
3437395863
3437400624
3437406605
3437412586
