3184785548
3184796717
3184809229
3184819483
3184831080
3184842066
3184851771
3184861292
3184871119
3184881434
3184889795
3184901514
3184911280
3184922144
3184931971
3184942469
3184952173
3184963159
3184974939
3184987268
3184998010
3185008386
3185019129
3185028650
3185037927
3185048364
3185058801
3185069727
3185080286
3185090662
3185100183
3185109521
3185119836
3185131128
3185140039
3185151025
3185160119
3185170678
3185180200
3185190393
3185200402
3185210351
3185220788
3185230615
3185240869
3185249475
3185260156
3185268945
3185280969
3185289819
3185300927
3185310571
3185320397
3185330285
3185340173
3185350915
3185360925
3185370080
3185381310
3185390099
3185399682
3185409569
3185419030
3185429528
3185441247
3185450829
3185461571
3185470665
3185480919
3185488976
3185499596
3185510582
3185520897
3185530846
3185540734
3185549889
3185560021
3185570946
3185579857
3185590416
3185599144
3185609886
3185620079
3185629662
3185639488
3185649437
3185659996
3185670250
3185680626
3185684776
3185697166
3185711937
3185720116
3185732017
3185741173
3185752769
3185761558
3185772484
3185781456
3185792381
3185802024
3185810447
3185820518
3185832054
3185840477
3185853172
3185862388
3185869834
3185882102
3185891380
3185900901
3185912986
3185922569
3185931541
3185940940
3185951011
3185962669
3185972007
3185981712
3185990501
3186001853
3186011069
3186021750
3186030723
3186041709
3186050803
3186062522
3186071738
3186081138
3186090415
3186100913
3186110373
3186120505
3186132224
3186142417
3186151816
3186161399
3186170676
3186181113
3186190573
3186199668
3186211569
3186219138
3186231040
3186239218
3186250510
3186258200
3186269125
3186279257
3186292746
3186304404
3186312765
3186324606
3186334616
3186345236
3186358847
3186368368
3186380026
3186391134
3186401815
3186412802
3186422506
3186432943
3186443685
3186454245
3186467794
3186478170
3186485250
3186499227
3186509908
3186522909
3186533651
3186543905
3186554159
3186566671
3186576437
3186588094
3186598714
3186608602
3186619527
3186630330
3186640706
3186652730
3186664815
3186674642
3186684652
3186693807
3186705465
3186716512
3186727498
3186738362
3186748311
3186758748
3186769612
3186780232
3186791890
3186802815
3186812642
3186822286
3186832967
3186843160
3186854390
3186864888
3186875508
3186886922
3186896016
3186905904
3186918599
3186929219
3186938496
3186948079
3186957051
3186968403
3186978535
3186988972
3186999897
3187010640
3187021504
3187030964
3187040974
3187052021
3187062458
3187071797
3187081867
3187092304
3187102314
3187113789
3187125874
3187136616
3187146626
3187156940
3187166706
3187176899
3187186970
3187198444
3187208698
3187218952
3187228535
3187239399
3187249225
3187260456
3187271198
3187282123
3187291278
3187300190
3187310566
3187320514
3187331440
3187342731
3187352985
3187362873
3187373798
3187383747
3187395282
3187407001
3187416095
3187427326
3187437701
3187447711
3187456744
3187468585
3187478168
3187489825
3187500079
3187510211
3187519671
3187531268
3187542865
3187552569
3187562457
3187572162
3187581927
3187593463
3187605120
3187615924
3187627154
3187638018
3187648699
3187657672
3187671343
3187682025
3187693133
3187705035
3187716753
3187726885
3187738055
3187749590
3187759661
3187769060
3187780840
3187792010
3187803179
3187814654
3187824846
3187835772
3187846453
3187856524
3187865435
3187879534
3187888811
3187898699
3187910173
3187920916
3187933000
3187943682
3187954363
3187965532
3187976641
3187987444
3187997148
3188006853
3188017656
3188029253
3188038774
3188047807
3188058122
3188067155
3188076189
3188086198
3188095232
3188104570
3188112993
3188122392
3188129655
3188140092
3188148454
3188157731
3188167863
3188176896
3188186235
3188195390
3188204850
3188214311
3188222428
3188230912
3188239091
3188247697
3188254838
3188262712
3188271440
3188279191
3188288041
3188297135
3188305375
3188314652
3188323197
3188330888
3188339616
3188347916
3188356034
3188364762
3188374039
3188382340
3188391373
3188399674
3188407853
3188413346
3188425431
3188433732
3188441361
3188451554
3188460221
3188468400
3188476151
3188484574
3188491776
3188502152
3188508133
3188517594
3188526322
3188535050
3188543534
3188552201
3188560929
3188568863
3188577591
3188586197
3188594559
3188603043
3188610855
3188618240
3188626419
3188635819
3188643875
3188652420
3188660843
3188669815
3188676651
3188686172
3188695694
3188703262
3188712356
3188719131
3188728225
3188736587
3188744583
3188754348
3188762527
3188770584
3188776443
3188786514
3188792984
3188803115
3188811233
3188818618
3188826492
3188834854
3188842788
3188852859
3188859573
3188867263
3188876846
3188887832
3188896865
3188905105
3188914321
3188921706
3188930068
3188937392
3188945754
3188955093
3188964248
3188971938
3188980239
3188986526
3188996108
3189005080
3189015517
3189024001
3189033339
3189040053
3189050063
3189057937
3189065810
3189075393
3189082778
3189092849
3189100417
3189110121
3189117507
3189125930
3189134108
3189142897
3189151747
3189160048
3189167861
3189176467
3189184645
3189193434
3189202345
3189211256
3189219923
3189227370
3189236342
3189243727
3189252455
3189261305
3189269667
3189276686
3189285719
3189294264
3189301527
3189310988
3189318922
3189327589
3189334852
3189343763
3189351698
3189359449
3189368849
3189376783
3189384169
3189393568
3189400160
3189409437
3189417372
3189426649
3189434461
3189442701
3189452162
3189460707
3189467481
3189475355
3189484693
3189494398
3189501539
3189510816
3189518751
3189527418
3189537916
3189546644
3189555189
3189562940
3189571973
3189580030
3189588514
3189596754
3189605909
3189613904
3189622266
3189630933
3189639966
3189648938
3189657361
3189665174
3189672925
3189682447
3189691114
3189699048
3189706983
3189715100
3189723889
3189733289
3189742627
3189750318
3189759351
3189768567
3189777173
3189785779
3189794324
3189802197
3189810864
3189819226
3189827344
3189835767
3189843518
3189853345
3189862500
3189872449
3189880566
3189888867
3189898022
3189906201
3189913891
3189922558
3189930981
3189939892
3189948071
3189954724
3189963940
3189971875
3189979870
3189989087
3189996289
3190004528
3190011731
3190019787
3190027844
3190037426
3190046276
3190054333
3190063061
3190071301
3190079785
3190087231
3190097363
3190105114
3190113537
3190120739
3190129040
3190137646
3190146130
3190154247
3190163708
3190172314
3190180065
3190188549
3190197582
3190205761
3190213451
3190223522
3190231701
3190240123
3190248729
3190256359
3190264049
3190272472
3190281261
3190288463
3190295665
3190304943
3190312938
3190319530
3190328258
3190337413
3190345104
3190352428
3190361827
3190369396
3190378551
3190385692
3190396129
3190404002
3190412486
3190420177
3190427318
3190437144
3190446483
3190454356
3190462535
3190470897
3190480296
3190489207
3190495860
3190504344
3190511119
3190522471
3190530223
3190537425
3190546763
3190554149
3190561717
3190570994
3190579539
3190588389
3190594737
3190601573
3190612254
3190619822
3190629405
3190635996
3190645579
3190651621
3190661814
3190668589
3190677134
3190686717
3190695872
3190705882
3190713389
3190722239
3190729502
3190738108
3190745798
3190755747
3190763010
3190769785
3190778391
3190786936
3190795603
3190802805
3190811350
3190820994
3190828562
3190837351
3190843943
3190852732
3190863108
3190871592
3190881113
3190890268
3190896494
3190907846
3190914255
3190924204
3190932932
3190939707
3190950815
3190958383
3190967356
3190975229
3190984384
3190993540
3191000559
3191010019
3191018503
3191027841
3191033823
3191043283
3191051950
3191061105
3191070199
3191076730
3191085824
3191093515
3191101144
3191109811
3191119394
3191126047
3191134713
3191143747
3191152231
3191160287
3191168893
3191179818
3191188974
3191197091
3191205758
3191213327
3191221505
3191231088
3191239022
3191247506
3191257211
3191265145
3191275460
3191283944
3191295113
3191303719
3191311532
3191324471
3191333321
3191341622
3191351571
3191360848
3191369637
3191379281
3191386788
3191397225
3191404732
3191415108
3191423897
3191431893
3191439644
3191449166
3191457406
3191466805
3191475960
3191484932
3191493172
3191501656
3191509713
3191518685
3191527596
3191536446
3191544258
3191552681
3191561409
3191569893
3191577400
3191587654
3191595345
3191604317
3191612251
3191620247
3191628792
3191637703
3191646187
3191654060
3191663155
3191670296
3191678963
3191688301
3191697151
3191704719
3191713447
3191722053
3191730232
3191738228
3191746650
3191755745
3191764595
3191773018
3191781562
3191788093
3191796821
3191805427
3191813911
3191823677
3191830451
3191840034
3191847785
3191857002
3191864082
3191873237
3191882392
3191890693
3191897773
3191908332
3191914252
3191924445
3191931220
3191940742
3191946906
3191955939
3191963630
3191972846
3191981208
3191990424
3191998786
3192006904
3192014411
3192023627
3192032172
3192040717
3192048591
3192058478
3192065253
3192074775
3192082343
3192091437
3192101020
3192108039
3192117560
3192126654
3192136908
3192146674
3192152899
3192162665
3192170844
3192179083
3192187262
3192196051
3192204901
3192213263
3192220892
3192233038
3192239569
3192248358
3192255987
3192263556
3192272406
3192282049
3192289007
3192297308
3192307501
3192316351
3192323858
3192332220
3192339972
3192349920
3192358892
3192365423
3192373663
3192381048
3192390936
3192401434
3192408575
3192417425
3192426641
3192434332
3192443365
3192451788
3192461859
3192470159
3192478094
3192488287
3192496832
3192503118
3192512457
3192522344
3192530401
3192538824
3192547918
3192556097
3192565008
3192572698
3192581487
3192591741
3192600835
3192610174
3192618657
3192628057
3192635686
3192644353
3192652898
3192661321
3192671025
3192679143
3192686895
3192695562
3192703984
3192711675
3192720586
3192730168
3192738835
3192746831
3192755010
3192764287
3192773076
3192782353
3192790776
3192799138
3192807439
3192815434
3192823674
3192832646
3192841801
3192849858
3192858159
3192866582
3192874882
3192884038
3192893132
3192901616
3192910466
3192918461
3192926030
3192933415
3192941960
3192951603
3192959782
3192968388
3192977116
3192985112
3192993412
3193001957
3193010624
3193020085
3193028324
3193036991
3193043583
3193052677
3193062260
3193071781
3193080692
3193087284
3193097538
3193106205
3193113773
3193121891
3193132206
3193139408
3193148014
3193157596
3193165287
3193174930
3193183597
3193192447
3193199589
3193207279
3193217045
3193225589
3193233585
3193243656
3193252018
3193260807
3193270572
3193279972
3193287113
3193295780
3193304691
3193312198
3193320072
3193329532
3193338016
3193346866
3193355411
3193363284
3193372135
3193382205
3193391422
3193399844
3193408878
3193418582
3193426334
3193436649
3193443912
3193454227
3193465762
3193474185
3193483279
3193491214
3193500491
3193508792
3193516848
3193525943
3193533633
3193541873
3193550174
3193558657
3193567752
3193575564
3193585025
3193593814
3193601626
3193610415
3193618899
3193627017
3193634829
3193643252
3193651309
3193660525
3193669009
3193678103
3193685427
3193693850
3193701785
3193710635
3193719424
3193727724
3193735354
3193744448
3193752199
3193760134
3193765444
3193777651
3193788576
3193797487
3193805483
3193813601
3193821230
3193832338
3193840822
3193848940
3193857485
3193865602
3193874269
3193882631
3193892092
3193901247
3193908815
3193915346
3193922853
3193932863
3193940126
3193950624
3193957216
3193966860
3193975221
3193984682
3193993654
3194002626
3194009889
3194017885
3194026247
3194034059
3194044008
3194051088
3194059206
3194066896
3194076906
3194085451
3194092592
3194101625
3194110963
3194118654
3194126710
3194133302
3194140809
3194150514
3194159486
3194167848
3194175904
3194184510
3194192994
3194201356
3194210206
3194219300
3194227845
3194237184
3194244996
3194253236
3194263368
3194270875
3194278870
3194287354
3194295411
3194302308
3194310853
3194318848
3194326905
3194335450
3194343995
3194352479
3194360291
3194368531
3194377686
3194386170
3194394349
3194402649
3194411805
3194420044
3194428589
3194436890
3194445252
3194452576
3194461914
3194470337
3194477661
3194486817
3194496643
3194504578
3194513611
3194521851
3194530945
3194539307
3194546936
3194556519
3194566406
3194573914
3194581299
3194590576
3194598694
3194606934
3194615723
3194624206
3194632568
3194641296
3194649231
3194657104
3194665893
3194674988
3194682922
3194691101
3194699707
3194707397
3194716736
3194724853
3194733581
3194742370
3194750305
3194758606
3194765686
3194775268
3194781372
3194790588
3194798278
3194807861
3194817504
3194824157
3194833679
3194839904
3194849243
3194859557
3194868469
3194875671
3194882751
3194892455
3194899596
3194909484
3194920653
3194928588
3194936523
3194943908
3194953490
3194961303
3194970336
3194980407
3194987609
3194996642
3195003966
3195010985
3195019652
3195026549
3195035827
3195045775
3195053160
3195061156
3195070189
3195077636
3195084410
3195094969
3195104552
3195113951
3195120787
3195130126
3195137389
3195144713
3195156004
3195163634
3195171080
3195178954
3195188292
3195195555
3195203978
3195211119
3195217711
3195228575
3195235777
3195245177
3195252928
3195262449
3195270323
3195280150
3195287474
3195296934
3195304747
3195312010
3195321104
3195329466
3195338560
3195346556
3195354002
3195363279
3195370848
3195378721
3195385618
3195395140
3195403807
3195412474
3195420103
3195428648
3195437010
3195445554
3195454038
3195462461
3195469968
3195478391
3195488096
3195495176
3195503233
3195512083
3195519895
3195527830
3195535520
3195544614
3195553220
3195562009
3195571836
3195579343
3195588071
3195596738
3195602598
3195612973
3195619809
3195629331
3195638852
3195645871
3195655698
3195661863
3195671201
3195679441
3195690671
3195697751
3195707212
3195714780
3195720944
3195731503
3195739743
3195749021
3195756345
3195764401
3195773251
3195780942
3195788022
3195796994
3195806332
3195813840
3195820737
3195828732
3195837949
3195847409
3195855282
3195864987
3195872250
3195882626
3195890011
3195896481
3195906918
3195914547
3195924008
3195931698
3195939022
3195948971
3195957028
3195964352
3195973873
3195983334
3195990353
3195998837
3196007199
3196012936
3196021664
3196031979
3196040890
3196049740
3196057186
3196066158
3196074276
3196082333
3196090817
3196098934
3196107662
3196115963
3196124325
3196132503
3196141415
3196148983
3196157772
3196167660
3196175960
3196184322
3196192135
3196200252
3196208675
3196217647
3196226925
3196233699
3196242977
3196252498
3196261653
3196271846
3196280391
3196287593
3196296443
3196303829
3196311885
3196320857
3196329036
3196337703
3196344478
3196353938
3196362300
3196369930
3196379573
3196388484
3196395808
3196404353
3196412715
3196420589
3196430110
3196438167
3196447810
3196456233
3196464656
3196472163
3196480525
3196488948
3196497371
3196505244
3196513484
3196520991
3196529414
3196537104
3196547541
3196555903
3196563716
3196572077
3196581233
3196589900
3196597773
3196606440
3196615351
3196624140
3196632380
3196641169
3196645381
3196657160
3196667658
3196675471
3196684687
3196693598
3196700922
3196709711
3196718317
3196725703
3196734370
3196742670
3196751337
3196759455
3196768183
3196776606
3196784052
3196792048
3196800531
3196807612
3196817865
3196826471
3196834223
3196843866
3196851923
3196860712
3196870417
3196878839
3196887018
3196896479
3196904535
3196911981
3196920099
3196929010
3196937738
3196946466
3196954950
3196962213
3196969965
3196979852
3196987299
3196996210
3197003229
3197011774
3197021844
3197029840
3197038202
3197047601
3197055780
3197064630
3197073480
3197081537
3197090143
3197098993
3197107782
3197116815
3197126336
3197134271
3197141778
3197152276
3197160028
3197165948
3197173028
3197182305
3197189263
3197199700
3197209039
3197215936
3197225823
3197234673
3197241387
3197252984
3197260796
3197270867
3197279656
3197287591
3197297845
3197306145
3197314996
3197323296
3197331475
3197339410
3197349175
3197358147
3197367547
3197375115
3197384514
3197392205
3197401421
3197407769
3197419793
3197427117
3197435784
3197443657
3197451775
3197459709
3197468193
3197477227
3197485771
3197494377
3197502007
3197510369
3197517388
3197528984
3197537468
3197546623
3197554802
3197563042
3197570854
3197579094
3197589653
3197597099
3197607170
3197613457
3197622795
3197632316
3197641716
3197649956
3197658745
3197667106
3197675407
3197685112
3197694023
3197703056
3197711906
3197720695
3197728752
3197736747
3197745414
3197754814
3197762016
3197772514
3197780815
3197788139
3197797172
3197805168
3197812797
3197822746
3197829093
3197838493
3197846427
3197855094
3197863639
3197871268
3197880180
3197887443
3197895927
3197904349
3197913688
3197921378
3197931022
3197939139
3197947501
3197956901
3197966178
3197973868
3197982718
3197990470
3197998588
3198006278
3198015128
3198024161
3198033072
3198042350
3198049796
3198060782
3198071280
3198079520
3198088858
3198096854
3198109305
3198116507
3198124686
3198134757
3198144156
3198151724
3198160086
3198167654
3198175772
3198183768
3198193106
3198201651
3198209219
3198219534
3198225760
3198233694
3198244986
3198254324
3198261954
3198270132
3198278006
3198285635
3198295279
3198302786
3198313040
3198320852
3198330252
3198337027
3198345999
3198354483
3198363272
3198370413
3198381155
3198388174
3198395986
3198408682
3198416189
3198424978
3198434988
3198442983
3198452993
3198461599
3198469411
3198477834
3198485525
3198496206
3198504079
3198510549
3198520376
3198529775
3198537343
3198545827
3198553518
3198561635
3198569936
3198577443
3198585805
3198594228
3198602468
3198609975
3198618093
3198627736
3198637014
3198645253
3198654897
3198663442
3198671681
3198680715
3198689321
3198697499
3198705556
3198713551
3198722341
3198732045
3198740407
3198748525
3198757863
3198765187
3198774220
3198781117
3198791127
3198800893
3198808156
3198819142
3198827748
3198836903
3198845204
3198853810
3198861928
3198870106
3198879628
3198887562
3198896595
3198904103
3198913929
3198922657
3198930775
3198939442
3198947926
3198958241
3198965382
3198971058
3198981922
3198991139
3198998646
3199006825
3199017872
3199026356
3199035694
3199043446
3199051685
3199059681
3199070057
3199078663
3199085865
3199096424
3199104786
3199111011
3199121998
3199129444
3199137440
3199148670
3199155140
3199165821
3199174244
3199180713
3199190235
3199198353
3199206836
3199214832
3199223316
3199231189
3199239246
3199248645
3199256275
3199264698
3199272571
3199280628
3199291187
3199303089
3199324146
3199340625
3199352710
3199364368
3199372791
3199382251
3199391406
3199400012
3199409167
3199417407
3199424914
3199434314
3199443530
3199452014
3199460193
3199470080
3199478015
3199486438
3199498095
3199506030
3199515124
3199524279
3199532458
3199541369
3199549548
3199557910
3199566638
3199575671
3199584277
3199591601
3199600024
3199608080
3199615954
3199624865
3199633349
3199642382
3199651537
3199659228
3199667223
3199675646
3199685046
3199692858
3199701586
3199709582
3199717211
3199725146
3199734606
3199740771
3199750170
3199759203
3199767199
3199777086
3199783373
3199792589
3199801622
3199809008
3199816027
3199825975
3199833361
3199842455
3199852343
3199859056
3199868395
3199876207
3199885668
3199893419
3199900804
3199911669
3199918382
3199927538
3199935472
3199944872
3199952196
3199960558
3199968248
3199974474
3199984239
3199993516
3200002367
3200009691
3200017992
3200029832
3200036729
3200046251
3200054063
3200063707
3200072618
3200080919
3200090074
3200097032
3200106431
3200113816
3200123277
3200130845
3200139817
3200149339
3200157395
3200167039
3200177964
3200185777
3200196946
3200206529
3200215318
3200225144
3200233506
3200244187
3200253465
3200261216
3200270493
3200278977
3200285874
3200296006
3200304612
3200313279
3200322068
3200330369
3200339890
3200347764
3200355576
3200364487
3200374192
3200381943
3200391037
3200399338
3200408921
3200415451
3200425766
3200434006
3200441330
3200450913
3200458237
3200468735
3200476914
3200486679
3200493454
3200501572
3200509384
3200520126
3200529587
3200537705
3200545517
3200554062
3200562607
3200572311
3200579452
3200590988
3200600204
3200607956
3200616684
3200627487
3200635849
3200643295
3200654098
3200660568
3200668930
3200679123
3200686081
3200696151
3200704696
3200713180
3200719467
3200728439
3200737533
3200746017
3200755111
3200761276
3200770919
3200778732
3200789962
3200796920
3200807052
3200815841
3200823837
3200831344
3200842025
3200851913
3200860030
3200869735
3200875472
3200886092
3200892623
3200903548
3200910384
3200919417
3200926986
3200935592
3200943526
3200952376
3200960128
3200970138
3200978621
3200987227
3200995528
3201005416
3201014632
3201023299
3201032210
3201040877
3201050643
3201058089
3201069014
3201076094
3201084639
3201093062
3201100752
3201110030
3201116560
3201124861
3201133223
3201142500
3201150679
3201158736
3201167464
3201178450
3201185469
3201193343
3201203596
3201209334
3201219954
3201229048
3201236433
3201244185
3201255720
3201264021
3201272688
3201281599
3201289656
3201298140
3201307722
3201316511
3201324568
3201331709
3201341597
3201348921
3201358137
3201366865
3201374800
3201382612
3201391584
3201398481
3201408918
3201416609
3201426252
3201434431
3201442548
3201451398
3201459455
3201468732
3201476972
3201485212
3201493879
3201502607
3201511579
3201520124
3201528608
3201537458
3201544416
3201554365
3201563276
3201571821
3201579816
3201588422
3201595990
3201604108
3201611982
3201619977
3201628522
3201637494
3201645307
3201652997
3201659650
3201670453
3201678815
3201687421
3201695233
3201703290
3201710736
3201719769
3201727582
3201735211
3201745709
3201752301
3201762616
3201768903
3201780072
3201788800
3201795941
3201804242
3201810895
3201819379
3201830304
3201838543
3201846112
3201853863
3201863202
3201871319
3201879071
3201889691
3201896527
3201906048
3201913739
3201920391
3201928387
3201940838
3201948101
3201959027
3201965801
3201974163
3201982708
3201991619
3201998211
3202009075
3202016827
3202024822
3202032208
3202038128
3202048809
3202055950
3202065960
3202074871
3202084698
3202091961
3202098675
3202108929
3202117351
3202125225
3202133282
3202143291
3202151287
3202160564
3202170086
3202178325
3202187908
3202196331
3202207866
3202217022
3202223918
3202233745
3202242046
3202249736
3202260051
3202268840
3202277690
3202285198
3202293315
3202302165
3202310588
3202321330
3202330119
3202338725
3202345561
3202353252
3202360820
3202371196
3202378215
3202387614
3202395732
3202405131
3202411418
3202421977
3202429240
3202440471
3202448710
3202457011
3202463542
3202473124
3202481059
3202492167
3202504313
3202512614
3202520976
3202530009
3202537944
3202546977
3202556864
3202565714
3202574137
3202583232
3202591349
3202600077
3202608378
3202616862
3202625651
3202633585
3202642435
3202651896
3202661356
3202670878
3202680094
3202689066
3202697489
3202706034
3202715250
3202723734
3202731363
3202738993
3202748026
3202755777
3202763712
3202772745
3202779459
3202788981
3202797098
3202804972
3202813944
3202823526
3202832437
3202840494
3202848917
3202857523
3202865885
3202874918
3202883096
3202892069
3202900369
3202909281
3202916177
3202926309
3202934488
3202943277
3202954263
3202962259
3202970682
3202976907
3202985696
3202996011
3203003030
3203013345
3203022012
3203029947
3203038553
3203046487
3203056253
3203064370
3203070779
3203080240
3203087991
3203096780
3203106912
3203113992
3203122110
3203131692
3203138711
3203148294
3203157510
3203165811
3203175088
3203183084
3203191079
3203202187
3203208718
3203220071
3203229409
3203236611
3203244973
3203254067
3203262185
3203270608
3203279031
3203287026
3203293862
3203301613
3203311684
3203319253
3203329506
3203337441
3203346352
3203354897
3203363198
3203370156
3203381875
3203390175
3203397683
3203405251
3203415017
3203423439
3203430214
3203440041
3203448464
3203456398
3203465676
3203472267
3203483498
3203493446
3203504433
3203512795
3203521950
3203530983
3203539345
3203548012
3203557777
3203566505
3203573036
3203583412
3203594581
3203603187
3203611305
3203621559
3203629738
3203637367
3203645790
3203654274
3203664589
3203673683
3203679664
3203691993
3203699623
3203710304
3203718483
3203724830
3203735145
3203743568
3203752296
3203761817
3203770179
3203778663
3203788490
3203796058
3203804664
3203813758
3203822059
3203831336
3203839881
3203848670
3203855750
3203865150
3203873572
3203880897
3203889319
3203897193
3203906165
3203913856
3203925574
3203934363
3203941626
3203949866
3203959266
3203968848
3203976050
3203983924
3203993933
3204002295
3204010535
3204018653
3204029029
3204037940
3204046118
3204053198
3204063819
3204070777
3204078345
3204087317
3204095740
3204104651
3204112463
3204120764
3204128577
3204137549
3204146033
3204155005
3204163550
3204172034
3204180029
3204189429
3204199194
3204207434
3204217200
3204226660
3204234778
3204244238
3204253332
3204261999
3204270727
3204280249
3204288244
3204296301
3204307592
3204315954
3204325109
3204333471
3204342443
3204351415
3204360266
3204368871
3204377538
3204386266
3204394140
3204402990
3204411047
3204419897
3204429357
3204437597
3204446020
3204453344
3204462194
3204470373
3204479589
3204488134
3204496923
3204504003
3204513036
3204521154
3204529943
3204538610
3204547155
3204556249
3204563390
3204571874
3204580846
3204590123
3204597692
3204607213
3204616429
3204626866
3204634740
3204643529
3204652379
3204661290
3204669957
3204679601
3204688451
3204696935
3204706090
3204716222
3204724461
3204733006
3204740758
3204750462
3204759312
3204768162
3204777684
3204784825
3204793431
3204802464
3204809849
3204818516
3204827855
3204836583
3204845311
3204854100
3204862828
3204871190
3204880467
3204888951
3204897313
3204905796
3204914402
3204922825
3204931797
3204941380
3204949864
3204958348
3204967564
3204975926
3204985325
3204993626
3205002720
3205011448
3205019505
3205029209
3205037327
3205045200
3205054966
3205063328
3205071323
3205081272
3205089329
3205097874
3205106479
3205115024
3205123691
3205132053
3205140354
3205148899
3205158298
3205167026
3205176059
3205185032
3205195102
3205204624
3205212680
3205222568
3205231357
3205238925
3205249790
3205258029
3205265903
3205275485
3205284152
3205292636
3205300449
3205309421
3205318393
3205326816
3205334872
3205342258
3205351413
3205359531
3205367526
3205376376
3205384677
3205392612
3205401156
3205409274
3205420321
3205427890
3205435397
3205445346
3205454440
3205464022
3205474154
3205483432
3205493502
3205500827
3205511752
3205519259
3205527743
3205535739
3205545687
3205553378
3205561251
3205570223
3205578158
3205584933
3205592257
3205600680
3205610079
3205619051
3205627596
3205635165
3205642611
3205651827
3205660250
3205667635
3205675570
3205684847
3205692354
3205700533
3205708529
3205717318
3205726107
3205734530
3205742464
3205750277
3205759981
3205767489
3205776461
3205784639
3205793978
3205802278
3205811129
3205819063
3205827242
3205835787
3205843782
3205854158
3205862764
3205869844
3205879060
3205887300
3205896089
3205904817
3205913667
3205922212
3205930513
3205941194
3205950166
3205959016
3205967927
3205978059
3205987215
3205996492
3206004426
3206013765
3206022004
3206029573
3206038423
3206046602
3206054658
3206064241
3206072541
3206081330
3206089814
3206099702
3206109407
3206118196
3206126985
3206135224
3206143647
3206151887
3206159944
3206169953
3206178559
3206186982
3206194734
3206203156
3206210908
3206217988
3206227448
3206235749
3206243378
3206251374
3206260407
3206267670
3206276581
3206283600
3206293122
3206300812
3206307038
3206318268
3206326630
3206334137
3206341340
3206350922
3206358429
3206366059
3206374482
3206382965
3206391327
3206398590
3206408722
3206416596
3206425446
3206433563
3206441437
3206449494
3206458222
3206466034
3206474823
3206482391
3206491913
3206499420
3206508026
3206516083
3206523224
3206533661
3206543182
3206552399
3206560516
3206570587
3206579132
3206587005
3206595062
3206603180
3206611847
3206619415
3206627289
3206636078
3206643890
3206652130
3206661163
3206669647
3206677459
3206684967
3206693695
3206701446
3206709869
3206718719
3206727020
3206735015
3206743682
3206751556
3206759673
3206768646
3206777007
3206787017
3206795074
3206803558
3206810699
3206818938
3206826324
3206835052
3206843291
3206851531
3206858367
3206867950
3206877410
3206885589
3206893340
3206901519
3206909453
3206918792
3206926238
3206935210
3206942962
3206951506
3206959075
3206966704
3206976226
3206984404
3206993010
3206999663
3207008452
3207017852
3207026457
3207034026
3207042204
3207052031
3207058257
3207067656
3207076506
3207083159
3207092131
3207100920
3207107634
3207117094
3207125700
3207132780
3207141142
3207149443
3207158720
3207166777
3207173735
3207182646
3207190459
3207200102
3207209013
3207218596
3207226957
3207235746
3207244841
3207251738
3207261137
3207269804
3207278532
3207286161
3207294645
3207302397
3207310942
3207318388
3207327909
3207335905
3207345671
3207353422
3207362394
3207370512
3207377470
3207386320
3207394865
3207403654
3207411771
3207420744
3207428861
3207436918
3207444059
3207451871
3207462736
3207471647
3207479642
3207488492
3207496183
3207504728
3207512845
3207521329
3207530179
3207537626
3207545377
3207553678
3207560941
3207568692
3207579679
3207586942
3207594449
3207602445
3207609342
3207617826
3207625699
3207635953
3207643155
3207648953
3207659024
3207666776
3207673856
3207682095
3207691556
3207699185
3207707913
3207716336
3207723660
3207730496
3207738980
3207745877
3207755582
3207764432
3207771329
3207779629
3207786404
3207795376
3207804898
3207812954
3207822476
3207829190
3207836941
3207846219
3207853421
3207862393
3207871975
3207879544
3207886990
3207895352
3207902615
3207910672
3207918240
3207927090
3207935330
3207943691
3207951504
3207957852
3207966396
3207973965
3207984341
3207991787
3207999600
3208008816
3208015469
3208024136
3208031582
3208042629
3208050259
3208057705
3208066799
3208074062
3208082912
3208090359
3208099270
3208107509
3208115444
3208124355
3208131862
3208139431
3208149013
3208158046
3208165310
3208173671
3208182338
3208189785
3208197658
3208205837
3208214626
3208222866
3208230617
3208239162
3208246425
3208254054
3208262966
3208272609
3208281459
3208288783
3208296657
3208303920
3208311549
3208320155
3208328944
3208336696
3208344752
3208354091
3208362392
3208371425
3208379603
3208389003
3208396754
3208405116
3208412990
3208421229
3208430262
3208439601
3208447963
3208456935
3208467555
3208476649
3208485621
3208494471
3208502467
3208512355
3208520106
3208528041
3208535792
3208544093
3208551478
3208561610
3208569788
3208578028
3208586634
3208595057
3208602930
3208610682
3208619715
3208627650
3208635340
3208642664
3208651270
3208659083
3208667567
3208676478
3208684656
3208692103
3208699793
3208710840
3208719629
3208729090
3208738245
3208747339
3208755945
3208764002
3208772303
3208781580
3208790857
3208799646
3208809595
3208816736
3208826685
3208835047
3208843286
3208850916
3208860315
3208869898
3208878381
3208887293
3208894556
3208903223
3208911584
3208920557
3208928491
3208936731
3208944726
3208953699
3208961938
3208971277
3208979516
3208988428
3208995324
3209004602
3209013147
3209021814
3209029260
3209038110
3209049646
3209059655
3209067102
3209076318
3209085412
3209094140
3209102868
3209111596
3209121667
3209130334
3209139733
3209147973
3209157128
3209165368
3209174279
3209181970
3209190270
3209198449
3209207970
3209215966
3209225365
3209232995
3209241967
3209250207
3209258874
3209267846
3209276635
3209284813
3209293175
3209302880
3209311181
3209319054
3209327965
3209336571
3209346886
3209355248
3209363610
3209372643
3209382164
3209391075
3209400231
3209408409
3209417870
3209426842
3209435448
3209443993
3209452294
3209462547
3209471092
3209481041
3209489037
3209498558
3209506920
3209516319
3209525169
3209534264
3209542503
3209550987
3209558861
3209567345
3209575828
3209585533
3209593895
3209603599
3209611351
3209619041
3209627708
3209636009
3209645530
3209653587
3209662986
3209670494
3209679710
3209687278
3209696373
3209704856
3209713096
3209721885
3209730003
3209738914
3209747276
3209755088
3209763999
3209772971
3209781577
3209790427
3209798057
3209804649
3209813560
3209820823
3209827842
3209835410
3209842185
3209848777
3209856834
3209864280
3209871665
3209878318
3209885093
3209892417
3209899314
3209906577
3209914206
3209922202
3209928122
3209936118
3209941733
3209949790
3209957663
3209966574
3209974936
3209980551
3209990744
3209997275
3210005393
3210013022
3210021628
3210030844
3210039328
3210047141
3210054282
3210062338
3210070700
3210079733
3210086569
3210093100
3210096701
3210109152
3210116965
3210126242
3210132773
3210140585
3210146933
3210154135
3210162253
3210168478
3210177084
3210185080
3210192221
3210199484
3210206808
3210212607
3210223959
3210231588
3210239523
3210246115
3210253927
3210260275
3210266439
3210273031
3210282431
3210289022
3210296102
3210302877
3210310995
3210316915
3210323934
3210332113
3210340170
3210345663
3210354269
3210362081
3210369894
3210377096
3210385885
3210392782
3210399252
3210407491
3210414999
3210421041
3210427328
3210435995
3210444845
3210451803
3210460103
3210466817
3210473104
3210482870
3210489461
3210497457
3210504598
3210512960
3210521688
3210529439
3210536702
3210544576
3210552449
3210561666
3210568502
3210576680
3210584188
3210592671
3210601522
3210608785
3210615438
3210623738
3210630208
3210639668
3210646810
3210653279
3210660420
3210667012
3210672871
3210680928
3210687825
3210694783
3210703267
3210709615
3210717427
3210722493
3210730122
3210736836
3210745015
3210751790
3210759724
3210765584
3210774006
3210781392
3210787129
3210797139
3210803914
3210809895
3210817708
3210823262
3210831318
3210837971
3210846821
3210854756
3210862446
3210870625
3210875813
3210884419
3210890217
3210900898
3210907856
3210913899
3210920307
3210928669
3210934895
3210942646
3210952656
3210959248
3210966999
3210974506
3210979267
3210990803
3210998188
3211006611
3211015095
3211022907
3211027973
3211034931
3211042988
3211051044
3211059162
3211069416
3211075519
3211084064
3211091327
3211099994
3211107197
3211116047
3211123188
3211132221
3211140644
3211147907
3211155048
3211162555
3211171711
3211179096
3211185688
3211195636
3211202899
3211211261
3211218707
3211226520
3211235736
3211244220
3211251666
3211260944
3211267413
3211274860
3211284198
3211293170
3211300006
3211307147
3211315387
3211322223
3211330340
3211338824
3211347003
3211353534
3211361407
3211368182
3211377093
3211383502
3211391070
3211398822
3211406695
3211413592
3211420001
3211426226
3211433795
3211440875
3211448748
3211455951
3211465533
3211473956
3211481463
3211489520
3211496905
3211505389
3211513751
3211520831
3211527178
3211534197
3211541155
3211547076
3211554949
3211561297
3211570391
3211577532
3211584246
3211591082
3211597674
3211604693
3211612688
3211621111
3211629595
3211636370
3211643694
3211650164
3211656573
3211662920
3211670916
3211678728
3211686114
3211694231
3211701983
3211709490
3211717608
3211725969
3211733416
3211740923
3211748857
3211756487
3211764543
3211772173
3211779680
3211788652
3211797380
3211805681
3211813188
3211820940
3211828325
3211835588
3211843889
3211850786
3211858415
3211865190
3211873064
3211880754
3211888139
3211895280
3211903581
3211911333
3211920488
3211927324
3211934465
3211940874
3211947343
3211954118
3211963212
3211970048
3211976579
3211983293
3211989885
3211997636
3212004350
3212012040
3212020402
3212026628
3212034196
3212040239
3212047136
3212053056
3212060136
3212069596
3212077653
3212085160
3212092301
3212099687
3212106523
3212113359
3212120194
3212128556
3212135148
3212142289
3212149491
3212155656
3212163041
3212170609
3212177689
3212184953
3212192643
3212199540
3212206193
3212213883
3212220719
3212227555
3212236588
3212246232
3212256852
3212267350
3212275223
3212286210
3212294999
3212303849
3212312394
3212318558
3212327408
3212334427
3212343705
3212351700
3212360001
3212366410
3212374039
3212380204
3212388870
3212395279
3212402481
3212410599
3212419632
3212426529
3212435013
3212442154
3212449539
3212456436
3212463944
3212472794
3212481033
3212486526
3212498733
3212506302
3212514053
3212523941
3212530899
3212538467
3212546890
3212553238
3212562698
3212570205
3212575821
3212586746
3212594009
3212601089
3212608596
3212615921
3212624344
3212631424
3212637649
3212646804
3212653945
3212662551
3212668899
3212677627
3212686355
3212692031
3212699356
3212709121
3212715957
3212722915
3212729873
3212736709
3212743301
3212750625
3212757461
3212765945
3212774612
3212779617
3212787551
3212794387
3212800063
3212807143
3212813918
3212823012
3212828506
3212834548
3212841872
3212849257
3212856460
3212863418
3212873183
3212880080
3212886184
3212892836
3212900649
3212907241
3212913161
3212922011
3212929885
3212936660
3212943557
3212949111
3212956435
3212964064
3212970290
3212979506
3212986281
3212993788
3213000319
3213008071
3213014723
3213021010
3213027236
3213034743
3213043898
3213049696
3213058119
3213063918
3213072218
3213078261
3213086195
3213092787
3213100783
3213107741
3213112929
3213121901
3213126906
3213132948
3213142164
3213149061
3213156813
3213163527
3213171889
3213179335
3213189955
3213198561
3213206068
3213213881
3213221022
3213226393
3213234816
3213242079
3213248915
3213257399
3213264845
3213271437
3213280226
3213287245
3213295667
3213303236
3213312818
3213319715
3213328199
3213336134
3213342298
3213350355
3213356825
3213365980
3213373182
3213379835
3213386488
3213394056
3213402418
3213408521
3213417310
3213424085
3213432874
3213439588
3213447095
3213455030
3213460889
3213468946
3213476758
3213482862
3213489393
3213496717
3213502759
3213511670
3213518140
3213526624
3213533582
3213539136
3213547254
3213555188
3213560865
3213566846
3213575574
3213582044
3213590039
3213596326
3213603894
3213609204
3213617078
3213623609
3213632825
3213640332
3213648633
3213656018
3213663403
3213672498
3213681592
3213687634
3213697644
3213703442
3213711804
3213715527
3213725903
3213732007
3213738904
3213747143
3213754162
3213760022
3213768506
3213774121
3213782116
3213789074
3213795788
3213804821
3213810376
3213819104
3213824109
3213831799
3213839733
3213846508
3213855053
3213862683
3213870251
3213876599
3213882397
3213888928
3213895947
3213902722
3213912792
3213919384
3213925610
3213932934
3213939465
3213947033
3213953259
3213959972
3213969799
3213975353
3213983776
3213989147
3213996532
3214004467
3214011181
3214020214
3214026562
3214034313
3214040111
3214048229
3214054272
3214060619
3214069164
3214078808
3214086803
3214093273
3214098888
3214107006
3214114818
3214121349
3214129100
3214136608
3214144298
3214153026
3214158031
3214165966
3214174327
3214182628
3214189952
3214196666
3214202709
3214210704
3214217235
3214226695
3214234691
3214242626
3214249706
3214257945
3214264537
3214271800
3214279857
3214286327
3214294505
3214302562
3214310374
3214318370
3214326304
3214334239
3214341380
3214349254
3214357310
3214364940
3214371043
3214378550
3214386607
3214393321
3214401439
3214408763
3214415416
3214423899
3214431041
3214436961
3214442332
3214451853
3214458140
3214465220
3214474131
3214481272
3214488047
3214495127
3214504283
3214512583
3214519541
3214526072
3214533946
3214541880
3214547129
3214556040
3214561839
3214570444
3214578074
3214584788
3214591929
3214598948
3214604990
3214614207
3214621958
3214629160
3214636973
3214642710
3214649485
3214656504
3214664316
3214673227
3214678782
3214688303
3214694712
3214702158
3214708567
3214715586
3214723948
3214731699
3214739817
3214745920
3214753672
3214759043
3214766916
3214772837
3214781809
3214789438
3214797495
3214804086
3214811472
3214817880
3214824228
3214832529
3214839853
3214848581
3214854868
3214860849
3214868234
3214876352
3214882211
3214890024
3214896921
3214904672
3214911508
3214916574
3214925729
3214931589
3214937997
3214946603
3214953622
3214961618
3214967782
3214974374
3214982248
3214987008
3214997262
3215003854
3215012155
3215020333
3215026376
3215036508
3215044259
3215051339
3215060739
3215069772
3215077767
3215084542
3215093087
3215098519
3215106027
3215116036
3215123788
3215135201
3215145333
3215152596
3215159432
3215167367
3215175729
3215182931
3215190377
3215199654
3215206917
3215214181
3215221993
3215229256
3215237008
3215245370
3215252816
3215260689
3215267891
3215275277
3215281991
3215289620
3215298897
3215306710
3215314278
3215322091
3215329598
3215336678
3215345528
3215351387
3215360421
3215367012
3215374031
3215382271
3215389412
3215395577
3215404183
3215411385
3215418099
3215428536
3215435677
3215445076
3215455269
3215463875
3215474617
3215485847
3215493660
3215500435
3215508125
3215514412
3215524544
3215530342
3215540413
3215548347
3215555183
3215562874
3215569648
3215576912
3215583381
3215591621
3215597847
3215605964
3215612190
3215620124
3215625984
3215634285
3215642585
3215651008
3215659004
3215666572
3215674934
3215684028
3215691352
3215699775
3215705879
3215714424
3215721076
3215729682
3215737983
3215743598
3215750312
3215759101
3215766608
3215774787
3215781562
3215790473
3215797675
3215804938
3215811835
3215822639
3215830024
3215836921
3215843207
3215849921
3215857734
3215864875
3215873725
3215879828
3215885199
3215893561
3215900275
3215908088
3215913886
3215922553
3215928229
3215937384
3215942755
3215951972
3215959052
3215964606
3215973029
3215982367
3215989691
3215998053
3216003974
3216010748
3216018622
3216025092
3216032782
3216040839
3216051764
3216059393
3216068976
3216075201
3216083685
3216091254
3216099066
3216108588
3216115851
3216122870
3216132269
3216136419
3216146979
3216155218
3216162604
3216169684
3216178656
3216186163
3216192572
3216200018
3216208441
3216215521
3216221746
3216228949
3216236883
3216245550
3216251165
3216260015
3216265386
3216274725
3216280828
3216287481
3216295049
3216301946
3216308538
3216315130
3216325262
3216331304
3216337652
3216345281
3216352117
3216359808
3216364935
3216373846
3216383550
3216389654
3216396307
3216404424
3216410772
3216416814
3216425603
3216431096
3216441533
3216447332
3216455510
3216462102
3216471929
3216478521
3216487188
3216494756
3216504216
3216513738
3216520757
3216526616
3216537542
3216544011
3216553289
3216559880
3216566960
3216573552
3216582219
3216589360
3216597539
3216605901
3216614812
3216622502
3216629887
3216637029
3216645207
3216651982
3216658818
3216666631
3216673650
3216679936
3216686284
3216691899
3216698918
3216707219
3216714604
3216721867
3216730412
3216739323
3216748784
3216757023
3216765934
3216773930
3216781987
3216790776
3216798283
3216805851
3216813298
3216821171
3216828312
3216836735
3216844303
3216852909
3216860234
3216867497
3216875431
3216884037
3216894657
3216902653
3216909733
3216916691
3216927921
3216936466
3216947453
3216954777
3216962467
3216970768
3216976505
3216984501
3216991032
3216999637
3217009403
3217017643
3217024723
3217031437
3217039005
3217047367
3217056217
3217063114
3217071598
3217076725
3217084842
3217091617
3217097904
3217107059
3217113102
3217122623
3217130436
3217137882
3217146671
3217155155
3217163455
3217171756
3217179019
3217184940
3217194827
3217201419
3217208133
3217213870
3217223087
3217230899
3217241885
3217248782
3217258853
3217268924
3217275088
3217285648
3217294376
3217302371
3217307986
3217316348
3217322635
3217330630
3217338809
3217344424
3217354739
3217360660
3217369082
3217377322
3217384707
3217390445
3217400882
3217408084
3217416873
3217422427
3217430911
3217437197
3217445010
3217450686
3217460391
3217468936
3217476565
3217485903
3217494387
3217506350
3217514956
3217521670
3217531863
3217541506
3217549807
3217556155
3217565554
3217571108
3217580202
3217588991
3217595949
3217603457
3217610354
3217617007
3217625735
3217631594
3217641237
3217648623
3217655214
3217664126
3217669252
3217676027
3217683840
3217692019
3217699709
3217708132
3217714418
3217720705
3217727907
3217735109
3217744142
3217751100
3217759706
3217766237
3217773439
3217781923
3217789369
3217797975
3217804872
3217810976
3217821596
3217829164
3217838869
3217847047
3217853273
3217861452
3217869630
3217875917
3217882387
3217890016
3217898805
3217905275
3217913637
3217922120
3217930543
3217938051
3217946107
3217953431
3217959108
3217968446
3217975404
3217982728
3217991212
3217997926
3218004457
3218010987
3218018373
3218024903
3218031922
3218040528
3218047608
3218053956
3218063722
3218069947
3218078370
3218084290
3218092896
3218101014
3218107667
3218113709
3218121339
3218127992
3218135621
3218141969
3218149110
3218161256
3218169190
3218175721
3218182984
3218189393
3218196961
3218203614
3218210999
3218219605
3218226868
3218235596
3218243836
3218249451
3218259339
3218269043
3218280213
3218287293
3218296387
3218301697
3218310608
3218317566
3218325623
3218335388
3218343323
3218350647
3218357178
3218364075
3218370850
3218377258
3218386719
3218393311
3218400269
3218407776
3218414307
3218420349
3218426697
3218435120
3218443726
3218450500
3218457458
3218464111
3218470520
3218477966
3218484558
3218492615
3218501770
3218507934
3218515564
3218521484
3218528991
3218536316
3218548095
3218555053
3218562011
3218571411
3218578003
3218586853
3218595153
3218604248
3218611206
3218617431
3218625854
3218632690
3218639404
3218646057
3218652832
3218662048
3218668823
3218675231
3218683593
3218690185
3218697875
3218704406
3218711364
3218720336
3218726012
3218731872
3218741393
3218748107
3218755859
3218764892
3218773559
3218780334
3218787292
3218795226
3218801818
3218808532
3218818114
3218827270
3218834716
3218840209
3218849852
3218857482
3218867675
3218875304
3218882323
3218890380
3218898925
3218907653
3218915282
3218922911
3218933776
3218940795
3218949217
3218958129
3218967284
3218975218
3218983458
3218993773
3219001524
3219010924
3219020567
3219026366
3219036498
3219044798
3219052184
3219060850
3219068846
3219077818
3219085264
3219094542
3219101195
3219108641
3219115111
3219123167
3219131224
3219137388
3219143431
3219150633
3219158201
3219164183
3219173643
3219180174
3219187864
3219194822
3219202635
3219209532
3219216795
3219223631
3219230955
3219239805
3219246519
3219253599
3219261167
3219267881
3219274839
3219283567
3219291013
3219297666
3219308714
3219315916
3219323118
3219332578
3219339353
3219346433
3219355283
3219361997
3219367673
3219376218
3219382261
3219390073
3219402463
3219409727
3219417417
3219424924
3219432554
3219441037
3219448789
3219454831
3219462583
3219471067
3219477414
3219485715
3219493650
3219501584
3219508786
3219516050
3219524045
3219530454
3219538816
3219545529
3219556027
3219562680
3219571591
3219579465
3219586240
3219593991
3219600827
3219606992
3219613889
3219622189
3219631406
3219638303
3219644894
3219652341
3219658871
3219667294
3219676999
3219687497
3219694211
3219703366
3219710202
3219717953
3219728756
3219737301
3219744687
3219751278
3219759396
3219767025
3219777279
3219785031
3219793820
3219801571
3219808529
3219815304
3219823788
3219830075
3219838253
3219845028
3219851437
3219861386
3219867794
3219877255
3219884213
3219891476
3219902279
3219913143
3219922665
3219933529
3219940365
3219948299
3219955440
3219965328
3219972225
3219981563
3219987789
3219994747
3220002926
3220008114
3220016537
3220023861
3220032894
3220042232
3220049495
3220057003
3220063411
3220072200
3220079280
3220088131
3220096981
3220103878
3220110164
3220119503
3220127437
3220134090
3220141597
3220149837
3220157649
3220164058
3220171932
3220181087
3220188228
3220194087
3220202144
3220210689
3220217952
3220225520
3220234248
3220240718
3220249446
3220254939
3220264400
3220271968
3220280452
3220287349
3220295894
3220304011
3220309688
3220317134
3220325679
3220333735
3220339168
3220348018
3220356135
3220363459
3220370784
3220377925
3220384822
3220394343
3220400813
3220408869
3220415766
3220422541
3220430964
3220440364
3220448725
3220454463
3220462580
3220469233
3220476679
3220481745
3220490595
3220498896
3220506159
3220514643
3220521784
3220528620
3220540339
3220547907
3220555048
3220561701
3220568659
3220574641
3220582880
3220589106
3220596186
3220604487
3220611078
3220619074
3220628168
3220636957
3220645014
3220653620
3220659845
3220667963
3220676874
3220683710
3220691706
3220701288
3220708124
3220715876
3220723505
3220733576
3220740961
3220747797
3220757013
3220764520
3220771173
3220779352
3220785333
3220792413
3220800226
3220807428
3220815485
3220822076
3220829950
3220836176
3220842645
3220849115
3220856256
3220862237
3220870477
3220879693
3220886041
3220892328
3220898675
3220907220
3220912652
3220921441
3220929559
3220936273
3220942926
3220950616
3220956231
3220963800
3220971246
3220976922
3220986016
3220994195
3221000848
3221008233
3221014886
3221018243
3221028436
3221035638
3221043084
3221051446
3221057366
3221063226
3221071649
3221077813
3221084710
3221094903
3221101251
3221106866
3221114739
3221120965
3221128777
3221135369
3221142083
3221152825
3221156792
3221166436
3221172845
3221179497
3221186089
3221192742
3221202386
3221211785
3221217400
3221224663
3221233025
3221239007
3221248711
3221257317
3221264397
3221272454
3221280388
3221288506
3221296807
3221304497
3221311150
3221322502
3221330498
3221340142
3221348137
3221356011
3221361015
3221374870
3221383598
3221389458
3221397881
3221406303
3221415154
3221422173
3221430412
3221437553
3221445671
3221454155
3221460869
3221470512
3221480217
3221491325
3221499077
3221506767
3221516227
3221522087
3221531181
3221537773
3221545707
3221551811
3221560600
3221568962
3221577079
3221584343
3221591972
3221601249
3221609123
3221617607
3221624015
3221632316
3221638053
3221646293
3221653129
3221659721
3221667533
3221674125
3221682365
3221688712
3221697990
3221705924
3221713126
3221718864
3221727653
3221733146
3221742362
3221750846
3221757865
3221766593
3221775077
3221784293
3221791617
3221799857
3221808280
3221816520
3221822074
3221829093
3221838492
3221845511
3221851066
3221861502
3221868644
3221875785
3221882437
3221891532
3221899771
3221907157
3221913809
3221922537
3221929129
3221935477
3221943472
3221951224
3221956778
3221964896
3221971365
3221979178
3221987418
3221994803
3222001761
3222009268
3222015860
3222024039
3222034476
3222043875
3222053763
3222063895
3222072012
3222079214
3222087576
3222095511
3222102163
3222110098
3222117544
3222124930
3222132864
3222139517
3222147879
3222154409
3222162344
3222169912
3222176809
3222184072
3222192373
3222199270
3222206228
3222213247
3222220205
3222227835
3222234670
3222243460
3222250784
3222260488
3222268667
3222275442
3222283865
3222291860
3222299123
3222306814
3222316824
3222326528
3222334096
3222341665
3222349172
3222356740
3222364675
3222372915
3222380178
3222387136
3222394460
3222402334
3222409597
3222417837
3222425893
3222433278
3222440481
3222447683
3222455251
3222462880
3222470144
3222477529
3222485585
3222493093
3222500173
3222507314
3222510060
3222524037
3222533315
3222540090
3222549184
3222556142
3222562795
3222570424
3222579030
3222585011
3222593434
3222602345
3222608083
3222616750
3222624440
3222631398
3222636769
3222646474
3222654164
3222661244
3222668141
3222676747
3222682545
3222691029
3222696522
3222705617
3222713795
3222719899
3222725880
3222733326
3222738820
3222746083
3222751881
3222760853
3222767872
3222774098
3222782704
3222789601
3222796437
3222804127
3222810841
3222819813
3222826222
3222833241
3222841358
3222845997
3222854115
3222861744
3222868458
3222877613
3222884937
3222891956
3222898182
3222906178
3222912891
3222919300
3222925465
3222935169
3222942371
3222951343
3222959339
3222965870
3222976002
3222982288
3222991382
3222997974
3223006397
3223012256
3223019947
3223027637
3223035206
3223044422
3223053333
3223058948
3223067371
3223076160
3223081836
3223088001
3223096729
3223105945
3223112110
3223118823
3223128650
3223135242
3223141773
3223148364
3223154590
3223162891
3223168689
3223177417
3223182971
3223191272
3223198535
3223205188
3223212390
3223222156
3223228564
3223237720
3223244983
3223255359
3223264270
3223270557
3223278857
3223287158
3223292895
3223301684
3223307239
3223316577
3223322192
3223333239
3223339648
3223347583
3223355456
3223365222
3223370959
3223379687
3223387439
3223395434
3223401904
3223408190
3223414599
3223422412
3223430651
3223436633
3223445910
3223454028
3223460742
3223469409
3223478381
3223485339
3223494555
3223502123
3223513049
3223520434
3223527514
3223534960
3223542345
3223548815
3223556994
3223564501
3223571520
3223579821
3223586168
3223595507
3223603197
3223609972
3223617846
3223626452
3223631762
3223639696
3223646654
3223654467
3223662645
3223671617
3223679186
3223687670
3223695238
3223702379
3223709276
3223716661
3223724291
3223731920
3223739427
3223746813
3223754503
3223762315
3223769701
3223776109
3223786913
3223793260
3223801622
3223808824
3223816881
3223824205
3223831163
3223838426
3223846544
3223854722
3223861497
3223869249
3223876085
3223883531
3223889879
3223897630
3223905504
3223912767
3223919725
3223925950
3223931138
3223940538
3223946824
3223953355
3223964097
3223971360
3223979051
3223988084
3223997911
3224004380
3224011888
3224020188
3224027207
3224034226
3224044175
3224051682
3224058091
3224065659
3224074204
3224084275
3224089707
3224096604
3224105515
3224112412
3224120225
3224127000
3224134751
3224143235
3224149033
3224156113
3224163132
3224171494
3224177170
3224185593
3224191392
3224200425
3224207749
3224215806
3224222153
3224228501
3224236924
3224243638
3224250840
3224257492
3224264145
3224272080
3224279404
3224284653
3224292893
3224300705
3224309067
3224315293
3224324204
3224329941
3224337998
3224343430
3224352158
3224359543
3224366013
3224373703
3224382614
3224389938
3224395493
3224403671
3224413376
3224420273
3224427597
3224436508
3224442917
3224451095
3224459457
3224467697
3224474838
3224482284
3224491623
3224500595
3224507065
3224514572
3224522812
3224529342
3224538131
3224545334
3224553085
3224559982
3224566452
3224575546
3224583602
3224590621
3224597274
3224605941
3224611923
3224619918
3224627304
3224635482
3224644454
3224650863
3224657638
3224664657
3224671127
3224679061
3224687423
3224694930
3224702987
3224708480
3224715804
3224721542
3224729232
3224736739
3224742232
3224750960
3224758468
3224765060
3224770003
3224778975
3224785689
3224792159
3224800948
3224807418
3224815169
3224821090
3224827865
3224835372
3224844405
3224852279
3224860762
3224866805
3224873091
3224879500
3224887374
3224895796
3224903731
3224914229
3224919966
3224931319
3224937056
3224945601
3224952620
3224960005
3224969710
3224976119
3224982100
3224990950
3224997542
3225004134
3225013167
3225018843
3225028731
3225036116
3225042403
3225048933
3225056929
3225064253
3225073897
3225084456
3225092085
3225100874
3225107893
3225116194
3225126936
3225132368
3225141462
3225150496
3225157881
3225167219
3225175215
3225184492
3225193891
3225201399
3225209699
3225218244
3225225752
3225233503
3225241926
3225249494
3225257612
3225265363
3225273298
3225281233
3225287885
3225295698
3225303022
3225310346
3225317121
3225325605
3225333112
3225340131
3225348554
3225355817
3225363691
3225371625
3225379133
3225386396
3225393110
3225400190
3225407331
3225417768
3225425580
3225432111
3225440961
3225447736
3225455548
3225463361
3225471112
3225481610
3225490338
3225507001
3225514813
3225522809
3225530255
3225538617
3225546369
3225553327
3225561994
3225569989
3225577191
3225585370
3225593854
3225601605
3225608258
3225617596
3225625714
3225633588
3225641766
3225650006
3225656781
3225665143
3225673138
3225681439
3225689618
3225696393
3225704571
3225712811
3225719708
3225725567
3225730633
3225738995
3225746136
3225754803
3225762432
3225769024
3225776776
3225784344
3225791241
3225798443
3225805035
3225813580
3225820233
3225827801
3225835064
3225843365
3225850872
3225858746
3225865215
3225872234
3225879070
3225886517
3225893963
3225901409
3225908611
3225914288
3225924053
3225931011
3225937176
3225946270
3225953472
3225960064
3225967205
3225977093
3225988323
3225995098
3226006084
3226014202
3226022503
3226034160
3226041851
3226050090
3226058635
3226066997
3226074993
3226083721
3226091411
3226097759
3226106182
3226114910
