3286673348
3286679147
3286684701
3286690316
3286695992
3286701485
3286707162
3286713387
3286718514
3286724923
3286731942
3286737496
3286743905
3286748788
3286755501
3286761178
3286767403
3286772530
3286779061
3286786141
3286791329
3286797982
3286804940
3286811409
3286817391
3286824715
3286831490
3286837349
3286846138
3286852913
3286860909
3286868416
3286877022
3286884102
3286891670
3286899788
3286908028
3286915901
3286923409
3286927864
3286940132
3286946846
3286955330
3286962105
3286968819
3286976875
3286986214
3286995247
3287001228
3287010323
3287016304
3287024849
3287029121
3287039070
3287047371
3287055794
3287061714
3287069343
3287076362
3287082283
3287092415
3287099189
3287107368
3287114998
3287123787
3287131660
3287139106
3287146919
3287154243
3287161384
3287168464
3287175972
3287185859
3287193855
3287202278
3287209114
3287217658
3287225898
3287233405
3287241645
3287248847
3287256904
3287265876
3287272895
3287281684
3287289619
3287301826
3287312141
3287320686
3287328193
3287338264
3287347236
3287356147
3287362983
3287371650
3287380317
3287387885
3287394965
3287402717
3287412116
3287420539
3287427619
3287435859
3287443000
3287449408
3287458136
3287464606
3287473944
3287480353
3287488715
3287495246
3287503791
3287510382
3287518317
3287527655
3287535101
3287539557
3287549506
3287557135
3287564703
3287572089
3287579718
3287587897
3287597296
3287606024
3287613592
3287621100
3287628851
3287635931
3287641363
3287649847
3287657660
3287665289
3287671332
3287678229
3287688421
3287699041
3287708258
3287712652
3287722418
3287728704
3287736334
3287744146
3287749639
3287757757
3287764654
3287772161
3287779241
3287786810
3287792120
3287801031
3287806402
3287814947
3287823126
3287831671
3287838751
3287846502
3287852361
3287861150
3287869146
3287877142
3287884710
3287892767
3287899725
3287908453
3287915655
3287921758
3287930486
3287936773
3287945867
3287953496
3287960576
3287964727
3287973821
3287983526
3287991704
3287999334
3288008184
3288018865
3288024358
3288035283
3288045354
3288053716
3288064763
3288076604
3288082707
3288092351
3288101140
3288109136
3288118474
3288124394
3288131230
3288137639
3288146733
3288153203
3288162358
3288170537
3288175908
3288185796
3288191045
3288199162
3288204472
3288213872
3288222966
3288230351
3288237248
3288244206
3288250737
3288257512
3288266301
3288273869
3288282109
3288287175
3288294743
3288302433
3288309330
3288314518
3288324284
3288330143
3288339421
3288343815
3288352848
3288360234
3288367070
3288374333
3288381779
3288394718
3288403752
3288409001
3288417973
3288423039
3288434208
3288442936
3288448429
3288456852
3288464787
3288471928
3288478031
3288487858
3288497745
3288505131
3288511539
3288519352
3288526493
3288534366
3288543094
3288550663
3288559513
3288568851
3288576603
3288584293
3288593998
3288601505
3288609195
3288617801
3288625553
3288633243
3288641605
3288649662
3288658451
3288665592
3288673404
3288681400
3288689334
3288695926
3288708927
3288717777
3288726077
3288734256
3288745731
3288753726
3288763980
3288772586
3288781253
3288789859
3288797366
3288804935
3288812686
3288820560
3288828555
3288835269
3288845401
3288852847
3288861636
3288869937
3288878299
3288885562
3288893130
3288900699
3288907107
3288916018
3288922366
3288932254
3288940432
3288950076
3288957644
3288966006
3288974734
3288981326
3288991336
3288999636
3289007449
3289015139
3289023135
3289029727
3289036074
3289041750
3289047976
3289055972
3289060488
3289067995
3289072451
3289079531
3289086489
3289092593
3289099367
3289105044
3289109804
3289116396
3289121462
3289128359
3289133364
3289140993
3289147768
3289153872
3289161318
3289165774
3289172793
3289179262
3289185427
3289190615
3289198000
3289203737
3289209780
3289213442
3289221315
3289228151
3289234987
3289241091
3289246889
3289252932
3289257753
3289264101
3289268801
3289275148
3289281984
3289287599
3289292909
3289298281
3289304445
3289310488
3289316164
3289321901
3289329653
3289333070
3289339784
3289346315
3289352052
3289357729
3289363527
3289369325
3289375246
3289382021
3289387636
3289394167
3289398988
3289406496
3289409975
3289417421
3289424501
3289431398
3289436891
3289441896
3289448488
3289454225
3289459474
3289466127
3289470826
3289477662
3289484498
3289490236
3289495363
3289500428
3289507631
3289513429
3289518739
3289523927
3289531312
3289537172
3289543458
3289548646
3289552369
3289560670
3289565675
3289572023
3289578065
3289582582
3289589845
3289595582
3289602052
3289608033
3289615968
3289622376
3289627625
3289632508
3289639588
3289645081
3289650636
3289656800
3289662293
3289668824
3289674378
3289679627
3289685365
3289692872
3289698548
3289703187
3289709534
3289715821
3289721009
3289726563
3289732484
3289738160
3289743653
3289749146
3289753785
3289759522
3289766175
3289772400
3289778077
3289783204
3289788941
3289794922
3289799927
3289805848
3289812073
3289818238
3289823975
3289830628
3289835266
3289841797
3289847840
3289854859
3289861512
3289867493
3289872803
3289877808
3289885193
3289891968
3289898499
3289904663
3289911133
3289916992
3289922363
3289927918
3289933289
3289937805
3289945007
3289950256
3289955444
3289961060
3289968384
3289974670
3289980896
3289986633
3289993164
3289997497
3290003845
3290008301
3290015137
3290021911
3290026001
3290032287
3290037659
3290043335
3290048889
3290055359
3290060913
3290067688
3290072693
3290078369
3290085388
3290089599
3290096191
3290101867
3290106994
3290113159
3290117553
3290125366
3290129028
3290138427
3290144287
3290149963
3290154357
3290160156
3290165649
3290169982
3290177001
3290182983
3290188354
3290194274
3290200256
3290207214
3290213622
3290217651
3290225219
3290229614
3290236572
3290239990
3290247192
3290250243
3290258788
3290265563
3290270019
3290276000
3290280334
3290287902
3290293517
3290300536
3290307677
3290313842
3290319518
3290324706
3290329772
3290337340
3290343322
3290349364
3290356566
3290362121
3290368651
3290375487
3290381347
3290388183
3290393676
3290400023
3290403380
3290413085
3290419677
3290426146
3290431884
3290437682
3290442992
3290449279
3290455382
3290461669
3290468260
3290473632
3290479613
3290484862
3290490843
3290498778
3290505248
3290521788
3290528502
3290534605
3290541075
3290547423
3290552062
3290557555
3290562254
3290570799
3290576476
3290582213
3290587218
3290593382
3290598753
3290603575
3290610106
3290617186
3290622679
3290628172
3290632872
3290640318
3290646055
3290651243
3290657652
3290664183
3290669676
3290674437
3290680967
3290686155
3290691404
3290698240
3290703856
3290709349
3290714232
3290720762
3290725279
3290731749
3290737852
3290743772
3290749510
3290755491
3290760679
3290765013
3290771116
3290777525
3290786985
3290793028
3290797422
3290803770
3290809934
3290815550
3290819090
3290826841
3290833372
3290838682
3290843931
3290850156
3290854673
3290860166
3290866209
3290870786
3290878172
3290884275
3290890012
3290896299
3290899900
3290908445
3290913694
3290919431
3290925901
3290930356
3290936033
3290941709
3290948667
3290955381
3290960874
3290966672
3290972410
3290978330
3290981443
3290989621
3290996579
3291000791
3291006650
3291012021
3291018796
3291021909
3291029233
3291035947
3291039853
3291046811
3291053403
3291059323
3291065610
3291072080
3291077512
3291082456
3291088742
3291093930
3291100461
3291105832
3291112058
3291118100
3291122434
3291129331
3291134457
3291139768
3291146420
3291152280
3291157956
3291162412
3291169003
3291174924
3291180173
3291185422
3291192441
3291197324
3291201596
3291208676
3291212094
3291220273
3291226376
3291233029
3291239071
3291243954
3291249569
3291253903
3291261532
3291265561
3291273922
3291279477
3291283749
3291290219
3291294552
3291301693
3291307492
3291313900
3291319394
3291325924
3291331173
3291336239
3291342160
3291349545
3291354733
3291360958
3291367672
3291373226
3291378842
3291385922
3291391537
3291398495
3291404293
3291409969
3291415096
3291422543
3291428829
3291435909
3291441525
3291448299
3291453365
3291458920
3291464230
3291471920
3291476376
3291483761
3291488827
3291494991
3291502071
3291507381
3291515682
3291521114
3291526668
3291532406
3291537716
3291543270
3291547481
3291554989
3291559566
3291566768
3291569820
3291576778
3291583126
3291588436
3291594722
3291600643
3291605831
3291611446
3291616939
3291622249
3291630001
3291634334
3291642025
3291646724
3291653072
3291659481
3291662715
3291669612
3291677730
3291682430
3291688655
3291695247
3291700435
3291706783
3291712398
3291718929
3291725398
3291731502
3291737666
3291743404
3291749629
3291754085
3291761165
3291767818
3291773311
3291779964
3291785396
3291791011
3291798762
3291803218
3291809566
3291814082
3291820979
3291827022
3291832637
3291838252
3291843196
3291850398
3291856074
3291861140
3291868098
3291874141
3291880244
3291885432
3291892573
3291899531
3291904963
3291910884
3291915461
3291923091
3291929316
3291935359
3291940608
3291947505
3291953059
3291957698
3291964106
3291970942
3291975276
3291981928
3291987605
3291992671
3291999323
3292005061
3292012019
3292017146
3292022517
3292028254
3292033503
3292039118
3292043452
3292051325
3292056574
3292061945
3292067255
3292073420
3292079218
3292083735
3292091059
3292097224
3292101679
3292108515
3292112849
3292118647
3292123774
3292129938
3292136774
3292142328
3292148371
3292154596
3292161310
3292167719
3292173212
3292178766
3292183222
3292190302
3292195917
3292202265
3292208307
3292214411
3292220026
3292224421
3292230524
3292235102
3292242121
3292247797
3292253290
3292260187
3292265131
3292271540
3292278192
3292283747
3292289728
3292296259
3292301691
3292307428
3292312616
3292318475
3292324579
3292331049
3292335992
3292343500
3292348138
3292353387
3292360406
3292365289
3292372308
3292378351
3292383844
3292390558
3292395868
3292403924
3292410333
3292416254
3292423089
3292427606
3292435052
3292440606
3292447320
3292452630
3292457330
3292465082
3292470453
3292475641
3292481988
3292487542
3292495050
3292502984
3292509027
3292515435
3292523126
3292530145
3292537713
3292543634
3292550531
3292556268
3292563409
3292568536
3292574517
3292580560
3292586175
3292592706
3292599114
3292604791
3292611138
3292618768
3292626946
3292632928
3292638299
3292643792
3292649529
3292655389
3292661370
3292668755
3292674187
3292680230
3292685601
3292692193
3292697808
3292702202
3292709038
3292714471
3292720025
3292726555
3292731194
3292737603
3292742058
3292749505
3292755547
3292760918
3292766716
3292772637
3292778374
3292783440
3292790154
3292795525
3292800835
3292806816
3292810723
3292818291
3292823052
3292830071
3292834526
3292840935
3292846489
3292851921
3292857598
3292863640
3292869560
3292875908
3292881035
3292887505
3292893486
3292898857
3292904289
3292912285
3292918999
3292922966
3292929619
3292935478
3292941643
3292949028
3292955193
3292960869
3292966850
3292971916
3292976494
3292983452
3292988396
3292995109
3293001640
3293007194
3293011711
3293017876
3293024162
3293029533
3293035759
3293041435
3293046196
3293053154
3293057853
3293064811
3293071220
3293075920
3293082573
3293088981
3293094230
3293099601
3293106376
3293112297
3293117851
3293122917
3293127433
3293133842
3293138237
3293146476
3293151237
3293156608
3293162467
3293168510
3293174125
3293178764
3293186210
3293193412
3293198539
3293205070
3293210868
3293216239
3293222587
3293229179
3293234245
3293241019
3293246085
3293252067
3293257255
3293265128
3293269828
3293276298
3293280692
3293287894
3293292472
3293298148
3293304435
3293310538
3293316398
3293320731
3293327506
3293330863
3293338675
3293343741
3293349357
3293356009
3293359183
3293366813
3293372733
3293377921
3293382743
3293389090
3293395316
3293400016
3293406974
3293412955
3293418631
3293423697
3293429923
3293437308
3293442008
3293449332
3293455496
3293461051
3293466178
3293471732
3293477896
3293482413
3293489615
3293494193
3293499991
3293505850
3293511588
3293517569
3293522574
3293528983
3293535269
3293540579
3293546927
3293553763
3293559439
3293564749
3293570670
3293576041
3293581290
3293586294
3293592459
3293598074
3293603689
3293609183
3293615652
3293620901
3293626394
3293632193
3293637930
3293643301
3293649832
3293654654
3293659597
3293665030
3293671011
3293676687
3293682425
3293687613
3293693106
3293698782
3293705313
3293712088
3293716909
3293723013
3293729055
3293734365
3293740347
3293746328
3293751272
3293757559
3293763235
3293767874
3293774160
3293777212
3293784170
3293791128
3293796926
3293803030
3293807790
3293813528
3293817800
3293823965
3293830618
3293836538
3293842214
3293847952
3293852407
3293858083
3293864187
3293869192
3293876150
3293881399
3293886892
3293893178
3293897695
3293904958
3293911123
3293917470
3293924428
3293929128
3293935537
3293939870
3293945363
3293951894
3293957692
3293964528
3293969045
3293975881
3293980153
3293986684
3293992910
3293999318
3294006154
3294010732
3294018422
3294023671
3294029592
3294035573
3294041616
3294047780
3294052785
3294058156
3294064870
3294069325
3294076222
3294082814
3294088063
3294094655
3294099049
3294105824
3294109731
3294117665
3294123097
3294128529
3294135732
3294138844
3294146413
3294150990
3294157521
3294164662
3294169484
3294174855
3294180714
3294187306
3294192555
3294199086
3294205556
3294211598
3294217518
3294220814
3294227955
3294233510
3294240284
3294246266
3294253102
3294258290
3294263783
3294270314
3294276600
3294281605
3294287770
3294294117
3294300770
3294307179
3294311695
3294319569
3294325428
3294331654
3294337452
3294341969
3294349354
3294355946
3294363819
3294369984
3294376820
3294382923
3294390553
3294397083
3294405445
3294411366
3294420155
3294427540
3294432606
3294439198
3294446522
3294453114
3294460621
3294465870
3294473438
3294480274
3294486439
3294494800
3294499378
3294506641
3294512867
3294518909
3294523731
3294529651
3294535938
3294540394
3294548084
3294551258
3294559131
3294563465
3294568409
3294575428
3294579944
3294586536
3294591236
3294598316
3294603626
3294608875
3294616016
3294620899
3294627613
3294634265
3294639392
3294644763
3294650806
3294656299
3294660877
3294668384
3294674243
3294679859
3294685413
3294690662
3294697681
3294703357
3294708423
3294715503
3294720447
3294727283
3294733325
3294739673
3294743335
3294751147
3294757922
3294762500
3294769031
3294772388
3294782336
3294788135
3294792468
3294799121
3294804431
3294810657
3294816028
3294822192
3294828174
3294834460
3294839587
3294844714
3294850024
3294856921
3294862964
3294868090
3294872546
3294879931
3294885180
3294890246
3294896350
3294902331
3294907763
3294913378
3294918566
3294924792
3294931567
3294938281
3294944201
3294949389
3294956469
3294962084
3294967578
3294974658
3294981005
3294987231
3294993151
3294999865
3295004748
3295011645
3295017565
3295023791
3295030444
3295034838
3295041125
3295047594
3295053149
3295059191
3295065905
3295072619
3295078417
3295083666
3295089953
3295095446
3295101671
3295106432
3295113634
3295119616
3295125475
3295131395
3295137011
3295143480
3295148424
3295155382
3295160326
3295165880
3295172594
3295177660
3295184801
3295189989
3295195665
3295201769
3295206102
3295214403
3295218859
3295225817
3295231737
3295236864
3295244310
3295248766
3295254564
3295260790
3295267137
3295272203
3295278856
3295284471
3295289720
3295294969
3295300951
3295306993
3295313036
3295319261
3295324327
3295330675
3295336229
3295342149
3295346605
3295354173
3295360338
3295364915
3295371263
3295375535
3295384447
3295389879
3295395372
3295402147
3295406541
3295412706
3295420030
3295425645
3295431688
3295436387
3295442979
3295446275
3295453416
3295459825
3295466172
3295472032
3295477952
3295483140
3295488328
3295496141
3295501390
3295507493
3295513414
3295519334
3295524644
3295530015
3295536790
3295542161
3295548142
3295555161
3295559617
3295565904
3295571519
3295577073
3295582139
3295589036
3295594468
3295598985
3295604722
3295611009
3295615891
3295621751
3295627366
3295633469
3295637376
3295643845
3295648484
3295654832
3295659348
3295667710
3295672959
3295679063
3295684495
3295689500
3295695969
3295701157
3295707200
3295713852
3295718125
3295724717
3295730393
3295736802
3295741929
3295748032
3295753891
3295760056
3295765122
3295770920
3295777329
3295783127
3295787522
3295794358
3295800217
3295805405
3295810410
3295817307
3295825791
3295829087
3295837082
3295842392
3295848129
3295853867
3295858200
3295865708
3295872421
3295878403
3295885422
3295890061
3295897873
3295903854
3295910019
3295916000
3295921677
3295927597
3295931198
3295938156
3295945541
3295952011
3295957138
3295962387
3295970261
3295975937
3295981979
3295989548
3295995041
3296002365
3296007431
3296013412
3296019272
3296025863
3296032272
3296038986
3296043991
3296051315
3296057480
3296062790
3296068588
3296074997
3296081039
3296085983
3296092392
3296095565
3296103744
3296108017
3296116195
3296121810
3296126327
3296133895
3296137252
3296144943
3296148178
3296156661
3296162521
3296168502
3296174606
3296180099
3296185897
3296192733
3296198287
3296204879
3296211349
3296216537
3296221420
3296226852
3296233810
3296239059
3296246078
3296252303
3296257613
3296263839
3296268050
3296273910
3296279830
3296285934
3296291488
3296296737
3296300643
3296307845
3296315108
3296320968
3296326766
3296333175
3296338668
3296344405
3296348616
3296355758
3296360335
3296366927
3296371199
3296377547
3296382857
3296389815
3296394271
3296400985
3296407637
3296412337
3296418624
3296424483
3296429732
3296436812
3296442488
3296449080
3296454390
3296461165
3296466658
3296470870
3296476973
3296484908
3296491011
3296496687
3296502242
3296507857
3296513350
3296520552
3296524947
3296532271
3296537337
3296543074
3296548689
3296554060
3296560591
3296565596
3296571211
3296577986
3296583662
3296589216
3296594954
3296600935
3296607466
3296613264
3296619185
3296625288
3296630293
3296636335
3296643171
3296648359
3296655256
3296660505
3296665998
3296671492
3296678083
3296682417
3296689192
3296695600
3296701582
3296706221
3296713179
3296718550
3296725019
3296731733
3296736738
3296741621
3296750044
3296755598
3296762739
3296768476
3296772871
3296778913
3296783308
3296789350
3296795698
3296801374
3296807600
3296813825
3296820234
3296825788
3296832380
3296837751
3296844709
3296849775
3296856184
3296862104
3296866987
3296871137
3296877973
3296884809
3296889509
3296895917
3296901899
3296907026
3296911359
3296919843
3296926191
3296932294
3296938825
3296945478
3296951520
3296958417
3296966535
3296975202
3296982648
3296989057
3296994062
3297000898
3297007001
3297012006
3297017987
3297024762
3297030377
3297037641
3297043378
3297050336
3297055402
3297062909
3297068158
3297073651
3297078656
3297085553
3297091840
3297097638
3297103803
3297110455
3297115582
3297119855
3297127362
3297132733
3297138043
3297145489
3297151288
3297156598
3297161175
3297166791
3297173505
3297178570
3297185162
3297191388
3297196942
3297203473
3297208294
3297215741
3297221661
3297226239
3297231671
3297237774
3297243756
3297252118
3297258954
3297264264
3297268475
3297275067
3297280316
3297286297
3297292584
3297298443
3297303509
3297308636
3297316571
3297321942
3297328167
3297333721
3297339642
3297344647
3297349896
3297355938
3297361431
3297367962
3297373333
3297377789
3297384869
3297388348
3297395428
3297398418
3297407208
3297414288
3297418560
3297424480
3297429546
3297435467
3297441570
3297447308
3297453350
3297459087
3297465374
3297471538
3297477154
3297482647
3297489910
3297496013
3297501690
3297507671
3297513347
3297518780
3297525188
3297531597
3297538555
3297543926
3297551006
3297556804
3297560955
3297566326
3297573284
3297578899
3297585735
3297590862
3297597942
3297602275
3297609233
3297614971
3297620708
3297627178
3297631511
3297638103
3297642742
3297649761
3297655864
3297662273
3297667644
3297674114
3297679179
3297684856
3297693034
3297698955
3297704631
3297709758
3297715556
3297721660
3297728679
3297734233
3297740703
3297746440
3297752238
3297758647
3297763103
3297770854
3297775981
3297782451
3297787028
3297793437
3297800151
3297805461
3297812053
3297816691
3297823893
3297829509
3297835734
3297841227
3297846904
3297852824
3297859904
3297865702
3297870890
3297876628
3297883036
3297887492
3297894145
3297900614
3297906108
3297913005
3297918559
3297923686
3297928507
3297935038
3297942179
3297947550
3297953227
3297959452
3297965006
3297970500
3297977213
3297983256
3297988871
3297996867
3298001872
3298009867
3298013407
3298022623
3298029337
3298034464
3298041300
3298047037
3298052103
3298057474
3298064677
3298070841
3298077250
3298082865
3298087931
3298093058
3298098917
3298104227
3298110758
3298117228
3298122233
3298127848
3298132975
3298139994
3298146830
3298152384
3298158976
3298164774
3298169474
3298173441
3298180887
3298185892
3298192789
3298197977
3298203958
3298210184
3298215616
3298222025
3298227640
3298232767
3298240091
3298244425
3298250589
3298255777
3298263101
3298269205
3298276407
3298283487
3298290140
3298296121
3298302469
3298309305
3298314554
3298321451
3298326700
3298332132
3298337686
3298344217
3298348917
3298355997
3298362344
3298368570
3298374002
3298379068
3298387796
3298393289
3298399576
3298405557
3298411477
3298416910
3298422036
3298428933
3298435952
3298440713
3298447854
3298453836
3298458963
3298464151
3298470987
3298477029
3298480935
3298490152
3298496438
3298501077
3298508096
3298514382
3298519998
3298525369
3298531106
3298537087
3298543618
3298549111
3298554788
3298560281
3298566384
3298570779
3298577676
3298580911
3298589578
3298595803
3298600320
3298608254
3298614114
3298619668
3298627358
3298632302
3298638528
3298644936
3298650918
3298655556
3298662759
3298670632
3298676674
3298682595
3298688820
3298694680
3298699746
3298705300
3298711892
3298718117
3298723855
3298729104
3298734597
3298740212
3298746926
3298752724
3298758461
3298764809
3298769448
3298777138
3298782631
3298789345
3298795266
3298800759
3298807045
3298812660
3298818642
3298824440
3298830788
3298837013
3298842568
3298848183
3298853920
3298859108
3298864479
3298870400
3298877113
3298882179
3298888039
3298893410
3298898903
3298904884
3298910561
3298917274
3298922401
3298928993
3298934730
3298940529
3298947792
3298953041
3298958656
3298964821
3298971351
3298976295
3298980751
3298987526
3298994240
3299000404
3299006630
3299012428
3299017372
3299022743
3299029091
3299036110
3299040626
3299047279
3299052528
3299058387
3299065345
3299071754
3299078163
3299083107
3299089210
3299095497
3299100563
3299106849
3299112953
3299119544
3299125709
3299131080
3299136756
3299142799
3299148109
3299153480
3299160499
3299165687
3299171485
3299176795
3299182044
3299189124
3299193519
3299199989
3299206153
3299211585
3299218177
3299222633
3299230079
3299236060
3299241126
3299247047
3299252540
3299258094
3299264625
3299270850
3299278174
3299283118
3299289405
3299295875
3299301124
3299307166
3299311683
3299318763
3299325416
3299330848
3299336951
3299341407
3299348426
3299360328
3299365699
3299372290
3299378211
3299383460
3299389502
3299395606
3299400489
3299407935
3299414282
3299420081
3299425696
3299430335
3299437964
3299442847
3299449866
3299455725
3299462378
3299466834
3299473608
3299479468
3299485449
3299490881
3299498267
3299503943
3299509497
3299515479
3299521033
3299528845
3299534338
3299540381
3299546362
3299552893
3299558264
3299564368
3299570776
3299575537
3299582983
3299588843
3299594458
3299601233
3299606054
3299613440
3299618506
3299623755
3299630407
3299635962
3299641577
3299647741
3299653173
3299657568
3299663977
3299669470
3299675512
3299681616
3299688940
3299694860
3299700537
3299704809
3299710974
3299716345
3299721960
3299729772
3299735021
3299738500
3299746801
3299752111
3299757665
3299763952
3299768591
3299775060
3299781408
3299786657
3299792272
3299797765
3299804235
3299809301
3299816686
3299819860
3299827001
3299833288
3299838110
3299843236
3299849096
3299855138
3299860021
3299867406
3299872533
3299878515
3299885473
3299891027
3299896337
3299903234
3299908788
3299914098
3299920324
3299926122
3299930455
3299938024
3299944432
3299949987
3299955785
3299960668
3299967382
3299974340
3299980016
3299986180
3299990941
3299998082
3300003881
3300010228
3300015782
3300022435
3300028539
3300035069
3300040441
3300047826
3300052403
3300059239
3300066197
3300072057
3300077367
3300083104
3300088719
3300095616
3300101048
3300106664
3300112462
3300117711
3300125523
3300129735
3300136449
3300142247
3300146886
3300153050
3300158543
3300165684
3300170689
3300178197
3300182591
3300188878
3300195836
3300201329
3300207188
3300212010
3300219517
3300225255
3300230259
3300236119
3300241429
3300246922
3300253697
3300258763
3300265416
3300270787
3300275914
3300280979
3300286534
3300293309
3300300450
3300305210
3300311375
3300316563
3300321934
3300327610
3300334324
3300340122
3300345677
3300352329
3300358006
3300363194
3300368931
3300375340
3300381382
3300385716
3300392551
3300398045
3300403660
3300409885
3300414219
3300421116
3300427769
3300433384
3300439121
3300443821
3300450779
3300455845
3300462864
3300468357
3300473728
3300479526
3300485081
3300491367
3300497776
3300503208
3300509128
3300513096
3300520054
3300524387
3300532871
3300538608
3300545871
3300551914
3300556552
3300563755
3300570346
3300576267
3300582248
3300588474
3300593540
3300599399
3300604892
3300612216
3300617526
3300622959
3300629917
3300635898
3300641635
3300647373
3300652805
3300657687
3300663364
3300669772
3300674289
3300680698
3300686740
3300692538
3300698764
3300703159
3300710483
3300716647
3300722263
3300728061
3300733859
3300740146
3300747287
3300753146
3300758151
3300764194
3300771274
3300777133
3300784030
3300788974
3300794589
3300801486
3300807101
3300813571
3300820651
3300824862
3300831332
3300837741
3300842990
3300847995
3300854525
3300860446
3300865695
3300871310
3300876803
3300881991
3300889315
3300894747
3300901400
3300907382
3300925021
3300929965
3300937106
3300943698
3300949252
3300954440
3300959994
3300966280
3300972445
3300979220
3300984957
3300989901
3300995455
3301000765
3301006197
3301011568
3301018160
3301024264
3301027804
3301035067
3301041292
3301048373
3301056002
3301061129
3301069430
3301076266
3301082552
3301087984
3301092684
3301100680
3301106722
3301112032
3301118136
3301123262
3301129915
3301135347
3301141512
3301148165
3301154024
3301160006
3301165804
3301171053
3301176607
3301183016
3301189608
3301195711
3301200777
3301206453
3301212801
3301219881
3301225862
3301231050
3301236727
3301243562
3301249971
3301256197
3301264497
3301268892
3301275301
3301280244
3301284639
3301290865
3301297090
3301302950
3301308870
3301313997
3301320467
3301326692
3301333284
3301339326
3301346712
3301351778
3301357515
3301363069
3301368379
3301375215
3301380708
3301386506
3301393403
3301398591
3301404207
3301410310
3301415559
3301421479
3301427400
3301433137
3301438691
3301444368
3301450166
3301454683
3301461579
3301468415
3301474397
3301480195
3301484529
3301490876
3301497407
3301503816
3301509553
3301513886
3301520600
3301526338
3301531342
3301537751
3301545075
3301551057
3301558381
3301564301
3301569856
3301576875
3301581452
3301588471
3301592866
3301599946
3301604707
3301610871
3301615998
3301622590
3301630158
3301634309
3301641511
3301646332
3301652070
3301658173
3301663666
3301670380
3301675263
3301681428
3301686860
3301692292
3301699555
3301707856
3301713654
3301718964
3301724030
3301729523
3301734894
3301740387
3301746674
3301752167
3301757660
3301763337
3301768036
3301774689
3301780243
3301786225
3301792938
3301797272
3301804718
3301809967
3301815277
3301820954
3301826080
3301833222
3301839142
3301844330
3301850861
3301855560
3301862091
3301867706
3301873993
3301879730
3301885834
3301892059
3301897430
3301902801
3301909271
3301915008
3301920135
3301926056
3301932220
3301937714
3301943146
3301948456
3301954498
3301961151
3301965790
3301971832
3301977020
3301984710
3301989532
3301995636
3302001617
3302006073
3302013214
3302018036
3302025421
3302031707
3302037201
3302042450
3302048126
3302055633
3302061370
3302065887
3302073638
3302079803
3302085601
3302091827
3302098297
3302104339
3302109527
3302115508
3302122283
3302126556
3302132720
3302139007
3302144927
3302151031
3302156890
3302162200
3302167754
3302172820
3302178130
3302185516
3302191375
3302197051
3302202239
3302208404
3302213653
3302218047
3302225249
3302230498
3302236175
3302243438
3302248992
3302255034
3302260345
3302267364
3302272552
3302279265
3302284270
3302290130
3302295501
3302302337
3302306853
3302314422
3302321380
3302325347
3302332366
3302336699
3302342681
3302349028
3302355986
3302361785
3302366851
3302373137
3302379424
3302387114
3302394622
3302403533
3302408354
3302413848
3302420561
3302428008
3302433684
3302438994
3302443999
3302449248
3302454619
3302460234
3302465422
3302471343
3302476714
3302483000
3302489165
3302492766
3302498198
3302504301
3302509672
3302514738
3302520232
3302526274
3302531035
3302535979
3302541167
3302546599
3302553129
3302558806
3302565275
3302571074
3302578032
3302584257
3302590117
3302595976
3302601774
3302607328
3302613859
3302619902
3302625395
3302632841
3302638578
3302643644
3302650541
3302657316
3302663298
3302669523
3302676298
3302681364
3302688261
3302692655
3302699674
3302705717
3302711820
3302718290
3302722746
3302729826
3302736295
3302742704
3302747770
3302752714
3302760587
3302766019
3302772245
3302779264
3302784452
3302792265
3302796354
3302803312
3302810270
3302814603
3302822721
3302828397
3302834012
3302840238
3302846403
3302851530
3302857389
3302862455
3302866849
3302876005
3302881803
3302886625
3302892911
3302899076
3302904996
3302911100
3302917753
3302923246
3302929410
3302934476
3302939969
3302947721
3302952909
3302959256
3302965665
3302971036
3302976529
3302982205
3302987454
3302993558
3303001309
3303006742
3303011868
3303017545
3303022061
3303026944
3303031949
3303037625
3303044095
3303051236
3303057401
3303063382
3303069974
3303076260
3303082669
3303089017
3303093961
3303098904
3303105679
3303111966
3303118619
3303124356
3303129361
3303136441
3303142117
3303147183
3303154202
3303159634
3303165249
3303170804
3303176175
3303182705
3303187100
3303192105
3303200039
3303205777
3303209439
3303216214
3303222256
3303227505
3303232510
3303239407
3303246792
3303252102
3303257168
3303262661
3303268277
3303274136
3303280606
3303285733
3303290615
3303297146
3303302822
3303308010
3303313137
3303318875
3303325527
3303330532
3303337551
3303343411
3303347378
3303354275
3303361721
3303367214
3303372219
3303377712
3303383266
3303389248
3303396572
3303402370
3303408108
3303413052
3303418301
3303424648
3303430752
3303435879
3303440456
3303448452
3303454006
3303459560
3303464809
3303469143
3303475429
3303481716
3303487392
3303492092
3303497219
3303502529
3303508083
3303514980
3303521938
3303527309
3303533290
3303538601
3303543483
3303549160
3303555934
3303561977
3303570400
3303574062
3303581447
3303587429
3303593410
3303598964
3303604457
3303612697
3303618434
3303623622
3303630946
3303635341
3303642238
3303649745
3303655544
3303661220
3303666896
3303671413
3303677089
3303683253
3303689967
3303694484
3303700832
3303704738
3303711391
3303716457
3303723598
3303729152
3303735560
3303741664
3303746730
3303752406
3303757045
3303763698
3303768275
3303774379
3303779811
3303786342
3303791102
3303796840
3303802089
3303808802
3303812587
3303818568
3303825160
3303831507
3303838404
3303844264
3303851832
3303856715
3303862269
3303869227
3303874049
3303880519
3303886195
3303891932
3303897975
3303904261
3303909754
3303914820
3303921473
3303927638
3303932826
3303938197
3303944056
3303949915
3303957606
3303966395
3303974635
3303979212
3303985804
3303991846
3303997279
3304002711
3304009058
3304016138
3304020655
3304026942
3304031214
3304036829
3304042933
3304048487
3304055140
3304060633
3304067103
3304073206
3304080713
3304086878
3304091822
3304098963
3304104883
3304110804
3304117579
3304123377
3304130335
3304135828
3304141626
3304147608
3304153772
3304159204
3304163599
3304171900
3304177210
3304182459
3304188806
3304193140
3304200403
3304206323
3304211756
3304217310
3304223291
3304229273
3304235498
3304240747
3304246057
3304253687
3304259241
3304263635
3304271448
3304276880
3304283105
3304289331
3304295496
3304301172
3304308008
3304313562
3304319238
3304323694
3304328882
3304333887
3304341760
3304347925
3304353235
3304358606
3304363855
3304370263
3304375635
3304382043
3304388330
3304393762
3304399133
3304404565
3304411157
3304417260
3304422387
3304429345
3304433679
3304439721
3304444116
3304450952
3304457055
3304462976
3304468896
3304474267
3304480432
3304484399
3304490685
3304495996
3304503808
3304508630
3304514184
3304520165
3304527612
3304534264
3304540551
3304546410
3304553429
3304558740
3304564172
3304570275
3304576745
3304584069
3304589318
3304594628
3304602196
3304606835
3304614220
3304621178
3304626366
3304632226
3304637841
3304643456
3304649743
3304655602
3304661278
3304667199
3304674523
3304678917
3304685814
3304692223
3304696740
3304703820
3304709130
3304715966
3304721642
3304727318
3304731530
3304739525
3304745018
3304750389
3304756127
3304761498
3304766686
3304772545
3304780113
3304785668
3304790917
3304796105
3304801354
3304806847
3304814842
3304818749
3304825707
3304832665
3304837425
3304843834
3304847130
3304855370
3304861961
3304866478
3304872948
3304877769
3304882347
3304887291
3304893028
3304898216
3304903160
3304907127
3304911522
3304915855
3304921226
3304925316
3304930137
3304934410
3304938988
3304944603
3304947960
3304953941
3304957969
3304961937
3304966392
3304971824
3304977012
3304981895
3304985618
3304989402
3304995140
3304998558
3305004478
3305009239
3305014061
3305021263
3305027366
3305031822
3305037986
3305043479
3305048912
3305055870
3305060691
3305065818
3305070762
3305076133
3305081321
3305085777
3305089866
3305094505
3305099449
3305104881
3305109458
3305113731
3305119041
3305123313
3305127403
3305131736
3305136863
3305141502
3305145469
3305151145
3305155906
3305160728
3305165611
3305170371
3305177268
3305181419
3305185264
3305189658
3305193259
3305199241
3305203086
3305207664
3305211875
3305215903
3305219871
3305224509
3305227988
3305237205
3305242942
3305247703
3305251609
3305256553
3305261435
3305266807
3305271628
3305276755
3305282309
3305287070
3305291953
3305296592
3305302634
3305307090
3305310447
3305314963
3305319297
3305324607
3305328635
3305332724
3305337058
3305341635
3305347068
3305351401
3305356528
3305361289
3305367331
3305373374
3305378012
3305385764
3305389914
3305394370
3305399130
3305403281
3305409079
3305413107
3305418784
3305424155
3305430441
3305435263
3305441184
3305447592
3305452597
3305457236
3305464743
3305467612
3305475058
3305480185
3305484763
3305491476
3305496970
3305502158
3305506125
3305512167
3305517416
3305522238
3305527121
3305532370
3305536337
3305541098
3305545920
3305551413
3305555014
3305561545
3305567404
3305574179
3305579306
3305584250
3305588888
3305595419
3305600607
3305604940
3305612021
3305616903
3305622396
3305627157
3305630819
3305636801
3305643270
3305648703
3305654440
3305658407
3305664389
3305669149
3305676962
3305683431
3305688619
3305693563
3305698324
3305703573
3305707540
3305713461
3305720052
3305726156
3305731649
3305735738
3305741232
3305746969
3305752462
3305757772
3305764242
3305770223
3305774191
3305782735
3305788595
3305793722
3305800375
3305804525
3305809041
3305814962
3305819112
3305826314
3305832540
3305837972
3305841756
3305847310
3305852682
3305855855
3305862630
3305868184
3305874288
3305878682
3305883626
3305890584
3305896138
3305902364
3305909139
3305916768
3305922261
3305927205
3305933614
3305938558
3305944783
3305950948
3305957112
3305962483
3305968831
3305974568
3305978536
3305984639
3305992024
3305998311
3306003072
3306007832
3306014180
3306019307
3306023518
3306030110
3306036702
3306042195
3306047444
3306051534
3306057149
3306060750
3306066060
3306071553
3306078267
3306082783
3306088582
3306094258
3306099019
3306105183
3306112263
3306117512
3306123738
3306129475
3306136250
3306142109
3306147236
3306152485
3306159504
3306164998
3306169697
3306176045
3306181599
3306187397
3306192830
3306197407
3306204915
3306209004
3306216938
3306221272
3306228474
3306232319
3306239582
3306243000
3306250141
3306255696
3306262226
3306267231
3306273762
3306278645
3306283711
3306288105
3306295307
3306302143
3306309406
3306314350
3306320332
3306326862
3306332111
3306336567
3306341572
3306348713
3306352192
3306359699
3306364643
3306370441
3306375324
3306381733
3306386433
3306392841
3306398029
3306405048
3306409870
3306416157
3306422932
3306428364
3306433918
3306436054
3306446003
3306449665
3306461139
3306466938
3306471943
3306477558
3306484028
3306490192
3306495563
3306501850
3306509113
3306514728
3306519184
3306525287
3306530231
3306535480
3306539997
3306546405
3306552204
3306554218
3306562641
3306566425
3306573505
3306576679
3306584613
3306590351
3306595905
3306601337
3306605975
3306612445
3306616718
3306621295
3306627948
3306632404
3306640277
3306643756
3306650226
3306654803
3306660541
3306665546
3306672015
3306677386
3306683063
3306688739
3306695575
3306700397
3306705218
3306710528
3306718158
3306723834
3306729266
3306733539
3306740314
3306746600
3306752032
3306757098
3306763629
3306769244
3306775897
3306781024
3306787005
3306792010
3306797381
3306802081
3306808062
3306815814
3306821978
3306826495
3306833880
3306838702
3306845233
3306852252
3306858477
3306864703
3306869647
3306874285
3306881304
3306886248
3306893084
3306897601
3306901751
3306909075
3306915911
3306920611
3306924334
3306931658
3306935076
3306942400
3306947649
3306952898
3306959002
3306966387
3306971331
3306976580
3306980975
3306987261
3306993304
3306998431
3307004717
3307011431
3307016558
3307025835
3307030901
3307035174
3307043780
3307050676
3307055987
3307063311
3307068499
3307076250
3307081316
3307088335
3307093462
3307100176
3307104509
3307110186
3307115618
3307121111
3307125689
3307132402
3307135637
3307143022
3307147783
3307155779
3307159258
3307166399
3307172136
3307178728
3307182634
3307192644
3307196245
3307203752
3307209551
3307215410
3307220659
3307227068
3307231462
3307237383
3307243974
3307250017
3307251787
3307260088
3307265825
3307270097
3307273271
3307280839
3307284196
3307292497
3307295976
3307302507
3307307634
3307314165
3307319108
3307324418
3307332536
3307339494
3307345231
3307351213
3307356584
3307364213
3307368303
3307374528
3307380815
3307388810
3307393266
3307400102
3307405046
3307412370
3307416886
3307425309
3307430986
3307436113
3307442948
3307448869
3307455888
3307461625
3307466996
3307474015
3307480363
3307487443
3307492326
3307498307
3307503373
3307509965
3307514665
3307521256
3307526322
3307533219
3307538163
3307542374
3307549882
3307554765
3307560868
3307566056
3307570817
3307576005
3307583207
3307588090
3307595231
3307600236
3307607438
3307612076
3307618424
3307623246
3307627091
3307638566
3307644364
3307651566
3307656632
3307661576
3307668351
3307675797
3307681778
3307691056
3307696549
3307702530
3307707901
3307712845
3307721146
3307726273
3307732987
3307738480
3307744705
3307750992
3307757035
3307761246
3307766983
3307773392
3307779495
3307784073
3307789566
3307795242
3307799454
3307805924
3307810623
3307816666
3307823319
3307828201
3307833084
3307839615
3307845352
3307850174
3307855850
3307861099
3307867020
3307871902
3307878067
3307883255
3307887466
3307890884
3307898880
3307905594
3307911514
3307914993
3307921524
3307926834
3307932327
3307935562
3307942520
3307948745
3307955520
3307960891
3307965835
3307970413
3307975784
3307979995
3307985855
3307992508
3307997573
3308001907
3308007705
3308013626
3308018081
3308022293
3308028396
3308035354
3308040969
3308045791
3308051773
3308056900
3308063430
3308068679
3308074905
3308080703
3308087478
3308092666
3308098708
3308103103
3308108840
3308115310
3308119521
3308125808
3308131240
3308137832
3308143691
3308149001
3308152969
3308160049
3308163467
3308169753
3308175613
3308183181
3308186843
3308193801
3308198928
3308205459
3308211562
3308218032
3308224013
3308231032
3308239150
3308245315
3308249160
3308255080
3308260634
3308267592
3308273696
3308278701
3308283278
3308289504
3308294143
3308300368
3308305800
3308312026
3308317641
3308323806
3308329299
3308334853
3308338149
3308344618
3308350295
3308354567
3308359816
3308366042
3308370803
3308376845
3308381362
3308386794
3308391738
3308398268
3308404311
3308410231
3308414870
3308420912
3308427138
3308431899
3308436171
3308441725
3308449049
3308454787
3308459120
3308465346
3308470045
3308476149
3308480421
3308486037
3308491835
3308497511
3308502394
3308509535
3308515089
3308521742
3308527296
3308531141
3308538771
3308544325
3308550306
3308555922
3308560438
3308566115
3308571791
3308576979
3308583021
3308588636
3308594557
3308599684
3308605055
3308610243
3308615797
3308619093
3308626295
3308632765
3308638441
3308641676
3308647779
3308652479
3308658888
3308664015
3308670301
3308675245
3308682020
3308686598
3308692945
3308697889
3308703626
3308708082
3308713941
3308719251
3308726087
3308732618
3308737318
3308743482
3308749097
3308754224
3308759718
3308765455
3308772169
3308780225
3308786634
3308794263
3308800428
3308805250
3308812696
3308819166
3308825941
3308831251
3308836744
3308842298
3308845533
3308852186
3308856885
3308862378
3308867811
3308875257
3308878492
3308884961
3308890943
3308897535
3308901685
3308906934
3308914319
3308921094
3308925855
3308931104
3308935681
3308942151
3308946179
3308951795
3308959424
3308964551
3308970288
3308976697
3308981214
3308987317
3308991467
3308997632
3309002149
3309009351
3309013928
3309019055
3309024976
3309030347
3309036206
3309043591
3309048901
3309056103
3309060071
3309065625
3309071973
3309077954
3309083264
3309090039
3309097241
3309104016
3309111401
3309120434
3309125805
3309131726
3309137280
3309144299
3309150158
3309156567
3309161145
3309166699
3309170727
3309177441
3309181530
3309186535
3309192517
3309199170
3309203869
3309208996
3309214917
3309221264
3309225354
3309231884
3309236340
3309241650
3309246960
3309252575
3309257275
3309262951
3309269116
3309272717
3309280163
3309286389
3309292980
3309297924
3309303478
3309308483
3309315624
3309320690
3309325939
3309331066
3309338024
3309342602
3309347973
3309354748
3309359447
3309365978
3309370251
3309379345
3309385937
3309390819
3309398571
3309404125
3309410290
3309416820
3309424206
3309428234
3309435253
3309440929
3309446117
3309451610
3309455761
3309461498
3309468944
3309474682
3309480663
3309487011
3309491832
3309498119
3309502391
3309508068
3309512889
3309520763
3309525829
3309529247
3309536815
3309540294
3309546092
3309550670
3309556224
3309561473
3309568309
3309573070
3309579296
3309583873
3309589244
3309593822
3309599071
3309605846
3309610851
3309617198
3309622813
3309627879
3309634715
3309640269
3309647716
3309654369
3309661143
3309667125
3309673350
3309681346
3309687694
3309694713
3309696971
3309708201
3309717113
3309723948
3309728953
3309734935
3309741343
3309745494
3309748973
3309756785
3309761912
3309767894
3309772471
3309778087
3309781321
3309787608
3309792430
3309798960
3309805980
3309812022
3309815196
3309822520
3309827891
3309833750
3309838267
3309844432
3309848277
3309856700
3309862864
3309868723
3309873362
3309879222
3309882578
3309889658
3309895518
3309901682
3309906626
3309913401
3309918284
3309923289
3309929758
3309935007
3309941294
3309946909
3309955210
3309961924
3309967661
3309973704
3309981760
3309987864
3309992991
3310003245
3310008249
3310014597
3310020518
3310025644
3310030283
3310036814
3310043100
3310048288
3310053476
3310059275
3310063913
3310068796
3310073130
3310078745
3310083139
3310089548
3310093882
3310100656
3310104074
3310111460
3310116404
3310122324
3310129160
3310133432
3310139292
3310143686
3310149729
3310154428
3310160776
3310166025
3310171152
3310176706
3310181345
3310184397
3310192575
3310199472
3310203806
3310209726
3310215036
3310220712
3310224619
3310229501
3310236093
3310244394
3310249338
3310254465
3310260324
3310265634
3310271616
3310276681
3310283090
3310290292
3310294931
3310299631
3310305856
3310311532
3310315927
3310319467
3310328195
3310332223
3310339547
3310342965
3310349679
3310355478
3310361520
3310365121
3310371103
3310379037
3310384896
3310390573
3310396676
3310402841
3310406442
3310411752
3310417550
3310424508
3310429696
3310434823
3310439218
3310445931
3310451730
3310456735
3310462960
3310469613
3310475594
3310481454
3310488961
3310495126
3310504708
3310511178
3310517098
3310523385
3310528695
3310535409
3310541085
3310546151
3310551827
3310559579
3310564584
3310571175
3310576119
3310580880
3310586922
3310591622
3310598214
3310604622
3310609505
3310615792
3310620736
3310627450
3310632210
3310637093
3310644173
3310649666
3310654793
3310661385
3310666634
3310672921
3310677498
3310684517
3310691048
3310697457
3310702034
3310707650
3310714791
3310721627
3310726937
3310733589
3310739083
3310744881
3310751656
3310757942
3310763191
3310769661
3310774666
3310781624
3310786751
3310793526
3310798775
3310805183
3310810249
3310818367
3310823006
3310829231
3310834175
3310840767
3310847237
3310850716
3310858223
3310863350
3310868233
3310872749
3310877754
3310885200
3310891548
3310896797
3310901741
3310907722
3310913460
3310918098
3310924141
3310929207
3310936592
3310943123
3310946968
3310954353
3310957832
3310964241
3310969368
3310976204
3310981697
3310987739
3310992622
3310998787
3311003242
3311009346
3311015449
3311017463
3311027046
3311033515
3311039924
3311045051
3311051826
3311058113
3311062629
3311067756
3311073799
3311079292
3311086311
3311091560
3311098518
3311103462
3311109870
3311114509
3311121101
3311128059
3311134345
3311140144
3311145942
3311150825
3311157478
3311161689
3311168220
3311172797
3311178596
3311184943
3311189643
3311195624
3311200812
3311206367
3311211310
3311217597
3311224799
3311229499
3311235480
3311240912
3311244880
3311250678
3311255561
3311262091
3311268073
3311274054
3311279670
3311284186
3311290717
3311294867
3311300055
3311306647
3311309943
3311317267
3311322943
3311327765
3311332831
3311339057
3311344000
3311349372
3311356879
3311363593
3311369208
3311374640
3311379401
3311385932
3311390631
3311396796
3311401801
3311409003
3311416083
3311420355
3311425848
3311431097
3311436591
3311442145
3311446844
3311455267
3311461188
3311466681
3311471258
3311475043
3311482855
3311487982
3311493536
3311498968
3311505194
3311510565
3311517706
3311523749
3311531500
3311537298
3311544012
3311551886
3311557623
3311564947
3311572149
3311577581
3311584173
3311591436
3311597906
3311604071
3311608892
3311617254
3311620916
3311627996
3311631842
3311638616
3311643865
3311649908
3311655401
3311662237
3311667486
3311673895
3311680731
3311687139
3311692999
3311700689
3311706854
3311714910
3311721563
3311727605
3311733831
3311741888
3311748052
3311754339
3311759954
3311765813
3311772344
3311776922
3311782964
3311789068
3311792486
3311799199
3311806341
3311812139
3311819280
3311823858
3311830755
3311836187
3311840947
3311848394
3311857854
3311863652
3311869329
3311874578
3311880132
3311885076
3311891057
3311896367
3311903264
3311905522
3311912969
3311919683
3311925847
3311931035
3311937200
3311942876
3311949773
3311955449
3311959844
3311965947
3311970708
3311975652
3311981816
3311986760
3311993596
3311999761
3312006230
3312011418
3312016484
3312021184
3312028142
3312034734
3312039311
3312043828
3312051091
3312055485
3312060612
3312066777
3312072331
3312076848
3312080510
3312088566
3312096440
3312101445
3312107731
3312112736
3312116520
3312124577
3312128117
3312134404
3312140995
3312148320
3312153508
3312158452
3312163029
3312169865
3312174565
3312180607
3312185490
3312192326
3312197941
3312204777
3312209782
3312216069
3312222172
3312226383
3312231449
3312237431
3312244755
3312248478
3312255253
3312260319
3312266911
3312272526
3312278141
3312283024
3312290470
3312295536
3312302250
3312307316
3312312748
3312318790
3312323673
3312330570
3312337772
3312345036
3312350834
3312355961
3312361820
3312366398
3312372196
3312376774
3312383793
3312388614
3312395206
3312400516
3312408024
3312413883
3312420902
3312426151
3312432132
3312436893
3312443119
3312448490
3312455753
3312461063
3312468326
3312474979
3312481083
3312485660
3312490970
3312496891
3312501712
3312505863
3312512393
3312518192
3312524967
3312530216
3312536869
3312542850
3312547977
3312552432
3312558719
3312563419
3312571781
3312576541
3312581729
3312587650
3312592777
3312598758
3312603885
3312609805
3312615665
3312622501
3312630313
3312634830
3312639041
3312645206
3312649417
3312654727
3312661441
3312666812
3312672671
3312678775
3312683291
3312689639
3312694217
3312699832
3312706180
3312709903
3312718448
3312721866
3312728213
3312733340
3312739749
3312744754
3312749881
3312755191
3312762942
3312768069
3312774417
3312778872
3312785342
3312789920
3312795901
3312800662
3312807925
3312812747
3312816409
3312824954
3312830996
3312835513
3312840518
3312847231
3312854434
3312860964
3312864443
3312871401
3312876833
3312884402
3312889956
3312895876
3312902529
3312909975
3312915041
3312921816
3312928103
3312935427
3312941470
3312946902
3312953677
3312959719
3312965395
3312971133
3312975100
3312980715
3312986147
3312991884
3312997988
3313002260
3313006899
3313013552
3313018618
3313023317
3313027773
3313033022
3313039614
3313044741
3313049501
3313055117
3313061037
3313065981
3313070131
3313075624
3313082277
3313087465
3313093508
3313098940
3313104921
3313109865
3313114565
3313118044
3313125795
3313132509
3313137514
3313141054
3313149599
3313153383
3313160219
3313165346
3313171633
3313178163
3313184450
3313190981
3313195924
3313200868
3313208559
3313214113
3313220033
3313225160
3313231874
3313238039
3313242555
3313248537
3313255311
3313259950
3313265321
3313271730
3313278749
3313283510
3313289857
3313295839
3313300172
3313306032
3313309572
3313317506
3313321473
3313329286
3313332765
3313339357
3313343751
3313350038
3313354432
3313361573
3313366212
3313373231
3313377931
3313385194
3313389772
3313395936
3313400514
3313404115
3313412049
3313420228
3313425294
3313428712
3313437196
3313441224
3313448548
3313453553
3313459168
3313464417
3313471070
3313478944
3313485658
3313494569
3313501283
3313507386
3313515931
3313522950
3313529664
3313538392
3313545350
3313551697
3313560059
3313564088
3313572449
3313576295
3313585023
3313591797
3313600342
3313604981
3313615357
3313622071
3313628602
3313637635
3313643677
3313651307
3313658509
3313664490
3313670716
3313677185
3313685181
3313691712
3313698365
3313705017
3313710083
3313714112
3313718445
3313723572
3313728455
3313733765
3313738709
3313742676
3313747070
3313751831
3313756714
3313762024
3313767517
3313772400
3313777344
3313781433
3313786011
3313790711
3313795044
3313800293
3313805298
3313809082
3313814514
3313818542
3313825439
3313830383
3313836121
3313841309
3313845276
3313850525
3313854126
3313858398
3313862366
3313869934
3313874634
3313877930
3313882507
3313887268
3313891296
3313897827
3313903076
3313907104
3313912842
3313915710
3313921814
3313926025
3313930603
3313934997
3313942505
3313945495
3313951110
3313955200
3313961303
3313966125
3313971191
3313977050
3313982238
3313986633
3313992126
3313997619
3314002685
3314007080
3314012939
3314019714
3314025268
3314029846
3314036315
3314042114
3314047668
3314052795
3314057006
3314065307
3314069457
3314075561
3314081054
3314085143
3314089904
3314094726
3314100524
3314106322
3314112121
3314117309
3314121337
3314127196
3314132140
3314136169
3314141601
3314147216
3314151733
3314157775
3314163817
3314169433
3314173522
3314179076
3314185302
3314192260
3314197875
3314202758
3314207030
3314213805
3314217894
3314221007
3314228454
3314234923
3314240783
3314244262
3314250426
3314255614
3314261229
3314266417
3314272521
3314279662
3314285460
3314288939
3314295958
3314299376
3314306456
3314312255
3314317687
3314323119
3314328978
3314335021
3314341185
3314346434
3314353697
3314357543
3314364256
3314371703
3314378783
3314383666
3314389403
3314393858
3314400145
3314404478
3314411314
3314416380
3314423460
3314428160
3314431578
3314438780
3314442198
3314450255
3314453734
3314461241
3314467528
3314473997
3314477537
3314483824
3314488951
3314494505
3314498961
3314505430
3314510313
3314517820
3314523008
3314528807
3314533812
3314540403
3314546507
3314550962
3314556334
3314561705
3314569212
3314572874
3314580625
3314586729
3314591917
3314598265
3314604002
3314610838
3314617979
3314625181
3314632444
3314637510
3314642698
3314647581
3314653867
3314659116
3314665281
3314670713
3314676817
3314682493
3314689146
3314698545
3314707029
3314711607
3314716672
3314721922
3314726926
3314728513
3314736204
3314739439
3314746824
3314752683
3314757871
3314762510
3314767942
3314771238
3314777341
3314781492
3314787229
3314795102
3314801145
3314806455
3314811155
3314817136
3314822873
3314827024
3314833310
3314838681
3314845762
3314851255
3314855710
3314861753
3314866269
3314871518
3314877683
3314884030
3314892087
3314896054
3314902463
3314907529
3314911557
3314916257
3314921872
3314928769
3314934690
3314940122
3314944699
3314950192
3314955930
3314959409
3314966794
3314970639
3314978513
3314983029
3314988950
3314995541
3315000485
3315007138
3315011655
3315019284
3315024045
3315030576
3315035214
3315042355
3315047177
3315052914
3315058407
3315064145
3315070737
3315076108
3315080624
3315087155
3315091549
3315097531
3315102353
3315109860
3315114621
3315120907
3315127194
3315131344
3315136227
3315142880
3315150265
3315157650
3315162838
3315169552
3315175656
3315181637
3315188046
3315193417
3315201168
3315205868
3315211544
3315215939
3315221920
3315227963
3315232174
3315238583
3315245419
3315250424
3315255612
3315259945
3315266354
3315270443
3315275631
3315281551
3315287350
3315293331
3315298153
3315304012
3315308834
3315314449
3315319576
3315326778
3315334408
3315340328
3315344845
3315350338
3315355648
3315361080
3315364559
3315370846
3315376278
3315383175
3315388057
3315394344
3315399532
3315404903
3315411251
3315415950
3315421383
3315428829
3315435848
3315439998
3315445980
3315451046
3315458248
3315463436
3315470089
3315474544
3315481990
3315485225
3315492671
3315498470
3315503170
3315508052
3315514034
3315519710
3315526790
3315532527
3315539546
3315545589
3315553157
3315559566
3315567745
3315574336
3315580989
3315586848
3315594905
3315600337
3315606624
3315613094
3315618709
3315625301
3315629146
3315636043
3315641231
3315647578
3315652705
3315659053
3315663875
3315669002
3315675776
3315683772
3315688228
3315694575
3315699092
3315703425
3315710505
3315713984
3315722163
3315726619
3315734614
3315738337
3315745723
3315752314
3315759333
3315764643
3315771052
3315777583
3315784724
3315790827
3315798274
3315802607
3315809626
3315812800
3315820185
3315823847
3315831965
3315835200
3315841792
3315846552
3315851557
3315857600
3315862788
3315868891
3315874506
3315879450
3315886164
3315891535
3315897089
3315901789
3315907893
3315912836
3315918024
3315923334
3315927973
3315933588
3315937434
3315945002
3315948176
3315955012
3315960871
3315966364
3315969538
3315976862
3315981745
3315987604
3315992609
3315997736
3316005793
3316011835
3316017206
3316023676
3316028803
3316034784
3316040766
3316045343
3316051752
3316060724
3316065668
3316072016
3316076654
3316081598
3316087580
3316092340
3316096735
3316103021
3316107355
3316113336
3316117792
3316124750
3316129267
3316132807
3316140558
3316144464
3316151727
3316157648
3316162042
3316167169
3316173456
3316178644
3316183466
3316192377
3316197687
3316202081
3316208795
3316213312
3316219965
3316224420
3316227899
3316235651
3316240289
3316247430
3316252313
3316258722
3316263238
3316269281
3316273675
3316279474
3316285943
3316291986
3316296502
3316299920
3316308465
3316315789
3316320733
3316324640
3316332635
3316337213
3316345147
3316351678
3316356500
3316360345
3316369439
3316375665
