5401927333
5401932032
5401937220
5401943385
5401948695
5401954188
5401959681
5401965602
5401970545
5401977381
5401983607
5401990138
5401995936
5402002711
5402008082
5402013148
5402018885
5402025538
5402031397
5402037562
5402044947
5402051112
5402056422
5402063929
5402070399
5402076258
5402083338
5402089564
5402096644
5402103419
5402110071
5402116541
5402123804
5402130823
5402138514
5402145716
5402155787
5402164576
5402172144
5402180201
5402188562
5402192896
5402201868
5402209497
5402215540
5402224573
5402231958
5402237757
5402245691
5402256555
5402268823
5402279749
5402291773
5402302027
5402310022
5402318933
5402326807
5402333948
5402341943
5402348840
5402355554
5402363306
5402370691
5402378442
5402386499
5402395349
5402402368
5402411401
5402418909
5402426782
5402435022
5402443200
5402452661
5402459863
5402467675
5402475854
5402484033
5402492944
5402498010
5402508264
5402516320
5402524194
5402531457
5402539636
5402546960
5402555810
5402565270
5402572045
5402581201
5402587548
5402595483
5402604455
5402612634
5402620019
5402628625
5402635949
5402644433
5402656396
5402665429
5402674706
5402682763
5402690514
5402698998
5402704980
5402714989
5402723351
5402731713
5402740441
5402747216
5402754296
5402762719
5402771080
5402778832
5402788292
5402795922
5402803673
5402813805
5402823754
5402832238
5402841515
5402849999
5402857079
5402866051
5402874474
5402883873
5402890709
5402900780
5402908775
5402921715
5402930626
5402939537
5402946617
5402956810
5402966331
5402974510
5402981529
5402989708
5402997703
5403005455
5403014061
5403024376
5403033226
5403040550
5403047569
5403054100
5403062950
5403070396
5403078209
5403086143
5403093834
5403102378
5403110191
5403117698
5403125083
5403131004
5403138206
5403145957
5403153404
5403160667
5403169334
5403176170
5403184410
5403191123
5403199241
5403205894
5403214195
5403220664
5403227439
5403235801
5403244773
5403251914
5403258262
5403266013
5403272361
5403281211
5403289573
5403298728
5403306480
5403314292
5403319663
5403328330
5403336387
5403344077
5403351340
5403359031
5403366782
5403374289
5403383323
5403388999
5403396872
5403404929
5403412619
5403418662
5403427329
5403433554
5403441001
5403449851
5403457968
5403464926
5403472190
5403480185
5403487570
5403494101
5403502158
5403510336
5403518454
5403526694
5403534872
5403542502
5403550558
5403557211
5403565329
5403574423
5403581808
5403587241
5403598227
5403605856
5403614096
5403622030
5403630758
5403639609
5403648642
5403656820
5403664572
5403673788
5403681295
5403690817
5403697958
5403707357
5403720846
5403727194
5403736471
5403743551
5403751119
5403758261
5403765585
5403773702
5403780844
5403788778
5403796224
5403802816
5403810262
5403818380
5403824178
5403832967
5403840719
5403847128
5403854818
5403862203
5403868185
5403877279
5403883565
5403891744
5403898885
5403906759
5403913961
5403921407
5403925802
5403935689
5403940145
5403950765
5403958700
5403966451
5403971700
5403981038
5403988485
5403997457
5404007161
5404014608
5404022115
5404028279
5404035482
5404042867
5404050496
5404058309
5404065633
5404073628
5404081075
5404089192
5404096089
5404104329
5404112447
5404120198
5404126485
5404135030
5404141927
5404150288
5404157674
5404165608
5404173665
5404181721
5404189046
5404193867
5404204610
5404209859
5404222920
5404230122
5404236714
5404245381
5404253376
5404260273
5404268574
5404274922
5404285847
5404295185
5404302876
5404309040
5404318379
5404325581
5404334431
5404342060
5404349018
5404355427
5404365864
5404375691
5404383503
5404393940
5404402973
5404410908
5404420063
5404426777
5404435871
5404445393
5404455036
5404464680
5404472309
5404478352
5404483967
5404489765
5404496174
5404502827
5404508259
5404513019
5404519672
5404525959
5404532062
5404537433
5404544330
5404549762
5404555561
5404560505
5404567646
5404571186
5404578632
5404585102
5404591510
5404597675
5404604023
5404608783
5404615863
5404622699
5404629108
5404635089
5404641254
5404646564
5404652790
5404658710
5404663837
5404671344
5404678363
5404682880
5404687335
5404695697
5404700763
5404706134
5404711444
5404719013
5404725726
5404731097
5404737384
5404742145
5404747272
5404751849
5404759357
5404762591
5404768695
5404774493
5404779986
5404785052
5404791217
5404797565
5404803729
5404810260
5404814227
5404820148
5404824359
5404830279
5404836261
5404841937
5404847186
5404853045
5404857623
5404865008
5404870990
5404877093
5404880511
5404888873
5404895404
5404900409
5404906634
5404912432
5404917987
5404922564
5404929156
5404934161
5404941302
5404948443
5404954302
5404961566
5404966876
5404974810
5404979388
5404989275
5404997149
5405001177
5405009234
5405015704
5405020403
5405026263
5405032549
5405038897
5405043963
5405049456
5405055621
5405061114
5405066912
5405072771
5405078814
5405084734
5405090594
5405094561
5405100725
5405106890
5405113543
5405118548
5405124468
5405128863
5405135454
5405138811
5405146868
5405151934
5405157427
5405163408
5405169207
5405174578
5405180437
5405186419
5405191484
5405197771
5405201006
5405207354
5405212480
5405218401
5405221819
5405230364
5405235063
5405240251
5405246477
5405250749
5405256548
5405262224
5405267534
5405272722
5405279985
5405285845
5405291094
5405295610
5405301592
5405306902
5405313005
5405320085
5405325151
5405331682
5405335893
5405342912
5405348222
5405354936
5405359575
5405366594
5405372575
5405378252
5405381425
5405388505
5405394243
5405401201
5405407060
5405412614
5405417497
5405423234
5405428727
5405433732
5405440385
5405445695
5405451860
5405456804
5405463517
5405469743
5405476213
5405484269
5405489274
5405501237
5405511308
5405517228
5405521318
5405530290
5405537004
5405541581
5405548478
5405552934
5405560502
5405565812
5405571732
5405578446
5405582536
5405588212
5405594071
5405599503
5405606645
5405612260
5405617448
5405623734
5405629960
5405635819
5405640641
5405646806
5405652543
5405658097
5405664384
5405670182
5405674943
5405679459
5405686173
5405691483
5405697648
5405703446
5405708695
5405714493
5405719925
5405724930
5405731156
5405739213
5405744706
5405749588
5405754349
5405760819
5405763993
5405770951
5405777543
5405782120
5405788224
5405794022
5405799942
5405805313
5405811478
5405815872
5405822586
5405827896
5405834061
5405840164
5405846024
5405851578
5405855728
5405862686
5405866898
5405873245
5405878311
5405885513
5405890946
5405897537
5405900894
5405909195
5405913528
5405921158
5405927322
5405933182
5405937698
5405942886
5405948502
5405955460
5405960342
5405965042
5405971084
5405976395
5405983414
5405988602
5405995193
5405999832
5406006851
5406016678
5406026321
5406032974
5406043350
5406050613
5406058242
5406065506
5406071670
5406077652
5406081924
5406087417
5406093277
5406099929
5406104385
5406111465
5406117813
5406124343
5406130386
5406136611
5406141860
5406147598
5406152908
5406157424
5406164199
5406167739
5406174880
5406181228
5406187332
5406193679
5406199416
5406203811
5406209853
5406216262
5406220718
5406227309
5406232253
5406238845
5406242385
5406249831
5406255324
5406260696
5406266982
5406271010
5406278396
5406285110
5406293044
5406298415
5406302871
5406308791
5406314651
5406320937
5406327163
5406332717
5406338881
5406344008
5406348159
5406353835
5406359633
5406364760
5406369216
5406375930
5406381240
5406387954
5406393874
5406399733
5406403823
5406411452
5406416152
5406422194
5406428237
5406433303
5406441115
5406447219
5406452529
5406458144
5406464491
5406471510
5406476515
5406481825
5406488173
5406493605
5406499220
5406505934
5406512221
5406516798
5406523940
5406527907
5406535170
5406541884
5406548170
5406555556
5406560988
5406567946
5406573073
5406580641
5406586867
5406595228
5406601576
5406607069
5406613112
5406618666
5406624586
5406630324
5406638685
5406642836
5406649794
5406656691
5406661268
5406667494
5406673903
5406678724
5406686415
5406690077
5406698805
5406702711
5406709669
5406715589
5406721205
5406726942
5406733045
5406739149
5406744947
5406752210
5406757582
5406763441
5406770338
5406776991
5406780531
5406788038
5406793775
5406801160
5406805372
5406812269
5406817518
5406825758
5406831556
5406836195
5406842359
5406849012
5406854261
5406859144
5406868482
5406872327
5406879285
5406883192
5406889905
5406896741
5406901075
5406908460
5406915235
5406920423
5406927076
5406932691
5406938062
5406943677
5406948621
5406956373
5406962110
5406967542
5406973890
5406979566
5406985852
5406992322
5406997632
5407003919
5407009290
5407015332
5407021497
5407026319
5407032422
5407037244
5407045117
5407050611
5407056104
5407062512
5407068189
5407073987
5407080335
5407086438
5407091565
5407098706
5407104382
5407114331
5407120618
5407126416
5407134167
5407139722
5407148206
5407151929
5407159436
5407165662
5407172803
5407178723
5407184521
5407190747
5407195019
5407201550
5407207654
5407213574
5407218274
5407225171
5407230664
5407238110
5407244336
5407249829
5407256360
5407261914
5407267712
5407273632
5407279858
5407285656
5407290722
5407296826
5407302014
5407308178
5407314587
5407319531
5407326061
5407331127
5407338391
5407344738
5407350231
5407356091
5407361828
5407367870
5407374157
5407379650
5407385632
5407391674
5407396618
5407403454
5407408581
5407415783
5407421642
5407427502
5407433788
5407439281
5407444714
5407451183
5407458263
5407464489
5407470531
5407475109
5407481090
5407485851
5407493664
5407499401
5407505626
5407511974
5407517711
5407523754
5407529308
5407535045
5407541881
5407547069
5407551525
5407557994
5407563671
5407569835
5407573314
5407581920
5407587291
5407593517
5407599681
5407605480
5407611095
5407616649
5407621349
5407627269
5407633129
5407638317
5407644542
5407648387
5407656627
5407665721
5407672679
5407678661
5407684825
5407691112
5407697521
5407703441
5407711925
5407718089
5407723521
5407729564
5407735240
5407740977
5407746226
5407753856
5407758800
5407763866
5407769054
5407775462
5407778758
5407787486
5407793529
5407798594
5407805308
5407809459
5407816844
5407821666
5407827525
5407832896
5407839671
5407844371
5407850657
5407855967
5407861949
5407868419
5407874278
5407880320
5407884654
5407891246
5407895701
5407903208
5407908763
5407915660
5407920970
5407926036
5407931529
5407937754
5407942637
5407948435
5407956065
5407962107
5407969554
5407974925
5407980418
5407985911
5407993479
5407997935
5408004404
5408010447
5408015513
5408021799
5408027781
5408033152
5408037546
5408042673
5408049021
5408056284
5408061411
5408066965
5408072275
5408076914
5408083567
5408089487
5408095102
5408100413
5408106760
5408111704
5408118052
5408125376
5408130076
5408136789
5408143259
5408148264
5408153025
5408159800
5408165110
5408171396
5408176340
5408183542
5408188791
5408196482
5408203012
5408212107
5408217172
5408227671
5408233530
5408243967
5408251108
5408255319
5408261545
5408267771
5408272592
5408277292
5408283884
5408290353
5408296396
5408299692
5408308359
5408314340
5408318857
5408326791
5408332040
5408337778
5408344247
5408351999
5408355356
5408362070
5408368234
5408374460
5408380075
5408385873
5408391244
5408397287
5408403818
5408408517
5408415658
5408420236
5408425546
5408431955
5408437143
5408442148
5408448312
5408452401
5408458627
5408464914
5408471017
5408477304
5408484018
5408490487
5408495553
5408501229
5408505868
5408514047
5408517404
5408525399
5408532418
5408539193
5408548043
5408553964
5408558846
5408566598
5408570992
5408577401
5408583993
5408589425
5408596078
5408600594
5408607980
5408612557
5408620248
5408625985
5408631295
5408636605
5408642464
5408647530
5408653878
5408661263
5408666512
5408671822
5408675179
5408682076
5408685250
5408695382
5408700020
5408705391
5408711068
5408717721
5408724068
5408729317
5408736947
5408746468
5408750252
5408759041
5408768196
5408778206
5408784127
5408789864
5408795113
5408800057
5408806771
5408811775
5408817879
5408822151
5408828560
5408836067
5408841988
5408847298
5408853157
5408860420
5408871346
5408879280
5408885323
5408893135
5408900581
5408908333
5408914375
5408919868
5408925423
5408931099
5408937447
5408943611
5408949837
5408955513
5408961983
5408967049
5408973518
5408978523
5408986030
5408991035
5408996528
5409001228
5409006660
5409014595
5409019722
5409026497
5409031196
5409038459
5409043525
5409050056
5409055122
5409061409
5409066291
5409071540
5409078132
5409082588
5409088020
5409094429
5409100288
5409106636
5409111518
5409122932
5409129951
5409135871
5409140815
5409146980
5409151740
5409158820
5409163825
5409170173
5409176948
5409182441
5409188056
5409193855
5409199165
5409206672
5409212714
5409218879
5409228156
5409237556
5409245490
5409250617
5409258063
5409268683
5409274787
5409280219
5409289191
5409295051
5409299445
5409305915
5409311347
5409316657
5409322272
5409327826
5409333991
5409339301
5409343757
5409350287
5409356025
5409360846
5409367316
5409372016
5409378485
5409383673
5409389411
5409396491
5409401313
5409406928
5409411872
5409417304
5409423834
5409429877
5409436286
5409440863
5409447333
5409453558
5409458014
5409466193
5409474677
5409480902
5409486395
5409492499
5409497199
5409502936
5409509711
5409516119
5409522162
5409528387
5409534003
5409539374
5409545050
5409550055
5409556647
5409565680
5409571722
5409579596
5409586065
5409592779
5409599188
5409603888
5409610357
5409616278
5409621527
5409628363
5409634161
5409640570
5409647039
5409652716
5409658819
5409663580
5409669134
5409675482
5409681829
5409687262
5409692449
5409699713
5409703131
5409709905
5409719793
5409726995
5409734686
5409742498
5409749639
5409758489
5409765264
5409770391
5409776922
5409781622
5409787054
5409792120
5409798345
5409803350
5409808721
5409815618
5409819768
5409824651
5409831182
5409837102
5409842840
5409848577
5409854070
5409860296
5409865423
5409871282
5409878179
5409882818
5409889837
5409894842
5409901677
5409906316
5409912420
5409916875
5409922979
5409927861
5409934819
5409939824
5409950872
5409956975
5409963262
5409969670
5409989629
5409996648
5410003362
5410009282
5410016179
5410022710
5410027715
5410033513
5410038579
5410043401
5410048039
5410056157
5410059209
5410067815
5410074529
5410080876
5410086003
5410090398
5410097112
5410102055
5410108342
5410113591
5410120610
5410124394
5410131535
5410136113
5410142338
5410148503
5410154729
5410161442
5410166081
5410171818
5410177922
5410184147
5410190312
5410194951
5410200810
5410205998
5410210576
5410216679
5410221440
5410229191
5410235478
5410239750
5410250065
5410257695
5410267033
5410273075
5410280766
5410287052
5410294560
5410300846
5410306706
5410313725
5410318485
5410324589
5410329777
5410335880
5410342472
5410348393
5410353764
5410359623
5410365482
5410369633
5410376041
5410380253
5410386417
5410391361
5410398685
5410403263
5410409855
5410416386
5410422550
5410428837
5410432743
5410438785
5410445499
5410450687
5410457157
5410463199
5410467960
5410474186
5410479435
5410486393
5410491520
5410497989
5410504825
5410509769
5410515812
5410521549
5410527774
5410531925
5410539005
5410543460
5410550174
5410555912
5410561954
5410568302
5410574771
5410580997
5410585392
5410591739
5410595767
5410602115
5410606998
5410613956
5410618717
5410626346
5410630069
5410638370
5410642887
5410649234
5410654910
5410661502
5410667972
5410673709
5410680484
5410687381
5410692874
5410698917
5410704593
5410711063
5410716800
5410721255
5410726993
5410733035
5410738284
5410745608
5410751102
5410756595
5410762454
5410768497
5410774539
5410780948
5410788760
5410793887
5410804202
5410810183
5410816165
5410825259
5410832583
5410838504
5410846560
5410852359
5410858462
5410864077
5410869693
5410874942
5410880313
5410886904
5410891482
5410897708
5410903079
5410909976
5410915652
5410921389
5410927371
5410931582
5410938296
5410943057
5410949587
5410956118
5410962039
5410966921
5410975039
5410978457
5410985293
5410991457
5410997561
5411003664
5411009768
5411014101
5411019961
5411026125
5411032656
5411039126
5411044070
5411051089
5411056521
5411062807
5411068667
5411074831
5411078249
5411084719
5411090273
5411096010
5411101198
5411106386
5411111940
5411118166
5411123354
5411129702
5411136171
5411140688
5411146547
5411151491
5411158266
5411164125
5411169802
5411175722
5411182253
5411187258
5411193483
5411200014
5411204775
5411210512
5411215639
5411221010
5411227358
5411232851
5411238161
5411245241
5411249819
5411256838
5411260561
5411269289
5411274294
5411279665
5411285341
5411290590
5411296144
5411301881
5411307436
5411313905
5411319032
5411325685
5411331666
5411340333
5411351015
5411355714
5411363405
5411370912
5411377931
5411385560
5411390748
5411396303
5411400941
5411406312
5411412599
5411419130
5411424196
5411430482
5411437257
5411441041
5411448610
5411453492
5411460084
5411465394
5411470643
5411475404
5411483033
5411488893
5411494813
5411500733
5411506837
5411511781
5411519349
5411525636
5411529725
5411535584
5411538880
5411545899
5411552064
5411558167
5411563905
5411571046
5411576173
5411581055
5411587159
5411591615
5411598389
5411601929
5411610718
5411616029
5411620850
5411628236
5411633240
5411639832
5411646058
5411651490
5411658082
5411664673
5411671082
5411677430
5411682679
5411689820
5411696473
5411702149
5411708619
5411714783
5411719117
5411724305
5411728882
5411736145
5411742127
5411747925
5411753296
5411758423
5411764099
5411769532
5411775086
5411781678
5411786621
5411790772
5411796875
5411803101
5411808167
5411812683
5411820069
5411823731
5411831482
5411837891
5411844055
5411847107
5411854248
5411861633
5411869263
5411877808
5411885559
5411893982
5411902710
5411911499
5411919006
5411923889
5411929871
5411936706
5411942993
5411948913
5411954712
5411961059
5411966614
5411972168
5411978699
5411984802
5411991638
5411998047
5412004211
5412009948
5412014099
5412020385
5412026855
5412033447
5412038513
5412046447
5412052795
5412058288
5412063354
5412068664
5412074035
5412080932
5412086181
5412091979
5412097839
5412104370
5412109985
5412115783
5412122009
5412125793
5412133849
5412139526
5412145995
5412150512
5412155700
5412161742
5412166625
5412173461
5412179382
5412185058
5412190673
5412195068
5412200988
5412206359
5412210937
5412217223
5412222045
5412229552
5412234435
5412241515
5412247802
5412251952
5412257689
5412263488
5412269958
5412274657
5412281371
5412287536
5412293761
5412298705
5412304198
5412308837
5412315978
5412319640
5412327208
5412333495
5412339232
5412344359
5412349852
5412355284
5412361693
5412368529
5412373839
5412380187
5412384886
5412391356
5412398680
5412404601
5412409911
5412420531
5412428771
5412437010
5412446410
5412453185
5412457640
5412464781
5412471312
5412477049
5412482359
5412486876
5412493590
5412498961
5412506102
5412512144
5412517699
5412523070
5412529173
5412535521
5412541624
5412547117
5412552122
5412558958
5412564085
5412570982
5412576658
5412582701
5412588804
5412594603
5412600218
5412604307
5412610716
5412614866
5412620726
5412626646
5412633299
5412638365
5412644773
5412648252
5412655638
5412663511
5412667845
5412675596
5412680418
5412686094
5412690550
5412696775
5412702818
5412708311
5412714170
5412720640
5412726438
5412731504
5412738340
5412743040
5412748838
5412753233
5412758909
5412763914
5412771421
5412778379
5412784116
5412786069
5412793516
5412800535
5412805296
5412811460
5412817991
5412823606
5412828123
5412833616
5412838193
5412845090
5412848630
5412856931
5412860532
5412868833
5412874326
5412879880
5412886594
5412891477
5412898008
5412903135
5412908872
5412912168
5412918638
5412924497
5412930906
5412939634
5412946286
5412953244
5412960752
5412969052
5412977414
5412983762
5412989682
5412996396
5413001401
5413008420
5413014096
5413020017
5413025998
5413032163
5413038205
5413043637
5413048764
5413054623
5413061093
5413065549
5413071286
5413075986
5413083066
5413089597
5413094601
5413100766
5413106320
5413112363
5413118283
5413122922
5413128659
5413133725
5413138425
5413144894
5413150204
5413156857
5413161374
5413167477
5413173459
5413179562
5413186093
5413191891
5413197628
5413202267
5413209042
5413214047
5413221676
5413226376
5413233029
5413238461
5413243649
5413248532
5413254086
5413260372
5413265072
5413272824
5413277462
5413284054
5413289486
5413295712
5413299008
5413307003
5413313595
5413319943
5413325375
5413329403
5413335201
5413341122
5413346737
5413352963
5413360043
5413365536
5413371517
5413375179
5413382748
5413388973
5413394344
5413400021
5413404476
5413413814
5413419430
5413425289
5413431270
5413437191
5413442867
5413449093
5413455440
5413460079
5413467769
5413476375
5413483333
5413494503
5413502620
5413511470
5413519283
5413522579
5413530330
5413535884
5413541256
5413546871
5413552974
5413559383
5413565547
5413571407
5413576045
5413581295
5413586177
5413593135
5413598079
5413605647
5413612117
5413619075
5413624690
5413630184
5413635494
5413639644
5413646114
5413650447
5413656917
5413663570
5413669368
5413674373
5413680476
5413684749
5413690608
5413693965
5413701350
5413707515
5413712764
5413719112
5413723872
5413730769
5413735042
5413741572
5413746943
5413753413
5413758540
5413765010
5413769587
5413776607
5413784175
5413792293
5413798823
5413803462
5413809749
5413815425
5413820918
5413826289
5413832942
5413838435
5413843684
5413849421
5413853633
5413859919
5413866450
5413873652
5413879634
5413885249
5413890620
5413896418
5413899714
5413907038
5413914118
5413918147
5413924861
5413929682
5413936274
5413942622
5413948176
5413952570
5413958979
5413964228
5413970942
5413976374
5413981562
5413986689
5413992182
5413999506
5414006831
5414014216
5414021723
5414029780
5414035822
5414042597
5414049189
5414055781
5414061640
5414067682
5414072077
5414078669
5414082026
5414091242
5414096979
5414102778
5414107477
5414112909
5414118219
5414124323
5414131708
5414136408
5414142633
5414147882
5414153925
5414159235
5414166254
5414171198
5414178400
5414183527
5414189203
5414194879
5414201105
5414207453
5414213678
5414219110
5414224970
5414230219
5414236566
5414241571
5414247186
5414252496
5414257074
5414264154
5414270807
5414276544
5414282404
5414287897
5414293207
5414299432
5414305475
5414312067
5414317621
5414322565
5414329462
5414335321
5414341974
5414347833
5414353692
5414359002
5414365167
5414371393
5414375726
5414382257
5414386712
5414392267
5414399530
5414405023
5414410089
5414416009
5414426385
5414432244
5414436639
5414442804
5414450677
5414454522
5414462274
5414467950
5414473565
5414481134
5414488092
5414494134
5414497430
5414504876
5414510308
5414515496
5414518487
5414526483
5414533257
5414537652
5414547112
5414554864
5414560540
5414568475
5414572320
5414581963
5414591119
5414598016
5414603692
5414609612
5414615288
5414620782
5414626580
5414632622
5414638054
5414643975
5414650261
5414655388
5414660943
5414665337
5414671197
5414675835
5414682305
5414688286
5414694207
5414699883
5414705132
5414710686
5414715081
5414722344
5414728875
5414733574
5414740105
5414745476
5414750664
5414756096
5414762078
5414768181
5414774773
5414780998
5414786553
5414791191
5414798882
5414803948
5414809807
5414814385
5414820793
5414826470
5414832451
5414838310
5414843926
5414849663
5414855888
5414861504
5414866936
5414872124
5414878044
5414883903
5414889152
5414896233
5414901421
5414907524
5414911980
5414918205
5414923698
5414929191
5414932548
5414938774
5414945183
5414951958
5414957390
5414963981
5414969291
5414976005
5414980705
5414985649
5414993156
5414997856
5415003959
5415012321
5415016838
5415024711
5415030082
5415037101
5415041557
5415047538
5415052726
5415058708
5415064506
5415070671
5415077995
5415082939
5415092765
5415101798
5415109733
5415119743
5415124015
5415132438
5415139457
5415145988
5415150993
5415156913
5415162711
5415169364
5415174064
5415179862
5415185661
5415190848
5415196036
5415203666
5415209891
5415216056
5415221976
5415226676
5415232352
5415237723
5415242362
5415248710
5415253959
5415260550
5415264396
5415271903
5415278129
5415283683
5415289298
5415294669
5415300284
5415304862
5415311576
5415318168
5415324088
5415329032
5415335196
5415340262
5415346488
5415349723
5415359366
5415364310
5415368338
5415375174
5415380240
5415386588
5415391776
5415398795
5415404898
5415410697
5415414115
5415422720
5415429312
5415433951
5415439444
5415444632
5415450980
5415457632
5415463858
5415468314
5415473746
5415478445
5415484671
5415489737
5415497000
5415504019
5415508230
5415513907
5415519278
5415523916
5415529715
5415536551
5415541250
5415548514
5415553152
5415560782
5415565298
5415571707
5415576956
5415583914
5415590445
5415594656
5415601370
5415607779
5415613333
5415619314
5415625418
5415631033
5415638906
5415645559
5415651785
5415658865
5415663687
5415671194
5415678030
5415684744
5415690786
5415696035
5415702871
5415710195
5415718557
5415726186
5415735464
5415744253
5415753286
5415761160
5415771963
5415780019
5415787832
5415798147
5415808034
5415816640
5415824819
5415832265
5415840505
5415849355
5415857412
5415866323
5415877065
5415883596
5415890493
5415896169
5415905446
5415915273
5415924428
5415934072
5415943105
5415952504
5415963613
5415972341
5415982533
5415992604
5416000661
5416008412
5416016530
5416026906
5416035878
5416043813
5416050649
5416060841
5416068715
5416078297
5416086720
5416095143
5416103078
5416111989
5416122426
5416129017
5416139027
5416146046
5416155507
5416162526
5416173451
5416183339
5416192921
5416202748
5416211781
5416220509
5416228321
5416240101
5416247914
5416257008
5416265736
5416272816
5416283070
5416291126
5416299671
5416308766
5416317249
5416325245
5416333546
5416342579
5416351917
5416363270
5416371693
5416380665
5416395435
5416409351
5416420093
5416430164
5416437366
5416446888
5416457691
5416466541
5416474781
5416484058
5416492786
5416500782
5416507068
5416517139
5416525806
5416534778
5416544178
5416552783
5416566699
5416574939
5416582630
5416590076
5416599414
5416609241
5416617969
5416626453
5416636279
5416644702
5416652881
5416661609
5416671008
5416678699
5416688281
5416696094
5416704333
5416713550
5416725879
5416735461
5416744006
5416751513
5416761035
5416769824
5416778979
5416785998
5416796252
5416802966
5416813281
5416821215
5416830859
5416838916
5416847216
5416857470
5416863452
5416873889
5416882922
5416890185
5416900195
5416908801
5416917407
5416925890
5416935961
5416944506
5416951342
5416959643
5416970202
5416976366
5416988268
5416995470
5417004992
5417012072
5417022265
5417030199
5417038561
5417046740
5417057421
5417066393
5417072435
5417082689
5417091539
5417100328
5417106005
5417116381
5417122362
5417128344
5417133165
5417140734
5417147875
5417152452
5417159654
5417167101
5417173387
5417179369
5417185839
5417193102
5417198534
5417206163
5417211229
5417217638
5417223741
5417230150
5417236375
5417241686
5417247240
5417253770
5417260118
5417265123
5417271593
5417277208
5417282579
5417287279
5417294603
5417300157
5417307359
5417312974
5417318284
5417323778
5417328721
5417336473
5417341661
5417349107
5417353746
5417360277
5417364793
5417370836
5417375596
5417382921
5417389024
5417394944
5417400377
5417405687
5417411241
5417418199
5417424668
5417429307
5417436082
5417441392
5417447740
5417452317
5417458543
5417463670
5417472337
5417477220
5417482774
5417489305
5417494431
5417500779
5417506638
5417513230
5417517564
5417524644
5417529832
5417534837
5417539536
5417547105
5417553208
5417559434
5417564988
5417569505
5417575791
5417582078
5417588792
5417595139
5417600999
5417606126
5417612900
5417616074
5417622971
5417628464
5417634690
5417640488
5417646531
5417652756
5417659470
5417666001
5417671128
5417678757
5417684617
5417689255
5417695237
5417701645
5417709214
5417715561
5417721665
5417728012
5417735154
5417740647
5417747849
5417754502
5417760849
5417767319
5417773911
5417780014
5417786362
5417793137
5417799545
5417805100
5417811142
5417818405
5417826767
5417831528
5417840073
5417844955
5417852341
5417858139
5417863449
5417869003
5417875351
5417880844
5417888534
5417893906
5417900680
5417905197
5417912277
5417919723
5417925094
5417930038
5417935470
5417941147
5417946701
5417953537
5417960067
5417965316
5417971725
5417977340
5417983017
5417987472
5417995529
5417999252
5418005905
5418012558
5418018539
5418023910
5418029586
5418037033
5418043746
5418048568
5418056564
5418061080
5418068160
5418074020
5418080306
5418085678
5418091537
5418098129
5418103072
5418108871
5418113265
5418120834
5418127792
5418132980
5418137679
5418142867
5418149215
5418153243
5418160567
5418165206
5418172835
5418179855
5418186019
5418192733
5418198043
5418205611
5418211349
5418216659
5418221663
5418227584
5418235457
5418240462
5418246993
5418257674
5418267806
5418275740
5418282821
5418289412
5418296370
5418301009
5418306197
5418311019
5418317611
5418322982
5418328841
5418334578
5418338546
5418344344
5418349715
5418355940
5418361556
5418366805
5418372298
5418378340
5418383956
5418389388
5418394209
5418400862
5418409102
5418414961
5418420943
5418427412
5418432784
5418438338
5418443892
5418450240
5418456709
5418460677
5418467024
5418472273
5418478255
5418484907
5418491865
5418497359
5418502119
5418508772
5418513655
5418520796
5418526900
5418532576
5418538008
5418543379
5418548567
5418554731
5418559797
5418565596
5418572920
5418579023
5418585249
5418592634
5418597212
5418603621
5418611250
5418617414
5418623518
5418631208
5418637251
5418643965
5418650679
5418656294
5418662763
5418669172
5418675886
5418682478
5418689131
5418695295
5418702741
5418708784
5418714582
5418721540
5418726545
5418731977
5418739423
5418745527
5418750837
5418757063
5418764020
5418769819
5418778059
5418783247
5418790571
5418796735
5418802534
5418809125
5418815046
5418822797
5418828229
5418834333
5418840864
5418846723
5418852643
5418858442
5418864789
5418869916
5418876874
5418883527
5418889325
5418894330
5418900312
5418907697
5418914533
5418920209
5418924665
5418931623
5418938825
5418945233
5418951337
5418956098
5418962995
5418967755
5418974896
5418978375
5418987287
5418993634
5418999921
5419005475
5419011517
5419017499
5419023846
5419029157
5419035748
5419041608
5419047955
5419053448
5419058209
5419066022
5419071454
5419077313
5419083844
5419090436
5419097027
5419103436
5419109234
5419115582
5419121319
5419125897
5419132489
5419137188
5419144574
5419149640
5419155194
5419158551
5419166363
5419172833
5419178936
5419184796
5419190350
5419196270
5419201886
5419207562
5419213971
5419220318
5419227154
5419233624
5419237164
5419245037
5419251019
5419256268
5419262676
5419269695
5419275860
5419279339
5419286480
5419293560
5419300274
5419308636
5419313397
5419320477
5419327557
5419335552
5419341290
5419348003
5419352886
5419362408
5419368816
5419374676
5419380352
5419386455
5419392559
5419399212
5419405254
5419408489
5419417705
5419423076
5419428570
5419434673
5419440716
5419446148
5419452190
5419457866
5419462627
5419470806
5419476909
5419482280
5419488506
5419494548
5419499858
5419505840
5419512859
5419518657
5419524089
5419529827
5419535930
5419541851
5419548137
5419554424
5419559062
5419564189
5419568950
5419576885
5419582439
5419587871
5419594463
5419599895
5419606181
5419614665
5419620158
5419626689
5419634380
5419640605
5419646892
5419652324
5419659038
5419663249
5419671428
5419676677
5419682780
5419689555
5419694926
5419703532
5419708476
5419714030
5419720012
5419724223
5419731303
5419738017
5419745768
5419756999
5419763102
5419769572
5419775737
5419782023
5419791972
5419797770
5419802531
5419809306
5419815654
5419821269
5419827800
5419834391
5419842570
5419848979
5419856059
5419863261
5419868693
5419877238
5419884257
5419891581
5419897990
5419903910
5419909892
5419918070
5419931681
5419946146
5419953959
5419963663
5419973063
5419981486
5419988932
5419996805
5420004923
5420009562
5420016886
5420022501
5420028849
5420035624
5420041727
5420046915
5420053263
5420058451
5420065287
5420070719
5420077189
5420083719
5420089945
5420095316
5420100870
5420105082
5420111795
5420117105
5420122599
5420128397
5420135355
5420141641
5420149088
5420153604
5420160929
5420165506
5420171488
5420178568
5420185465
5420191690
5420196817
5420201334
5420207803
5420214212
5420220377
5420226663
5420232828
5420238077
5420243936
5420248392
5420255838
5420261941
5420267313
5420274332
5420280191
5420287027
5420293130
5420298379
5420304910
5420310586
5420315652
5420322488
5420326516
5420333291
5420339944
5420345193
5420351053
5420355752
5420363687
5420369729
5420378152
5420384683
5420391153
5420398294
5420404153
5420412271
5420417703
5420423928
5420428689
5420436013
5420440286
5420446939
5420451699
5420457437
5420462258
5420468057
5420473977
5420479409
5420484292
5420491494
5420496011
5420502602
5420509927
5420513467
5420520364
5420524636
5420533608
5420538796
5420543313
5420550027
5420555154
5420560830
5420567849
5420571999
5420579629
5420585183
5420590493
5420596108
5420603982
5420610695
5420616738
5420621132
5420627724
5420633584
5420638161
5420644509
5420650979
5420657082
5420663735
5420667824
5420674904
5420679543
5420686989
5420692665
5420698220
5420703652
5420709877
5420715920
5420721291
5420728249
5420733315
5420739846
5420743874
5420750588
5420755226
5420762673
5420768166
5420772926
5420779091
5420785927
5420791542
5420798256
5420803688
5420810646
5420815590
5420821327
5420828835
5420834084
5420844215
5420850014
5420855995
5420862404
5420867348
5420875465
5420881935
5420887916
5420897011
5420900307
5420909401
5420914955
5420920448
5420926796
5420930763
5420938026
5420943702
5420949257
5420954628
5420960548
5420967262
5420974098
5420977882
5420985389
5420989540
5420995643
5421001686
5421007362
5421012977
5421019630
5421025184
5421030555
5421036598
5421042335
5421046913
5421055152
5421062232
5421066932
5421074317
5421079383
5421085426
5421091651
5421097083
5421102210
5421107459
5421114356
5421121864
5421127845
5421133033
5421139136
5421145423
5421150428
5421156776
5421163856
5421169166
5421174354
5421179175
5421184424
5421191566
5421196631
5421203528
5421208594
5421216102
5421221106
5421226417
5421232154
5421236548
5421243323
5421248145
5421253882
5421260352
5421266517
5421271460
5421277625
5421284583
5421290076
5421295996
5421299842
5421307288
5421313147
5421320044
5421326148
5421333167
5421338660
5421344031
5421350989
5421359473
5421366858
5421374976
5421382849
5421389258
5421397192
5421406165
5421412207
5421417639
5421422888
5421430090
5421434546
5421441016
5421448035
5421452551
5421459814
5421464758
5421470801
5421476111
5421482703
5421488318
5421493078
5421500586
5421505774
5421511389
5421517431
5421524695
5421531836
5421537634
5421542456
5421548315
5421554419
5421559362
5421564184
5421571020
5421576025
5421581823
5421588537
5421594458
5421598730
5421603796
5421610998
5421618322
5421623327
5421629309
5421635168
5421640173
5421646032
5421651830
5421658605
5421663976
5421669409
5421675024
5421680883
5421687597
5421693273
5421697912
5421703466
5421709570
5421715734
5421720556
5421725561
5421734228
5421738134
5421743078
5421747961
5421752172
5421756628
5421762121
5421766942
5421771825
5421775793
5421779943
5421784093
5421788549
5421793615
5421798803
5421803014
5421806981
5421810399
5421814916
5421819372
5421824193
5421829137
5421834630
5421840123
5421845617
5421850560
5421856542
5421861730
5421868322
5421874059
5421877538
5421881871
5421888036
5421893468
5421897130
5421903173
5421907811
5421913549
5421917760
5421924779
5421928502
5421933263
5421938573
5421942662
5421946935
5421950841
5421958348
5421962804
5421967442
5421972325
5421976781
5421981419
5421984532
5421990636
5421995946
5422001622
5422005956
5422010716
5422015111
5422020116
5422024815
5422029942
5422034886
5422038853
5422044530
5422047459
5422052830
5422056309
5422062779
5422067784
5422072972
5422076756
5422081517
5422086095
5422090123
5422096715
5422101536
5422105992
5422110570
5422114964
5422117405
5422123387
5422128392
5422133763
5422138768
5422144017
5422148350
5422153660
5422158787
5422162693
5422168492
5422172154
5422178318
5422183934
5422188572
5422193150
5422198277
5422203648
5422208103
5422215306
5422220005
5422223973
5422228184
5422232334
5422237705
5422243565
5422248142
5422254673
5422258518
5422265965
5422270970
5422278172
5422284214
5422290928
5422298557
5422303928
5422310337
5422313999
5422321568
5422325413
5422331760
5422337070
5422340733
5422345615
5422350193
5422354282
5422359287
5422363132
5422367832
5422373325
5422378208
5422383945
5422387241
5422393833
5422397129
5422405124
5422409641
5422416050
5422420322
5422425083
5422429172
5422434177
5422437046
5422444065
5422448703
5422453769
5422458652
5422464145
5422470371
5422475437
5422481235
5422487705
5422493076
5422498996
5422501010
5422509555
5422513340
5422521274
5422524753
5422531833
5422535129
5422542209
5422548252
5422552585
5422555881
5422564060
5422568210
5422575412
5422580478
5422587863
5422594089
5422600070
5422603671
5422611545
5422617892
5422625522
5422629428
5422636081
5422641086
5422646518
5422654147
5422658725
5422663425
5422670383
5422674960
5422680759
5422686557
5422691562
5422697238
5422704440
5422709201
5422715365
5422721957
5422726779
5422731295
5422737643
5422743502
5422748752
5422754672
5422759860
5422766818
5422773104
5422779208
5422784518
5422790927
5422796969
5422803439
5422808322
5422814486
5422819186
5422824923
5422832614
5422839877
5422845614
5422852694
5422859103
5422867892
5422874789
5422881320
5422888583
5422894381
5422898837
5422904208
5422909579
5422915316
5422920748
5422925448
5422932223
5422936678
5422940829
5422946871
5422950228
5422958285
5422964144
5422970186
5422973360
5422980562
5422983736
5422990572
5422993868
5423002291
5423006197
5423013033
5423016329
5423023348
5423028353
5423034456
5423039278
5423046358
5423051546
5423057161
5423062288
5423068575
5423073702
5423079256
5423083651
5423089876
5423096041
5423101595
5423106478
5423111849
5423118563
5423123567
5423127901
5423134554
5423140901
5423146639
5423151094
5423157503
5423164644
5423169649
5423174349
5423182954
5423188142
5423194307
5423200533
5423206697
5423211519
5423217928
5423223116
5423230867
5423238069
5423243318
5423249727
5423254610
5423260530
5423264680
5423272188
5423276887
5423282686
5423286836
5423295503
5423303010
5423308259
5423312288
5423320772
5423324556
5423331086
5423336396
5423343354
5423349336
5423355439
5423360139
5423366304
5423371675
5423379243
5423385469
5423391511
5423397859
5423402864
5423408113
5423412446
5423422456
5423430207
5423437165
5423444367
5423454560
5423461274
5423468781
5423471650
5423482209
5423486237
5423494904
5423501740
5423507539
5423512543
5423519257
5423525239
5423531403
5423537019
5423545380
5423550568
5423556489
5423561433
5423566987
5423573762
5423579377
5423583649
5423591096
5423596161
5423601777
5423607880
5423612275
5423618134
5423622529
5423626740
5423636689
5423642121
5423648163
5423654999
5423659943
5423664338
5423670075
5423676239
5423682587
5423688691
5423695404
5423699738
5423705780
5423711518
5423713410
5423723236
5423726471
5423735932
5423739899
5423746735
5423750519
5423758209
5423763703
5423768768
5423773773
5423781708
5423787567
5423793304
5423798859
5423804108
5423810394
5423814667
5423821503
5423829498
5423835236
5423840118
5423846405
5423851532
5423856598
5423863006
5423867340
5423870819
5423880829
5423885711
5423892792
5423896026
5423903412
5423906769
5423914764
5423920013
5423926544
5423932159
5423938629
5423943512
5423948944
5423954193
5423961334
5423966461
5423974334
5423979461
5423986541
5423993255
5423998626
5424003082
5424009124
5424013458
5424020904
5424027435
5424037261
5424041107
5424048431
5424055145
5424061675
5424067840
5424075042
5424084380
5424089690
5424096404
5424101958
5424108306
5424112884
5424120208
5424125640
5424131622
5424136504
5424143584
5424148772
5424155242
5424160003
5424167083
5424172027
5424178741
5424185271
5424189849
5424194915
5424201079
5424206878
5424212859
5424218902
5424224212
5424229949
5424234465
5424242278
5424246367
5424251860
5424257537
5424264861
5424271270
5424276213
5424281096
5424288176
5424291716
5424298552
5424303069
5424310332
5424316619
5424323699
5424327239
5424334807
5424338774
5424345488
5424350127
5424357085
5424362273
5424368804
5424373625
5424378996
5424385832
5424390654
5424395049
5424403105
5424408415
5424413176
5424417570
5424423918
5424429533
5424433501
5424440764
5424445341
5424453459
5424456023
5424464567
5424467985
5424475798
5424479643
5424487395
5424491057
5424500639
5424506926
5424513762
5424518644
5424524138
5424528715
5424533476
5424539885
5424547087
5424552031
5424559843
5424564604
5424569548
5424577299
5424581144
5424588163
5424594572
5424601103
5424607939
5424613554
5424618681
5424624845
5424630216
5424637480
5424649870
5424657194
5424665861
5424673979
5424682401
5424687284
5424694791
5424700590
5424707304
5424711637
5424718229
5424722684
5424728178
5424732694
5424739652
5424744962
5424752531
5424756864
5424763456
5424767911
5424774442
5424780118
5424785978
5424790555
5424795133
5424802579
5424807523
5424813932
5424817411
5424824674
5424827909
5424836393
5424840482
5424848356
5424852323
5424859952
5424864286
5424872159
5424876310
5424886685
5424892240
5424900357
5424903165
5424911893
5424916410
5424924100
5424928250
5424937222
5424941495
5424948758
5424955533
5424961942
5424969388
5424975064
5424980130
5424988980
5424995084
5425001920
5425005521
5425014004
5425018460
5425027859
5425033841
5425040799
5425047269
5425053433
5425061978
5425066861
5425073392
5425080411
5425086819
5425092007
5425097378
5425103970
5425108975
5425115017
5425119351
5425126492
5425130703
5425139798
5425143948
5425151944
5425155850
5425163113
5425168667
5425173245
5425178372
5425187893
5425195095
5425201138
5425207363
5425212429
5425215847
5425224026
5425229946
5425235562
5425242886
5425249600
5425258389
5425264797
5425271816
5425277309
5425286648
5425295376
5425302151
5425308193
5425312832
5425319057
5425323208
5425329555
5425335537
5425341274
5425345364
5425350124
5425355800
5425360744
5425366970
5425372890
5425378811
5425383877
5425389004
5425396328
5425401638
5425406582
5425411037
5425419155
5425424282
5425429592
5425434047
5425441066
5425447231
5425453273
5425458644
5425468654
5425473171
5425480251
5425486232
5425490688
5425496486
5425502223
5425508083
5425514736
5425523525
5425530849
5425536281
5425541835
5425546108
5425553188
5425557826
5425562526
5425570216
5425576625
5425581081
5425587550
5425592006
5425595485
5425603969
5425607326
5425617335
5425622523
5425627345
5425632899
5425638515
5425643703
5425649623
5425654628
5425661952
5425667567
5425673427
5425678248
5425683681
5425689906
5425695949
5425700587
5425707911
5425713405
5425720057
5425724696
5425730006
5425734645
5425741298
5425744777
5425752833
5425758204
5425764064
5425768336
5425775416
5425781214
5425786830
5425788356
5425796412
5425804103
5425808680
5425814234
5425818629
5425823756
5425829310
5425837367
5425845545
5425852320
5425860682
5425869959
5425874842
5425882838
5425889552
5425895045
5425901270
5425906702
5425911097
5425916712
5425921229
5425929591
5425934473
5425940516
5425947413
5425953089
5425957545
5425963709
5425968592
5425974817
5425980982
5425986475
5425992945
5425996363
5426003992
5426007471
5426015040
5426019007
5426027674
5426033960
5426038965
5426044153
5426051172
5426055933
5426061182
5426066614
5426074366
5426079798
5426085474
5426090540
5426099024
5426103845
5426109644
5426114099
5426120081
5426126550
5426133020
5426138025
5426144312
5426150049
5426154627
5426160303
5426163843
5426173731
5426180200
5426186609
5426190942
5426196558
5426201501
5426208154
5426211999
5426219324
5426224573
5426230676
5426235437
5426241785
5426246911
5426253015
5426257837
5426264856
5426272302
5426276758
5426283471
5426289575
5426293847
5426299707
5426305444
5426311914
5426318445
5426324609
5426329248
5426334802
5426340539
5426346704
5426351709
5426358361
5426363610
5426370202
5426374902
5426380944
5426387475
5426391748
5426399499
5426404138
5426412255
5426419396
5426425500
5426430932
5426440209
5426448022
5426455895
5426460351
5426469567
5426474877
5426482385
5426486779
5426496606
5426501061
5426508630
5426512109
5426521508
5426525353
5426532616
5426538415
5426545190
5426549035
5426557397
5426561913
5426569726
5426573815
5426581139
5426586876
5426594140
5426599755
5426605553
5426610741
5426619347
5426624718
5426630455
5426636254
5426642662
5426649437
5426654442
5426661827
5426667626
5426672631
5426679100
5426683678
5426689659
5426694847
5426700096
5426705345
5426712853
5426718407
5426724755
5426729576
5426735069
5426742149
5426749535
5426754540
5426762657
5426767784
5426775108
5426779869
5426786522
5426792015
5426798546
5426805748
5426811790
5426816734
5426823265
5426827782
5426832909
5426839500
5426844627
5426849754
5426857628
5426865013
5426872337
5426877525
5426882713
5426890098
5426894188
5426903160
5426907188
5426915733
5426920433
5426927269
5426933982
5426939720
5426945274
5426952110
5426958519
5426965721
5426972557
5426979942
5426984153
5426993003
5426998924
5427004600
5427009788
5427016868
5427022788
5427030906
5427039634
5427042320
5427054099
5427061485
5427069358
5427075401
5427089439
5427101218
5427113364
5427122825
5427132835
5427142478
5427151633
5427163108
5427172446
5427180686
5427187339
5427194053
5427198752
5427207053
5427213889
5427221152
5427230918
5427237632
5427243491
5427251364
5427260398
5427263816
5427275351
5427278586
5427294394
5427300986
5427309714
5427318137
5427325461
5427330100
5427338950
5427343955
5427353598
5427360373
5427366354
5427376120
5427383505
5427390463
5427397726
5427405722
5427412863
5427418539
5427430990
5427438071
5427447470
5427452963
5427464255
5427473227
5427476828
5427488852
5427494833
5427505697
5427513815
5427522177
5427530478
5427540060
5427548239
5427554525
5427564718
5427571676
5427583090
5427588644
5427597921
5427605795
5427609396
5427621359
5427627279
5427635580
5427643087
5427652670
5427660360
5427666464
5427676351
5427681295
5427690511
5427698385
5427704244
5427713583
5427722066
5427731039
5427739522
5427745626
5427752828
5427761617
5427764730
5427777913
5427784078
5427795247
5427801046
5427804769
5427819722
5427825826
5427835653
5427844991
5427854818
5427862996
5427871541
5427880513
5427886678
5427896260
5427903890
5427914021
5427921895
5427928548
5427938252
5427945943
5427955708
5427963643
5427969624
5427979817
5427987752
5427998677
5428006795
5428016316
5428024129
5428032368
5428044209
5428052449
5428058735
5428071492
5428077900
5428088460
5428096943
5428106160
5428113484
5428118550
5428130024
5428138325
5428143818
5428148152
5428154988
5428160908
5428168843
5428175129
5428180317
5428185627
5428191609
5428198872
5428204121
5428211140
5428216938
5428221882
5428227986
5428234455
5428240864
5428245869
5428252400
5428258808
5428263142
5428271442
5428275166
5428281879
5428289082
5428296406
5428301838
5428307392
5428312275
5428319477
5428326496
5428332111
5428339435
5428346943
5428352375
5428358784
5428365253
5428370014
5428376545
5428381916
5428388019
5428393451
5428401691
5428406513
5428414447
5428419880
5428425312
5428431964
5428438434
5428443378
5428450336
5428457172
5428461566
5428468463
5428472370
5428479999
5428485370
5428492206
5428498126
5428503803
5428510822
5428515521
5428523029
5428528827
5428533710
5428538959
5428546039
5428549701
5428557880
5428564166
5428569171
5428574786
5428582599
5428586444
5428594562
5428600482
5428607440
5428613116
5428619769
5428626483
5428632220
5428638568
5428642718
5428649554
5428656085
5428665484
5428670062
5428679400
5428684955
5428691607
5428698565
5428703631
5428708819
5428717425
5428722735
5428732989
5428738665
5428748126
5428753070
5428762164
5428768450
5428775347
5428781085
5428788287
5428793902
5428800128
5428805499
5428810931
5428815386
5428825518
5428830828
5428836321
5428840655
5428846270
5428852618
5428858355
5428863238
5428870196
5428876238
5428881182
5428887041
5428891314
5428898882
5428903094
5428909502
5428912981
5428921587
5428928118
5428933855
5428937334
5428945574
5428948931
5428956927
5428962359
5428967730
5428973284
5428979937
5428984758
5428990557
5428996050
5429002276
5429011370
5429018694
5429024858
5429029558
5429036333
5429040850
5429047930
5429054033
5429058794
5429062517
5429070391
5429074053
5429080889
5429085222
5429092546
5429098100
5429103533
5429108782
5429118120
5429123491
5429129778
5429135698
5429140276
5429144792
5429151262
5429158525
5429163530
5429169634
5429174516
5429181596
5429186540
5429191789
5429198625
5429203874
5429209245
5429215532
5429221391
5429227983
5429233354
5429239030
5429244768
5429250566
5429255388
5429259904
5429267290
5429272661
5429279802
5429284501
5429290849
5429294511
5429301530
5429305253
5429312761
5429317521
5429325090
5429330766
5429336808
5429342973
5429349687
5429355485
5429365556
5429371965
5429377397
5429385026
5429390824
5429396195
5429404496
5429409745
5429416642
5429421830
5429428056
5429435319
5429440568
5429447404
5429452897
5429459611
5429467484
5429474686
5429479691
5429486161
5429490983
5429495377
5429502640
5429507157
5429515031
5429521805
5429526749
5429531144
5429538285
5429542863
5429548844
5429553177
5429561539
5429566788
5429572159
5429576920
5429583573
5429589432
5429595353
5429599808
5429606034
5429612809
5429618241
5429624833
5429630143
5429635941
5429639420
5429646439
5429649979
5429657730
5429665482
5429669998
5429676712
5429681229
5429686783
5429693131
5429696915
5429704849
5429711380
5429716385
5429721207
5429728104
5429732864
5429738968
5429745438
5429752945
5429758133
5429764908
5429770584
5429775528
5429781754
5429786758
5429792801
5429800919
5429805801
5429812393
5429818741
5429824051
5429828506
5429834671
5429839676
5429846390
5429852615
5429856460
5429864395
5429870010
5429875503
5429879654
5429885086
5429892288
5429898025
5429904800
5429909134
5429915176
5429921157
5429926162
5429931106
5429939285
5429947647
5429953994
5429959304
5429966384
5429971145
5429978103
5429986465
5429994460
5429999526
5430006606
5430012344
5430016677
5430023269
5430027725
5430034438
5430040176
5430045852
5430050002
5430055434
5430061477
5430067275
5430073135
5430079177
5430084731
5430091445
5430095718
5430101150
5430106704
5430112563
5430118972
5430125014
5430131362
5430135757
5430143081
5430148757
5430153579
5430159682
5430165053
5430170241
5430177443
5430181350
5430187697
5430192580
5430198439
5430203322
5430209731
5430215773
5430223464
5430228896
5430235976
5430241347
5430246352
5430252639
5430257949
5430262953
5430270522
5430275344
5430282668
5430287306
5430292983
5430297377
5430301467
5430309584
5430315749
5430322524
5430324782
5430333876
5430337477
5430344862
5430351027
5430356337
5430361586
5430369215
5430375014
5430380812
5430385939
5430393202
5430398024
5430404677
5430409254
5430416823
5430422865
5430429213
5430433485
5430439100
5430445021
5430449049
5430456923
5430460829
5430469923
5430476088
5430481886
5430487318
5430494947
5430500929
5430505690
5430516066
5430524122
5430534193
5430539381
5430548963
5430556227
5430567396
5430575941
5430585218
5430594068
5430601332
5430615919
5430619459
5430631788
5430642530
5430651380
5430660169
5430663343
5430674024
5430678846
5430688795
5430696546
5430702466
5430708631
5430716077
5430724561
5430727064
5430738843
5430743970
5430753187
5430761060
5430768140
5430775281
5430783033
5430790174
5430795179
5430805249
5430812452
5430820752
5430828443
5430835706
5430842542
5430851270
5430858228
5430863294
5430872998
5430879773
5430890393
5430899365
5430902051
5430913220
5430918652
5430927136
5430931836
5430940015
5430946790
5430952039
5430964490
5430970288
5430978467
5430985852
5430992871
5430999463
5431006055
5431015332
5431020947
5431031079
5431038952
5431045666
5431051831
5431058056
5431064404
5431072339
5431078015
5431084179
5431094494
5431101025
5431108838
5431115002
5431122876
5431129528
5431136425
5431144360
5431150647
5431160534
5431167553
5431174999
5431181774
5431186596
5431195934
5431202953
5431209667
5431218456
5431226269
5431232739
5431238476
5431247936
5431255810
5431261974
5431268932
5431278759
5431285534
5431294384
5431300732
5431309765
5431317333
5431323986
5431331066
5431337230
5431344677
5431350963
5431356945
5431369213
5431375744
5431385143
5431392772
5431400829
5431407909
5431414501
5431422557
5431429699
5431441295
5431453014
5431455822
5431471385
5431477916
5431486400
5431493358
5431501964
5431512096
5431515575
5431528331
5431537792
5431544627
5431550853
5431556468
5431560252
5431568126
5431572093
5431581981
5431586009
5431593211
5431596690
5431605235
5431608653
5431617137
5431620860
5431628062
5431634044
5431638743
5431644114
5431651378
5431656199
5431662303
5431667247
5431674266
5431680186
5431687144
5431692149
5431696788
5431702891
5431708751
5431714488
5431720225
5431726329
5431731578
5431737437
5431743357
5431748301
5431754771
5431759288
5431766673
5431773631
5431778330
5431784861
5431788340
5431794749
5431799876
5431806223
5431810618
5431820872
5431826182
5431831187
5431839243
5431848216
5431854136
5431860606
5431864268
5431874400
5431881419
5431885996
5431890940
5431897837
5431903147
5431909067
5431914194
5431922251
5431927622
5431933665
5431939097
5431945322
5431951548
5431957041
5431961680
5431968760
5431973642
5431979685
5431986277
5431992502
5431996897
5432003244
5432007883
5432015024
5432021189
5432026804
5432032480
5432039499
5432044504
5432047861
5432055551
5432061533
5432068308
5432072336
5432079294
5432084482
5432090586
5432098642
5432102915
5432110666
5432119028
5432125436
5432132089
5432137766
5432145090
5432150461
5432156870
5432162851
5432169565
5432174264
5432180978
5432185068
5432190927
5432195077
5432201425
5432206247
5432214731
5432220773
5432228830
5432234262
5432242380
5432247934
5432255014
5432260629
5432266977
5432271920
5432277047
5432281686
5432286325
5432290902
5432295602
5432300363
5432305856
5432310678
5432315194
5432319772
5432324289
5432329049
5432333688
5432339059
5432343515
5432348031
5432351632
5432357614
5432362130
5432367562
5432372811
5432380807
5432384408
5432390450
5432395028
5432399606
5432404000
5432408944
5432412179
5432421090
5432426644
5432431344
5432434640
5432442391
5432445565
5432452584
5432457711
5432465035
5432471200
5432476937
5432481454
5432486886
5432492135
5432496529
5432499947
5432510567
5432517708
5432522713
5432529061
5432534798
5432540474
5432546761
5432552071
5432560494
5432564156
5432570321
5432575936
5432582711
5432588326
5432593697
5432600228
5432606636
5432612130
5432617806
5432622322
5432627999
5432634468
5432640511
5432645027
5432654122
5432658882
5432665901
5432672127
5432679451
5432684578
5432691963
5432698494
5432705208
5432710945
5432718758
5432723274
5432727669
5432733528
5432738594
5432742989
5432750130
5432756416
5432761787
5432767586
5432773018
5432777656
5432784798
5432789253
5432796455
5432801338
5432808052
5432812202
5432818184
5432822334
5432828010
5432834114
5432840767
5432847175
5432853767
5432859871
5432865364
5432871101
5432877083
5432883064
5432890815
5432895515
5432901374
5432907234
5432910713
5432918159
5432924263
5432930671
5432934944
5432942695
5432948249
5432952949
5432957832
5432964607
5432970222
5432976203
5432981208
5432987983
5432993476
5432998542
5433003181
5433008979
5433015205
5433021003
5433026801
5433032661
5433037055
5433043586
5433049751
5433053107
5433060188
5433063911
5433072578
5433076484
5433084113
5433088996
5433095161
5433102241
5433107368
5433112433
5433117744
5433124702
5433130744
5433135810
5433142768
5433147162
5433152778
5433158881
5433160773
5433169623
5433173163
5433182319
5433189399
5433194281
5433197699
5433205268
5433210944
5433216925
5433221686
5433230109
5433236884
5433241400
5433247443
5433255683
5433261603
5433268134
5433277716
5433284796
5433290534
5433296942
5433304328
5433311163
5433316535
5433323187
5433327521
5433334357
5433338812
5433344855
5433351569
5433356146
5433362738
5433368109
5433372687
5433379217
5433383856
5433389654
