5144069045
5144074660
5144080153
5144085647
5144090529
5144094985
5144100417
5144107497
5144112441
5144118850
5144124892
5144131179
5144137831
5144142531
5144149306
5144156142
5144162062
5144170546
5144177443
5144183241
5144190016
5144196303
5144200759
5144207961
5144216078
5144222548
5144230361
5144237441
5144244399
5144250868
5144257399
5144263808
5144269484
5144277785
5144286024
5144293532
5144300917
5144307753
5144314955
5144322890
5144330458
5144338515
5144346815
5144353529
5144360487
5144366957
5144374830
5144382582
5144388319
5144396498
5144400038
5144408644
5144417311
5144424147
5144432692
5144439772
5144446058
5144451307
5144459059
5144464247
5144472975
5144480116
5144486769
5144495069
5144500196
5144508558
5144513197
5144521681
5144528150
5144536817
5144543470
5144551954
5144561109
5144569044
5144577344
5144585645
5144593397
5144599683
5144608289
5144615736
5144623060
5144630323
5144637952
5144646009
5144653943
5144660718
5144668287
5144675550
5144682142
5144692701
5144702100
5144711011
5144719129
5144727857
5144737683
5144744275
5144752210
5144761243
5144768384
5144775342
5144782239
5144789868
5144796521
5144805066
5144813428
5144819348
5144828076
5144835767
5144843091
5144850354
5144858411
5144866101
5144874097
5144881177
5144887707
5144896130
5144902173
5144910962
5144917981
5144925244
5144931897
5144940137
5144947400
5144955334
5144961804
5144969006
5144977917
5144982495
5144990857
5144998120
5145005871
5145013684
5145021130
5145029370
5145035351
5145042919
5145050671
5145057995
5145063854
5145072644
5145081433
5145087414
5145095776
5145102368
5145112927
5145117626
5145128430
5145134655
5145141918
5145149853
5145157116
5145165600
5145169811
5145179699
5145187511
5145195141
5145202343
5145209484
5145215893
5145222912
5145230419
5145235912
5145246166
5145252758
5145261608
5145267833
5145275524
5145282116
5145290905
5145298717
5145305980
5145313427
5145320324
5145328075
5145335582
5145341686
5145349315
5145357677
5145365673
5145373424
5145381359
5145389476
5145399364
5145407848
5145417064
5145424388
5145433360
5145439952
5145446666
5145456432
5145464122
5145471385
5145478099
5145486217
5145493602
5145500499
5145507457
5145514110
5145522532
5145527354
5145537120
5145544932
5145552867
5145559092
5145568614
5145574717
5145581736
5145587474
5145594554
5145600779
5145607554
5145615123
5145621653
5145634166
5145640513
5145647166
5145654368
5145660838
5145669139
5145675852
5145682200
5145690135
5145697032
5145705149
5145712718
5145722422
5145730051
5145736460
5145744639
5145754160
5145758799
5145770335
5145775095
5145784922
5145795420
5145808359
5145815867
5145820566
5145830820
5145838022
5145844004
5145851999
5145859873
5145866465
5145877939
5145886789
5145895334
5145903696
5145912607
5145921335
5145929453
5145935312
5145943125
5145950876
5145958444
5145966379
5145973459
5145981882
5145989633
5145998056
5146006418
5146012338
5146020517
5146028452
5146037119
5146043039
5146053720
5146058969
5146068063
5146073556
5146081796
5146092111
5146099252
5146107431
5146117929
5146125802
5146134347
5146142404
5146150583
5146158456
5146167123
5146175607
5146184274
5146192270
5146200570
5146207895
5146215524
5146223581
5146231576
5146238717
5146246041
5146254037
5146261910
5146268991
5146278268
5146284921
5146290597
5146297921
5146306039
5146313302
5146320931
5146329354
5146336617
5146344552
5146351266
5146357552
5146365670
5146370370
5146378426
5146385262
5146395028
5146401864
5146409127
5146414742
5146421944
5146429452
5146437020
5146444649
5146451424
5146458687
5146467049
5146474556
5146481575
5146490364
5146496834
5146504769
5146514901
5146523445
5146529610
5146536141
5146543831
5146550118
5146554024
5146562020
5146569588
5146574105
5146580757
5146587593
5146597176
5146603890
5146610176
5146616707
5146622688
5146628914
5146633675
5146640999
5146647713
5146653389
5146659920
5146667000
5146672188
5146680244
5146686897
5146692879
5146699104
5146704414
5146710396
5146716499
5146723213
5146730781
5146736336
5146742256
5146747505
5146753486
5146759041
5146767280
5146775703
5146781990
5146788948
5146794990
5146802009
5146808174
5146813972
5146819648
5146824287
5146831611
5146834724
5146841804
5146844612
5146853340
5146860847
5146871406
5146880927
5146887702
5146892463
5146900276
5146906013
5146911079
5146917182
5146922614
5146927192
5146932685
5146938178
5146943794
5146950874
5146956611
5146961677
5146967597
5146973395
5146978522
5146983527
5146990424
5146996101
5147001166
5147006721
5147011786
5147018134
5147022590
5147030402
5147035468
5147040534
5147044806
5147051459
5147058600
5147065314
5147071967
5147078009
5147085273
5147091010
5147095588
5147104377
5147109687
5147115302
5147122199
5147128180
5147134040
5147138739
5147145636
5147152045
5147157843
5147164557
5147170233
5147175849
5147181647
5147187384
5147193488
5147200079
5147205634
5147211249
5147217413
5147222784
5147228278
5147233588
5147240729
5147245062
5147250983
5147255377
5147263068
5147267950
5147273810
5147281317
5147286566
5147296026
5147303046
5147309881
5147315924
5147347845
5147354681
5147359747
5147365851
5147373358
5147379217
5147385504
5147391790
5147397528
5147403570
5147409613
5147416143
5147421453
5147427435
5147433477
5147438848
5147444036
5147450201
5147454534
5147460760
5147467840
5147472906
5147478582
5147484014
5147490545
5147494756
5147501104
5147505499
5147512945
5147518133
5147523260
5147528692
5147534124
5147539739
5147546758
5147552068
5147558538
5147564336
5147572393
5147579778
5147585882
5147590887
5147596563
5147601507
5147607427
5147612493
5147617803
5147623357
5147630315
5147636297
5147642095
5147646306
5147652288
5147658941
5147664190
5147671453
5147675786
5147682012
5147687505
5147693364
5147697820
5147704168
5147712102
5147717595
5147722478
5147727422
5147733525
5147739324
5147744268
5147750859
5147756352
5147762334
5147767766
5147774968
5147780766
5147788518
5147797978
5147803655
5147809697
5147815740
5147821538
5147827153
5147833134
5147838933
5147843877
5147851872
5147858037
5147864018
5147869206
5147875371
5147880498
5147886845
5147892522
5147898503
5147904118
5147909733
5147915837
5147921635
5147927556
5147932744
5147939274
5147945256
5147950932
5147956059
5147962101
5147966496
5147973027
5147978886
5147984684
5147989506
5147997197
5148003300
5148008732
5148013981
5148019780
5148026310
5148030766
5148037358
5148042973
5148048405
5148055119
5148061161
5148066410
5148070683
5148077091
5148082951
5148091007
5148099064
5148104557
5148111027
5148115238
5148122074
5148127995
5148133793
5148138554
5148144413
5148150272
5148156193
5148160831
5148167118
5148171757
5148179081
5148185245
5148190861
5148194095
5148202396
5148207035
5148212711
5148218754
5148224552
5148231449
5148235965
5148242130
5148248295
5148254215
5148259403
5148266178
5148270878
5148277836
5148284427
5148295108
5148303104
5148311649
5148321414
5148325565
5148338260
5148346012
5148354618
5148362064
5148369693
5148380008
5148390079
5148398990
5148405338
5148414920
5148422549
5148430423
5148439212
5148447818
5148457278
5148466495
5148473819
5148482669
5148490298
5148499332
5148506473
5148515323
5148524844
5148532840
5148542056
5148550052
5148558658
5148567630
5148576846
5148583682
5148593814
5148602114
5148611453
5148620059
5148627261
5148635256
5148642459
5148653506
5148662234
5148670657
5148679263
5148688296
5148697329
5148702334
5148713503
5148722903
5148731203
5148740176
5148749270
5148758303
5148765871
5148776369
5148781618
5148794253
5148804018
5148811281
5148821535
5148829714
5148838076
5148846438
5148854860
5148865603
5148872438
5148881411
5148888308
5148898867
5148907473
5148915895
5148925051
5148934023
5148941774
5148950868
5148959169
5148966066
5148976503
5148985719
5148993959
5149002687
5149009279
5149018556
5149027528
5149037599
5149046144
5149054140
5149061464
5149071107
5149079469
5149096132
5149105836
5149117982
5149130861
5149140382
5149147218
5149156617
5149166505
5149174989
5149185670
5149193971
5149202760
5149211061
5149219606
5149227967
5149235169
5149243043
5149251405
5149261292
5149269288
5149280091
5149287415
5149296388
5149304261
5149312562
5149318421
5149328126
5149334962
5149348145
5149355592
5149363892
5149371094
5149379639
5149388611
5149398072
5149406251
5149415101
5149422730
5149431458
5149438660
5149447937
5149457093
5149465943
5149474366
5149481995
5149492676
5149506653
5149516114
5149524842
5149535767
5149547425
5149556092
5149567078
5149572144
5149584107
5149592957
5149599915
5149610901
5149619263
5149627258
5149636841
5149643799
5149653748
5149662292
5149671020
5149679443
5149687317
5149693481
5149697265
5149704223
5149710144
5149716369
5149722290
5149726990
5149733520
5149736877
5149745483
5149751281
5149755859
5149763305
5149770019
5149776855
5149780273
5149788574
5149796386
5149800842
5149807617
5149814147
5149820861
5149825744
5149832519
5149836059
5149843200
5149849670
5149855834
5149861450
5149867614
5149872985
5149879272
5149885803
5149890563
5149895995
5149902953
5149908752
5149913696
5149920226
5149925475
5149931335
5149937194
5149942809
5149949767
5149955688
5149961669
5149966003
5149972533
5149978454
5149983275
5149989440
5149995666
5150000121
5150006896
5150011413
5150017821
5150022582
5150028808
5150034728
5150040648
5150047057
5150052916
5150058837
5150064391
5150069213
5150075133
5150082030
5150088195
5150094054
5150098693
5150106505
5150111571
5150117919
5150123473
5150130858
5150135375
5150141051
5150147582
5150153075
5150158995
5150164671
5150169921
5150175780
5150182189
5150188109
5150193541
5150198912
5150204955
5150211363
5150217284
5150223082
5150229247
5150234251
5150240355
5150245055
5150251219
5150256529
5150264708
5150270628
5150276610
5150280150
5150287291
5150294066
5150299559
5150304503
5150310179
5150316893
5150321165
5150327940
5150332457
5150339720
5150345701
5150353026
5150357908
5150364805
5150369810
5150378172
5150384214
5150390745
5150396177
5150401609
5150407835
5150414549
5150420042
5150425962
5150431761
5150438291
5150444822
5150449461
5150455747
5150460447
5150467283
5150473936
5150480100
5150485655
5150491331
5150497129
5150502622
5150508543
5150514463
5150520994
5150527769
5150533384
5150539304
5150545042
5150549741
5150555418
5150561948
5150566709
5150573911
5150579832
5150583188
5150591367
5150594663
5150602048
5150608030
5150614255
5150619932
5150625547
5150632688
5150637021
5150643674
5150650144
5150656125
5150662595
5150668454
5150673398
5150679746
5150684446
5150691281
5150694394
5150702268
5150709226
5150714841
5150720761
5150726743
5150732846
5150738767
5150744382
5150749875
5150755979
5150761960
5150766904
5150773068
5150778256
5150784787
5150792172
5150799069
5150804990
5150808347
5150817075
5150822079
5150827634
5150833981
5150840390
5150846066
5150851498
5150858517
5150863034
5150869260
5150874081
5150880551
5150886166
5150894040
5150899838
5150906674
5150912655
5150918881
5150926205
5150931454
5150938412
5150944455
5150950680
5150956540
5150961422
5150967404
5150974118
5150982235
5150987545
5150994259
5151000058
5151007565
5151011959
5151018490
5151023495
5151029171
5151034054
5151041378
5151048336
5151053768
5151057003
5151064022
5151069943
5151075436
5151082150
5151088070
5151093441
5151099300
5151107540
5151114742
5151121029
5151127316
5151134212
5151138912
5151145687
5151151546
5151156307
5151163021
5151169308
5151176388
5151181576
5151188717
5151193355
5151200680
5151207516
5151213436
5151218990
5151225155
5151231380
5151237728
5151243587
5151249996
5151256527
5151260738
5151267879
5151272579
5151278194
5151284298
5151291866
5151297542
5151303157
5151309627
5151315059
5151321529
5151325984
5151332271
5151338436
5151343929
5151349910
5151355831
5151360652
5151367183
5151372188
5151380306
5151385616
5151391048
5151397273
5151402828
5151407527
5151415950
5151421138
5151427180
5151433650
5151438716
5151446101
5151452571
5151458369
5151465266
5151471858
5151477534
5151483882
5151490535
5151496760
5151503230
5151509028
5151514522
5151520869
5151527522
5151532161
5151539119
5151545588
5151551387
5151557124
5151563594
5151570979
5151575679
5151582515
5151588069
5151594172
5151600093
5151605708
5151610652
5151617793
5151624629
5151630488
5151636164
5151642146
5151648249
5151654902
5151660090
5151665583
5151671931
5151678095
5151683772
5151690241
5151695429
5151701228
5151706416
5151712336
5151717890
5151722590
5151730158
5151733454
5151740351
5151745234
5151752131
5151758906
5151764826
5151770380
5151775995
5151781306
5151789484
5151797602
5151803461
5151812250
5151817743
5151823359
5151829218
5151835383
5151840937
5151847406
5151853205
5151858027
5151864130
5151868708
5151876093
5151881647
5151888178
5151891474
5151899897
5151905268
5151911005
5151916742
5151923151
5151927973
5151933954
5151939203
5151945307
5151951837
5151956842
5151964044
5151969354
5151976312
5151982843
5151988336
5151993707
5151999017
5152004694
5152012628
5152019281
5152025323
5152032159
5152038751
5152045160
5152051385
5152057794
5152063226
5152069147
5152076105
5152080865
5152086175
5152090814
5152099603
5152105584
5152111139
5152116510
5152122186
5152127435
5152132867
5152138849
5152144647
5152150323
5152155999
5152162347
5152168756
5152174005
5152179864
5152186029
5152190972
5152197991
5152204278
5152209649
5152215264
5152220819
5152226617
5152232598
5152239190
5152243279
5152252984
5152258965
5152264398
5152270379
5152277398
5152283257
5152288689
5152294671
5152300652
5152306634
5152312005
5152319329
5152325310
5152331414
5152337762
5152343499
5152348809
5152355645
5152360772
5152369439
5152375664
5152381035
5152386407
5152391961
5152397332
5152402764
5152408745
5152415093
5152421685
5152426262
5152432915
5152437981
5152444939
5152450005
5152456231
5152462761
5152468193
5152473442
5152479058
5152484368
5152492363
5152499138
5152504509
5152511162
5152515251
5152522331
5152528069
5152532952
5152538933
5152544060
5152551140
5152556938
5152562981
5152568779
5152574700
5152580681
5152585991
5152592766
5152598869
5152605156
5152612053
5152618401
5152624687
5152630974
5152636955
5152643303
5152648735
5152653313
5152659599
5152664970
5152671928
5152676628
5152683464
5152690605
5152696525
5152702202
5152708183
5152713859
5152719230
5152725090
5152730583
5152737114
5152741691
5152748588
5152754570
5152759330
5152765312
5152771965
5152777275
5152783439
5152790397
5152795951
5152799186
5152807182
5152810600
5152817436
5152823783
5152829460
5152835746
5152840080
5152846671
5152852653
5152858207
5152864677
5152870658
5152875175
5152880729
5152886832
5152892997
5152897514
5152904472
5152911430
5152917350
5152923270
5152928947
5152935599
5152939689
5152946586
5152950980
5152958121
5152962699
5152969901
5152976188
5152981498
5152986075
5152993216
5152998710
5153005423
5153011039
5153016715
5153022880
5153028739
5153034110
5153041556
5153046805
5153052726
5153059195
5153064322
5153069693
5153075064
5153082694
5153088004
5153094046
5153099478
5153105582
5153111075
5153115775
5153122122
5153129935
5153136527
5153142630
5153149710
5153155692
5153160819
5153168326
5153173453
5153179739
5153185965
5153192496
5153197501
5153204337
5153209952
5153215384
5153221671
5153227042
5153233145
5153238516
5153244009
5153249380
5153254996
5153262137
5153267813
5153273611
5153279715
5153284537
5153291128
5153296866
5153302969
5153309073
5153314627
5153321219
5153325369
5153332266
5153338125
5153343191
5153349966
5153355886
5153361502
5153367056
5153372427
5153379629
5153385122
5153391714
5153397940
5153402517
5153410086
5153415945
5153421438
5153427908
5153434622
5153440725
5153446707
5153452322
5153458975
5153464773
5153471853
5153478567
5153484182
5153489980
5153495535
5153501150
5153506582
5153513296
5153519399
5153525808
5153530447
5153537466
5153543813
5153549428
5153554922
5153560537
5153567434
5153573354
5153579641
5153584402
5153590810
5153597463
5153603322
5153608388
5153615407
5153621023
5153627919
5153632985
5153638356
5153645742
5153651845
5153655019
5153663137
5153668508
5153676381
5153684743
5153692556
5153699941
5153705312
5153712697
5153718862
5153724172
5153729787
5153736684
5153742848
5153748280
5153753102
5153761281
5153764699
5153772328
5153779042
5153784840
5153790761
5153795583
5153803090
5153808644
5153814809
5153820485
5153827260
5153833302
5153838917
5153844228
5153850087
5153856435
5153861256
5153869130
5153872792
5153882130
5153889515
5153893910
5153899891
5153904286
5153910206
5153915272
5153920094
5153924733
5153930714
5153935414
5153943348
5153949147
5153953785
5153959156
5153964466
5153969776
5153974964
5153979725
5153988087
5153995350
5154002369
5154008839
5154014210
5154018788
5154025685
5154030323
5154035938
5154040821
5154048451
5154054127
5154059925
5154063343
5154069874
5154075672
5154080982
5154086597
5154090870
5154096241
5154101368
5154106312
5154112782
5154117725
5154124073
5154129871
5154135120
5154140919
5154147694
5154152393
5154157215
5154164417
5154170826
5154176807
5154182667
5154186756
5154192432
5154198658
5154205738
5154211475
5154220813
5154231311
5154238453
5154244800
5154250415
5154256153
5154261036
5154268238
5154275806
5154281604
5154288440
5154293872
5154299121
5154304676
5154309680
5154314136
5154320423
5154325794
5154331836
5154336963
5154342151
5154347339
5154352649
5154357410
5154363941
5154370593
5154375171
5154381824
5154386707
5154394458
5154400256
5154405017
5154410327
5154418750
5154424914
5154431140
5154436694
5154441394
5154447986
5154453784
5154459704
5154465320
5154470630
5154476550
5154482287
5154488513
5154494555
5154501819
5154506274
5154512561
5154517505
5154524829
5154533313
5154539416
5154544909
5154549548
5154556018
5154560534
5154566638
5154569628
5154578356
5154583972
5154589282
5154593920
5154598925
5154604907
5154610339
5154617114
5154622119
5154628039
5154632372
5154638842
5154643420
5154649828
5154654284
5154661791
5154667712
5154673205
5154678820
5154683825
5154688403
5154693530
5154699145
5154705370
5154711779
5154716051
5154721545
5154729174
5154735644
5154742480
5154749254
5154755846
5154762560
5154767016
5154775194
5154779772
5154785875
5154791308
5154798388
5154817309
5154822191
5154827929
5154834765
5154840990
5154845995
5154852953
5154857653
5154864366
5154870043
5154875475
5154881334
5154885485
5154891954
5154896593
5154902574
5154908556
5154914659
5154920336
5154925279
5154931383
5154937425
5154942674
5154948900
5154953356
5154959947
5154966112
5154971056
5154977770
5154983019
5154988634
5154994188
5155000108
5155005174
5155011339
5155017442
5155022752
5155028490
5155033800
5155038316
5155043748
5155051561
5155058458
5155065111
5155070238
5155075548
5155080980
5155087388
5155093004
5155098497
5155103196
5155108262
5155113206
5155118882
5155123643
5155128648
5155135301
5155139756
5155144944
5155150438
5155155076
5155159532
5155165879
5155171189
5155178025
5155184190
5155189866
5155195359
5155200913
5155204148
5155211534
5155217393
5155221787
5155228257
5155233689
5155240037
5155245225
5155250596
5155257188
5155264878
5155270493
5155276658
5155285874
5155291550
5155299119
5155305283
5155309800
5155316819
5155319932
5155328416
5155333726
5155341111
5155347092
5155350388
5155356553
5155360947
5155366929
5155372849
5155378831
5155382187
5155390488
5155396042
5155401658
5155407578
5155413132
5155417954
5155423081
5155429551
5155435349
5155440232
5155444260
5155450302
5155454758
5155461350
5155467392
5155472824
5155477524
5155483750
5155488999
5155494187
5155497605
5155504318
5155510910
5155515976
5155521774
5155526413
5155532272
5155538681
5155545090
5155550217
5155556809
5155563278
5155568466
5155576401
5155584030
5155590683
5155595688
5155601669
5155607162
5155611618
5155617111
5155621750
5155629013
5155634506
5155639755
5155645065
5155649155
5155654342
5155659836
5155665085
5155671493
5155677414
5155683090
5155689987
5155695236
5155702194
5155708481
5155714218
5155719833
5155725692
5155731430
5155736984
5155741684
5155747299
5155752609
5155758163
5155765121
5155771347
5155777084
5155783920
5155789413
5155795394
5155800277
5155807723
5155815048
5155820419
5155826766
5155831344
5155838424
5155845809
5155851058
5155858199
5155863815
5155871261
5155876876
5155882919
5155888229
5155894088
5155898605
5155905318
5155909957
5155915939
5155921188
5155928573
5155932296
5155939315
5155945174
5155950362
5155954635
5155959823
5155967330
5155972091
5155979049
5155984237
5155991134
5155996261
5156001693
5156007003
5156012801
5156018599
5156022689
5156027938
5156033187
5156038741
5156044234
5156049788
5156055281
5156062484
5156067183
5156073043
5156078963
5156083907
5156089217
5156096846
5156104293
5156110213
5156117232
5156120772
5156128157
5156134139
5156140425
5156146346
5156150435
5156156050
5156160079
5156166853
5156171065
5156178328
5156183028
5156191084
5156194502
5156202681
5156211043
5156216963
5156223433
5156226973
5156234907
5156240889
5156246748
5156252852
5156258772
5156265364
5156271040
5156276594
5156281111
5156288008
5156291426
5156299482
5156304243
5156310896
5156317244
5156321638
5156329145
5156333723
5156340864
5156347517
5156353987
5156359480
5156367659
5156373030
5156380049
5156385359
5156391035
5156397444
5156404035
5156410932
5156416670
5156424482
5156429182
5156436506
5156441084
5156446638
5156453535
5156459821
5156464948
5156472089
5156477766
5156483808
5156487226
5156495649
5156501325
5156507307
5156513715
5156519331
5156525251
5156529401
5156535383
5156541364
5156547346
5156553754
5156560651
5156565412
5156570783
5156576581
5156582380
5156587385
5156594526
5156597883
5156605268
5156611799
5156617353
5156622663
5156629010
5156637433
5156642987
5156654767
5156665815
5156673871
5156686200
5156693463
5156703168
5156711347
5156721417
5156728986
5156740033
5156749249
5156757794
5156762494
5156769818
5156776349
5156781842
5156787579
5156794354
5156800458
5156807965
5156815350
5156820050
5156829144
5156835309
5156840802
5156847333
5156852032
5156859295
5156863446
5156869916
5156875958
5156881817
5156890240
5156895855
5156902081
5156907940
5156913556
5156918683
5156925579
5156936200
5156942425
5156948773
5156954144
5156961468
5156966900
5156974652
5156980694
5156986187
5156991863
5156997540
5157003704
5157009808
5157015423
5157021588
5157027630
5157033917
5157040142
5157044598
5157050457
5157055096
5157062176
5157067608
5157073345
5157080303
5157086102
5157090313
5157096844
5157102337
5157107891
5157113689
5157119244
5157125042
5157130901
5157135662
5157141582
5157147808
5157152630
5157158977
5157164104
5157170513
5157175274
5157181804
5157186443
5157194927
5157201153
5157206524
5157212993
5157217205
5157223735
5157229717
5157236797
5157242290
5157249492
5157256145
5157262004
5157267742
5157272075
5157278240
5157284709
5157290630
5157296977
5157302654
5157307170
5157312786
5157317912
5157326335
5157332195
5157337566
5157343303
5157348857
5157352214
5157359355
5157365459
5157371379
5157377544
5157383403
5157389323
5157393413
5157399882
5157405864
5157412334
5157417155
5157423381
5157428447
5157435344
5157441081
5157447429
5157450847
5157459453
5157465617
5157472575
5157477885
5157483806
5157489604
5157496135
5157501445
5157510966
5157517558
5157523478
5157527568
5157534648
5157540507
5157546244
5157550883
5157557597
5157564555
5157569865
5157575114
5157580668
5157587260
5157593485
5157599101
5157605021
5157611552
5157615946
5157623210
5157627787
5157634440
5157641276
5157646220
5157652201
5157657267
5157663248
5157669169
5157673808
5157682475
5157688456
5157694071
5157699076
5157704752
5157711771
5157715739
5157722025
5157727885
5157734293
5157740641
5157746317
5157752543
5157757792
5157762369
5157769205
5157774088
5157781168
5157787577
5157793192
5157796427
5157805704
5157810526
5157816446
5157822977
5157827188
5157834146
5157838968
5157845560
5157851480
5157856485
5157862833
5157869303
5157873941
5157880289
5157884989
5157891153
5157897806
5157904093
5157910135
5157915933
5157921243
5157926798
5157932230
5157937723
5157943643
5157949930
5157955728
5157961649
5157966837
5157972879
5157978372
5157985086
5157991739
5157997476
5158003091
5158009073
5158013284
5158020181
5158025674
5158032999
5158039163
5158047769
5158053201
5158058084
5158065286
5158070169
5158076944
5158081949
5158089029
5158095437
5158101053
5158107583
5158113443
5158119546
5158125833
5158132425
5158137613
5158144754
5158151162
5158157571
5158163613
5158169656
5158172952
5158181802
5158186685
5158192178
5158197732
5158203591
5158209634
5158216287
5158221963
5158227822
5158234475
5158240579
5158245889
5158252480
5158259499
5158262917
5158270242
5158276467
5158281960
5158285256
5158293252
5158299844
5158306130
5158311135
5158316689
5158322732
5158328774
5158334633
5158340310
5158347451
5158354592
5158360756
5158367348
5158373086
5158379372
5158385232
5158391213
5158396584
5158401955
5158407387
5158413063
5158418679
5158423928
5158429787
5158434853
5158440956
5158447426
5158452919
5158458840
5158464699
5158470803
5158476540
5158482216
5158487526
5158494179
5158499123
5158504555
5158511452
5158515907
5158523171
5158529457
5158535378
5158539955
5158546364
5158551064
5158556435
5158561134
5158568153
5158575172
5158581093
5158587196
5158593178
5158599342
5158606178
5158613930
5158620460
5158628151
5158633827
5158639381
5158645912
5158651405
5158657081
5158663063
5158668617
5158674904
5158680031
5158685768
5158690956
5158698341
5158705970
5158713478
5158719032
5158724647
5158730323
5158736122
5158741737
5158747840
5158754737
5158760841
5158765113
5158772010
5158776771
5158782997
5158787757
5158794715
5158799659
5158806922
5158813209
5158819618
5158825477
5158831641
5158837379
5158845008
5158851356
5158857276
5158862830
5158867896
5158875037
5158881812
5158888343
5158893348
5158901404
5158907874
5158913856
5158919532
5158925452
5158933021
5158937720
5158944190
5158949622
5158956519
5158961524
5158970191
5158975806
5158981482
5158987342
5158993262
5158999122
5159005042
5159011878
5159016089
5159022864
5159029212
5159034583
5159040869
5159046057
5159052527
5159058020
5159061438
5159068946
5159074683
5159080542
5159086585
5159092383
5159098487
5159104468
5159110571
5159116248
5159122046
5159127478
5159133399
5159139380
5159145422
5159152441
5159159583
5159164709
5159173193
5159176978
5159185950
5159190771
5159197241
5159204260
5159209875
5159215491
5159221350
5159227453
5159233923
5159241125
5159245520
5159251929
5159258581
5159264441
5159270422
5159275976
5159280676
5159287268
5159292028
5159298376
5159303076
5159310644
5159316504
5159322241
5159328039
5159333532
5159339697
5159345495
5159350805
5159356359
5159362890
5159367102
5159374487
5159379186
5159387426
5159392553
5159399328
5159402746
5159409826
5159414526
5159421789
5159427160
5159433263
5159438879
5159444494
5159450414
5159456030
5159461645
5159467321
5159472997
5159480016
5159488256
5159495763
5159502294
5159508947
5159513525
5159520116
5159525548
5159531652
5159535924
5159543310
5159547948
5159553258
5159560644
5159566137
5159572728
5159579015
5159584142
5159589818
5159595433
5159600621
5159606420
5159612340
5159616796
5159622533
5159628331
5159633702
5159639562
5159645299
5159652196
5159656896
5159662938
5159667516
5159674230
5159680455
5159686254
5159691930
5159697789
5159703893
5159709081
5159717442
5159722814
5159731480
5159738194
5159743687
5159750218
5159756200
5159761082
5159767186
5159773778
5159778966
5159785496
5159790318
5159796666
5159802159
5159807652
5159813878
5159819737
5159825352
5159830907
5159837071
5159841405
5159848912
5159853489
5159860081
5159866307
5159872777
5159877415
5159882969
5159888951
5159894627
5159899754
5159907322
5159913304
5159918736
5159925022
5159931309
5159936985
5159942540
5159948460
5159954258
5159960423
5159965306
5159972019
5159978916
5159984471
5159989842
5159996372
5160003269
5160008946
5160014012
5160018894
5160024693
5160031529
5160037876
5160043736
5160049961
5160055576
5160060276
5160066441
5160073032
5160079319
5160084934
5160090855
5160097507
5160103245
5160108494
5160113987
5160120945
5160125583
5160131748
5160137241
5160144077
5160148411
5160155430
5160160251
5160166721
5160171665
5160178013
5160182651
5160189365
5160195896
5160201084
5160208408
5160213230
5160219883
5160225803
5160231357
5160237278
5160241367
5160248081
5160255161
5160262058
5160267490
5160273288
5160280063
5160286228
5160291416
5160298740
5160305209
5160311130
5160314304
5160322849
5160328830
5160335117
5160340244
5160345737
5160352695
5160356784
5160364169
5160369357
5160376071
5160381137
5160388034
5160392795
5160399081
5160405734
5160411349
5160417392
5160422824
5160426791
5160434421
5160439975
5160446322
5160452792
5160457065
5160463595
5160469516
5160474826
5160481601
5160487155
5160494052
5160498996
5160503634
5160510409
5160515109
5160522433
5160529330
5160534762
5160539401
5160544833
5160550875
5160556430
5160563143
5160569003
5160574069
5160580966
5160586825
5160591830
5160598666
5160603549
5160610507
5160616549
5160622164
5160628695
5160634554
5160640902
5160646700
5160652377
5160657748
5160663668
5160667818
5160675082
5160679232
5160686251
5160690462
5160697848
5160703036
5160709811
5160714571
5160721224
5160726168
5160733553
5160737276
5160746004
5160751375
5160756807
5160763216
5160769259
5160775972
5160780428
5160786470
5160793001
5160799776
5160804537
5160811251
5160817110
5160823641
5160830721
5160835482
5160843965
5160849581
5160857332
5160863069
5160868502
5160874605
5160880281
5160886629
5160891512
5160898165
5160904390
5160909517
5160915315
5160922701
5160927339
5160933626
5160939607
5160945467
5160951692
5160957552
5160963228
5160968965
5160974580
5160980196
5160987154
5160991670
5160998994
5161003755
5161009859
5161016817
5161022554
5161028535
5161032808
5161039888
5161044282
5161050996
5161055635
5161062593
5161068391
5161073884
5161079988
5161085115
5161091096
5161096101
5161102937
5161108186
5161114900
5161120393
5161126496
5161130708
5161136506
5161144441
5161149446
5161155854
5161160554
5161166719
5161171418
5161177583
5161184541
5161190095
5161193269
5161201020
5161207063
5161212922
5161218598
5161225068
5161231233
5161235627
5161242524
5161248200
5161255585
5161260590
5161267426
5161273652
5161280427
5161284821
5161290620
5161297089
5161301545
5161308808
5161314667
5161320222
5161326142
5161331330
5161337800
5161342316
5161349579
5161354157
5161362336
5161369111
5161375641
5161379364
5161387787
5161394196
5161401032
5161412140
5161416840
5161423066
5161433075
5161437226
5161444428
5161450897
5161456635
5161461457
5161468109
5161472687
5161479950
5161483124
5161490692
5161496857
5161502350
5161508637
5161514069
5161517304
5161527252
5161533051
5161537079
5161543976
5161549835
5161554291
5161560272
5161567169
5161571930
5161578278
5161583404
5161588715
5161593475
5161600372
5161606598
5161612579
5161618683
5161624298
5161629608
5161635528
5161642547
5161647003
5161654388
5161658539
5161665497
5161670501
5161677581
5161682708
5161689788
5161694671
5161701629
5161707000
5161713775
5161720306
5161726165
5161731781
5161737213
5161743011
5161748931
5161756317
5161761077
5161767181
5161771820
5161778594
5161783538
5161790740
5161796600
5161802276
5161807708
5161813384
5161819427
5161826812
5161832916
5161838897
5161843841
5161849761
5161855254
5161861785
5161867400
5161873199
5161879241
5161884551
5161890166
5161896270
5161901214
5161908782
5161915984
5161923003
5161928924
5161934600
5161940642
5161946074
5161951446
5161957061
5161963958
5161970672
5161977080
5161982695
5161989592
5161994231
5162001128
5162007415
5162015166
5162020842
5162026824
5162032805
5162038787
5162044280
5162048918
5162055449
5162060515
5162067412
5162073027
5162079192
5162084868
5162090361
5162095610
5162101653
5162107024
5162112395
5162119170
5162123320
5162130278
5162134489
5162141997
5162146574
5162153960
5162158842
5162164580
5162170561
5162175566
5162182158
5162188261
5162193083
5162200102
5162205961
5162211821
5162218230
5162223906
5162230192
5162239714
5162244230
5162249663
5162256376
5162261564
5162266813
5162272307
5162278776
5162285185
5162289824
5162296293
5162302214
5162307646
5162314421
5162319242
5162325590
5162330046
5162336454
5162343229
5162348417
5162355070
5162359587
5162366178
5162370695
5162376798
5162382108
5162388334
5162394254
5162400663
5162405607
5162410551
5162416959
5162423185
5162428739
5162434782
5162441129
5162448331
5162454374
5162462370
5162465910
5162475370
5162480314
5162487516
5162493619
5162499906
5162505399
5162511503
5162516630
5162522977
5162528959
5162536588
5162542447
5162548124
5162554044
5162559903
5162565397
5162570890
5162577054
5162583829
5162589078
5162594876
5162599088
5162605802
5162610135
5162617276
5162623624
5162628751
5162635343
5162641019
5162645841
5162652249
5162656949
5162664090
5162668668
5162677091
5162682889
5162688687
5162693997
5162699674
5162706387
5162712979
5162718472
5162723477
5162729581
5162734647
5162741971
5162747464
5162753690
5162759671
5162765652
5162771695
5162776944
5162784634
5162787747
5162795621
5162801846
5162807950
5162811429
5162820340
5162825772
5162831204
5162836331
5162842190
5162847744
5162853665
5162859402
5162863919
5162870327
5162876004
5162883816
5162889004
5162894314
5162899990
5162905972
5162912320
5162917446
5162924160
5162929653
5162936245
5162941799
5162947476
5162952908
5162957791
5162965359
5162971279
5162976895
5162982632
5162989407
5162995815
5163000881
5163010098
5163015163
5163022305
5163031460
5163037563
5163044216
5163049953
5163056728
5163061611
5163069057
5163074062
5163082668
5163087734
5163093227
5163099880
5163106228
5163112026
5163116176
5163122463
5163128322
5163133510
5163140163
5163145473
5163150234
5163156826
5163162502
5163167812
5163170803
5163177822
5163180812
5163189418
5163196498
5163200771
5163207790
5163212001
5163218593
5163223232
5163230983
5163236843
5163241909
5163247158
5163252651
5163258571
5163264064
5163270046
5163276027
5163281642
5163285976
5163293361
5163298122
5163305141
5163312160
5163318385
5163324855
5163327907
5163335475
5163340236
5163345668
5163351833
5163357936
5163363917
5163368068
5163374171
5163380641
5163386378
5163392604
5163398585
5163401881
5163408534
5163411830
5163418361
5163423182
5163429896
5163435756
5163442470
5163446986
5163452296
5163458156
5163462550
5163469142
5163474696
5163479579
5163486171
5163491420
5163496363
5163503382
5163506617
5163513087
5163518397
5163525416
5163530909
5163537989
5163543421
5163550013
5163556361
5163561183
5163570155
5163574854
5163580775
5163587061
5163591578
5163598719
5163606837
5163613184
5163618739
5163624476
5163630518
5163635218
5163641505
5163646021
5163653040
5163657801
5163664637
5163670191
5163675135
5163680506
5163685511
5163689722
5163697901
5163702112
5163707117
5163713465
5163717676
5163723292
5163728907
5163734034
5163738794
5163746363
5163749231
5163756189
5163759180
5163766504
5163772974
5163778894
5163783655
5163789270
5163795191
5163799768
5163805872
5163810572
5163817102
5163823572
5163828699
5163835413
5163842005
5163848902
5163855921
5163861719
5163867029
5163871485
5163876673
5163882532
5163887964
5163892969
5163900171
5163903711
5163911157
5163915857
5163922388
5163927454
5163932703
5163938135
5163942285
5163947229
5163952417
5163957788
5163963098
5163968530
5163974695
5163980737
5163985193
5163991601
5163996118
5164002038
5164005395
5164012292
5164017053
5164024988
5164028161
5164035180
5164041833
5164048364
5164053979
5164060144
5164068628
5164077356
5164083459
5164089807
5164094384
5164101892
5164108239
5164113610
5164119409
5164125085
5164131188
5164135949
5164141992
5164147302
5164153222
5164157434
5164161828
5164165795
5164169396
5164173974
5164178430
5164182458
5164186608
5164190392
5164194848
5164197900
5164202538
5164205102
5164211205
5164215539
5164219689
5164223290
5164227807
5164231652
5164233849
5164239587
5164244775
5164248803
5164253381
5164257409
5164261071
5164267174
5164271386
5164276025
5164280968
5164285546
5164289635
5164294457
5164300988
5164306725
5164311913
5164316186
5164320397
5164323876
5164329247
5164333275
5164338036
5164342797
5164346642
5164352196
5164357384
5164362023
5164366784
5164370934
5164375145
5164380089
5164384423
5164389916
5164393944
5164398522
5164403221
5164407128
5164411400
5164414391
5164419396
5164423851
5164428368
5164432152
5164436730
5164440270
5164444725
5164448265
5164455040
5164460411
5164466942
5164473046
5164478111
5164483849
5164489159
5164493675
5164498924
5164503746
5164507530
5164513268
5164518333
5164523033
5164526756
5164532066
5164536888
5164541710
5164546654
5164551292
5164556358
5164561180
5164565086
5164569847
5164573753
5164577476
5164581993
5164585716
5164590538
5164594383
5164598595
5164602623
5164608238
5164612083
5164617027
5164619835
5164625511
5164628319
5164634910
5164638145
5164644432
5164649437
5164656089
5164659507
5164666649
5164672569
5164678550
5164682090
5164688133
5164692588
5164698387
5164701561
5164709739
5164712974
5164720481
5164723655
5164731834
5164735557
5164743247
5164747398
5164754417
5164760215
5164764488
5164768943
5164774986
5164781272
5164786826
5164791953
5164797996
5164803367
5164809898
5164815269
5164820640
5164826438
5164832725
5164837363
5164841636
5164850303
5164853904
5164860923
5164865378
5164872398
5164877280
5164882468
5164888022
5164894370
5164899009
5164904502
5164909507
5164912986
5164921592
5164925071
5164932151
5164939658
5164945945
5164951865
5164959128
5164964194
5164968283
5164973655
5164981650
5164986777
5164995383
5165000754
5165007407
5165014792
5165020774
5165025717
5165029502
5165037131
5165041159
5165049460
5165053244
5165059531
5165064231
5165070151
5165075278
5165082175
5165086936
5165092673
5165097861
5165104697
5165111166
5165116293
5165122641
5165128928
5165134177
5165137595
5165146262
5165150046
5165157919
5165163107
5165170126
5165175680
5165180807
5165187399
5165192892
5165200094
5165205832
5165210837
5165215658
5165221335
5165227316
5165232077
5165235251
5165246603
5165252279
5165258322
5165265341
5165269796
5165273458
5165281027
5165287741
5165295858
5165300253
5165309835
5165315756
5165320516
5165324423
5165332601
5165337789
5165343832
5165351766
5165359091
5165363546
5165368978
5165375631
5165377706
5165386495
5165390218
5165399435
5165405599
5165412069
5165417135
5165422384
5165427511
5165433614
5165439840
5165445638
5165452230
5165459493
5165465597
5165470846
5165475790
5165482015
5165488241
5165491903
5165501119
5165507467
5165512899
5165518026
5165523702
5165530294
5165534810
5165539144
5165545675
5165552388
5165558736
5165564962
5165570028
5165576375
5165580587
5165586202
5165589559
5165597860
5165605001
5165610921
5165617818
5165626180
5165632100
5165636373
5165646626
5165653218
5165659810
5165662190
5165670430
5165672383
5165682454
5165689229
5165696919
5165703633
5165708760
5165715169
5165721272
5165723286
5165731953
5165735860
5165743489
5165747334
5165755574
5165760640
5165765767
5165770405
5165777486
5165782368
5165788838
5165792866
5165799885
5165804646
5165811909
5165816243
5165823262
5165828572
5165833272
5165838276
5165845417
5165850605
5165857991
5165863728
5165870869
5165875935
5165883381
5165890889
5165893330
5165901997
5165907795
5165913594
5165917683
5165923786
5165929829
5165936543
5165941731
5165947834
5165953755
5165959248
5165967304
5165973652
5165978657
5165982624
5165992390
5165996540
5166002277
5166008930
5166015217
5166020344
5166025349
5166030659
5166037861
5166042561
5166049457
5166054340
5166059528
5166065998
5166070454
5166077961
5166081684
5166090473
5166094074
5166101764
5166106403
5166114033
5166119404
5166123981
5166128559
5166136310
5166141742
5166146869
5166152790
5166158161
5166165058
5166167255
5166175922
5166179828
5166189533
5166194538
5166200397
5166203937
5166210346
5166217121
5166223407
5166228900
5166237262
5166244342
5166250141
5166255512
5166262042
5166267658
5166273761
5166280475
5166282489
5166291156
5166294940
5166301837
5166306476
5166313373
5166318378
5166322955
5166330280
5166336383
5166340961
5166346942
5166351764
5166358966
5166363971
5166369098
5166373859
5166380817
5166388385
5166394427
5166398883
5166402606
5166411822
5166415667
5166421466
5166427081
5166434832
5166440081
5166445575
5166450335
5166456561
5166462664
5166467303
5166472430
5166479388
5166484454
5166490557
5166494952
5166500628
5166506182
5166511798
5166518145
5166523211
5166529803
5166534625
5166539996
5166545794
5166551837
5166556414
5166559893
5166569171
5166573809
5166581133
5166587786
5166593951
5166597735
5166604815
5166610491
5166614886
5166618609
5166627398
5166633685
5166638445
5166641985
5166649920
5166654314
5166660357
5166665606
5166672930
5166676592
5166683245
5166688433
5166694781
5166699175
5166704546
5166708941
5166715532
5166720659
5166727434
5166734270
5166740618
5166744951
5166753801
5166759539
5166768267
5166771868
5166781145
5166785112
5166792803
5166798601
5166804216
5166809832
5166816606
5166823992
5166831316
5166837725
5166845598
5166850542
5166856767
5166862566
5166869707
5166877397
5166883623
5166888994
5166896013
5166901201
5166904802
5166913225
5166916887
5166926714
5166930376
5166938493
5166944414
5166948808
5166955339
5166960649
5166965715
5166972673
5166977556
5166983171
5166988786
5166994279
5167000200
5167003679
5167011125
5167014909
5167024247
5167028276
5167035539
5167038774
5167045182
5167049943
5167056291
5167061235
5167068071
5167073686
5167079789
5167084062
5167090348
5167095658
5167101274
5167106645
5167114579
5167118852
5167126847
5167130998
5167138688
5167142961
5167149186
5167155107
5167164018
5167169633
5167176469
5167182755
5167189896
5167195573
5167201737
5167206803
5167213517
5167219193
5167226151
5167230729
5167236649
5167242142
5167249222
5167253922
5167257523
5167264420
5167270341
5167277421
5167284257
5167290604
5167298173
5167304459
5167310380
5167318192
5167324234
5167329972
5167335587
5167340592
5167346512
5167352921
5167358414
5167364334
5167369461
5167375077
5167380082
5167388138
5167393021
5167395218
5167405289
5167412918
5167420120
5167423111
5167431046
5167436966
5167442520
5167447281
5167454605
5167458328
5167468887
5167474869
5167480301
5167487015
5167494644
5167499649
5167506058
5167513809
5167518570
5167523453
5167532730
5167538895
5167543167
5167548233
5167555008
5167563980
5167573562
5167580276
5167589737
5167594070
5167602798
5167610733
5167619095
5167626297
5167633316
5167640579
5167649795
5167657852
5167663894
5167671524
5167676284
5167680618
5167684707
5167689041
5167692825
5167697341
5167702896
5167708938
5167713882
5167717361
5167722244
5167725906
5167730850
5167735549
5167739150
5167743118
5167748306
5167753188
5167757400
5167760024
5167765395
5167767959
5167775283
5167779250
5167783889
5167788162
5167792556
5167797500
5167800918
5167805862
5167810806
5167815383
5167820510
5167825820
5167830337
5167835525
5167841201
5167846511
5167851699
5167855605
5167860671
5167864760
5167870498
5167875258
5167880446
5167884902
5167889541
5167896682
5167901442
5167906203
5167911391
5167917251
5167923964
5167929519
5167933730
5167939834
5167944472
5167951491
5167956923
5167962477
5167967543
5167970961
5167979811
5167983474
5167990676
5167995314
5168002028
5168007949
5168015761
5168021498
5168027541
5168032240
5168036940
5168042861
5168047011
5168051589
5168058608
5168063246
5168069106
5168075087
5168079726
5168085097
5168089308
5168094679
5168099928
5168104811
5168108046
5168116469
5168120131
5168127455
5168131605
5168138991
5168143935
5168149611
5168155409
5168160414
5168164992
5168171583
5168176893
5168182142
5168188124
5168192885
5168198622
5168202894
5168209669
5168215529
5168221571
5168226515
5168231886
5168239149
5168243788
5168248426
5168256056
5168261549
5168268446
5168273573
5168280226
5168284681
5168288526
5168297132
5168300856
5168308485
5168314100
5168318556
5168323866
5168329908
5168334730
5168340894
5168346144
5168353224
5168359632
5168361891
5168370069
5168375807
5168380750
5168384473
5168392164
5168395948
5168404127
5168409010
5168414930
5168420057
5168425672
5168430982
5168437574
5168442152
5168449537
5168454359
5168459302
5168465528
5168472608
5168477857
5168488660
5168493482
5168497266
5168506238
5168510572
5168517652
5168523877
5168530713
5168536573
5168542554
5168548230
5168555494
5168560804
5168568372
5168574292
5168578138
5168585340
5168591931
5168599317
5168606763
5168616895
5168625806
5168632886
5168637647
5168642652
5168649304
5168656262
5168661817
5168669019
5168675183
5168680798
5168684583
5168692456
5168696606
5168703687
5168708997
5168715100
5168720044
5168727063
5168732434
5168737866
5168742444
5168748669
5168754834
5168756909
5168766980
5168771680
5168777722
5168783581
5168789319
5168794934
5168799878
5168805981
5168811596
5168816723
5168821362
5168826306
5168833020
5168839550
5168844860
5168850048
5168857251
5168864087
5168868969
5168874707
5168881298
5168885937
5168890881
5168897595
5168903454
5168908947
5168913830
5168919628
5168925060
5168930859
5168936779
5168942700
5168947888
5168951611
5168960888
5168967114
5168973766
5168979748
5168986157
5168990002
5168997509
5169001476
5169008800
5169014233
5169020824
5169025951
5169031811
5169036632
5169042553
5169047253
5169053356
5169062206
5169067028
5169072826
5169078686
5169084057
5169087963
5169095043
5169100170
5169105602
5169110668
5169117382
5169124645
5169130016
5169134838
5169140270
5169145214
5169152294
5169159313
5169161510
5169169445
5169174816
5169181774
5169185497
5169190746
5169196605
5169203685
5169207347
5169215770
5169225109
5169234630
5169240550
5169248424
5169252574
5169258556
5169263316
5169269176
5169274120
5169281200
5169285899
5169292735
5169297801
5169305064
5169310863
5169316478
5169322032
5169328197
5169332347
5169338878
5169345103
5169349803
5169356029
5169361400
5169365428
5169371348
5169375743
5169380931
5169388072
5169394114
5169400279
5169404857
5169411631
5169417064
5169421458
5169424815
5169433177
5169437083
5169445079
5169448497
5169456004
5169459422
5169466136
5169471385
5169478221
5169483226
5169489756
5169494578
5169501475
5169506236
5169511302
5169519053
5169525706
5169530345
5169536631
5169542002
5169548289
5169555125
5169562083
5169568858
5169576792
5169585459
5169590586
5169595286
5169603159
5169607920
5169614207
5169619273
5169624583
5169631541
5169638071
5169644114
5169651377
5169657358
5169663035
5169668345
5169674082
5169678965
5169685251
5169690989
5169696909
5169701365
5169707346
5169713083
5169720469
5169725596
5169731577
5169737436
5169743845
5169750376
5169754099
5169760630
5169766855
5169774729
5169780100
5169785410
5169792612
5169798410
5169804819
5169813242
5169818430
5169828073
5169857004
5169870065
5169885751
5169892648
5169899545
5169906808
5169912607
5169917123
5169921945
5169926889
5169931467
5169936716
5169942026
5169947031
5169953439
5169958627
5169964364
5169969369
5169975046
5169979867
5169987375
5169992318
5169997690
5170003427
5170010568
5170015634
5170021432
5170026925
5170031503
5170036569
5170042489
5170047311
5170053964
5170059030
5170065072
5170070199
5170076547
5170081491
5170086801
5170092233
5170097909
5170102914
5170110238
5170114327
5170122872
5170127938
5170134896
5170140145
5170145577
5170150582
5170158212
5170163216
5170168099
5170176949
5170185799
5170193978
5170198617
5170203011
5170209969
5170215096
5170221688
5170229012
5170234017
5170240182
5170245736
5170252328
5170258492
5170263192
5170270089
5170278756
5170283394
5170289803
5170293343
5170299447
5170304024
5170310494
5170315865
5170322457
5170329842
5170334908
5170339913
5170346016
5170352425
5170357613
5170362618
5170369820
5170375313
5170381600
5170387581
5170392891
5170396920
5170405586
5170410225
5170418648
5170422066
5170430672
5170434761
5170444893
5170449043
5170456184
5170459969
5170469551
5170475044
5170481636
5170486153
5170495430
5170499519
5170506721
5170510261
5170517647
5170521492
5170527779
5170530830
5170536323
5170541450
5170548103
5170553474
5170559639
5170565376
5170570747
5170575325
5170581001
5170586616
5170590767
5170594978
5170602730
5170608040
5170612922
5170619392
5170624031
5170630378
5170635078
5170640388
5170642341
5170650276
5170653938
5170660774
5170664497
5170671455
5170675972
5170680183
5170687019
5170692085
5170698677
5170704475
5170709297
5170716926
5170720710
5170727180
5170732307
5170740730
5170744331
5170751289
5170756355
5170764289
5170770576
5170778205
5170782600
5170790229
5170795295
5170802375
5170806586
5170813483
5170817817
5170825385
5170830878
5170837409
5170841987
5170847236
5170853644
5170859260
5170864814
5170870185
5170875007
5170878669
5170888129
5170892157
5170899848
5170904426
5170911139
5170916694
5170922248
5170927558
5170935004
5170941413
5170945807
5170950263
5170956794
5170962348
5170966376
5170973517
5170977606
5170986884
5170992926
5170998358
5171003363
5171009162
5171015570
5171022589
5171028571
5171035040
5171040778
5171046271
5171052680
5171058234
5171063849
5171070929
5171076605
5171080878
5171089850
5171096075
5171102850
5171108099
5171114264
5171120367
5171125922
5171132696
5171138556
5171143683
5171150885
5171155340
5171161200
5171165533
5171168890
5171176642
5171180731
5171189398
5171194830
5171199469
5171205816
5171212042
5171215948
5171222723
5171228277
5171234503
5171240728
5171248419
5171253668
5171258734
5171264837
5171270452
5171275762
5171279364
5171288580
5171292852
5171301031
5171306402
5171310797
5171315862
5171322027
5171326727
5171335088
5171339361
5171345587
5171352361
5171357549
5171362066
5171367620
5171373785
5171380254
5171388799
5171395086
5171401678
5171408330
5171413824
5171420171
5171424932
5171428716
5171439947
5171444280
5171450811
5171456365
5171462163
5171467962
5171473882
5171479192
5171484319
5171491277
5171495550
5171501775
5171507024
5171513616
5171519048
5171525396
5171527532
5171538091
5171540776
5171549688
5171553960
5171561467
5171565313
5171572515
5171576116
5171584050
5171588872
5171595159
5171602666
5171607549
5171612554
5171620610
5171626592
5171635625
5171642461
5171652532
5171660527
5171668401
5171678105
5171686162
5171694279
5171704472
5171714177
5171721562
5171730351
5171741948
5171749211
5171758122
5171766423
5171772648
5171783513
5171790776
5171799992
5171807682
5171810734
5171820439
5171829045
5171837468
5171844242
5171847233
5171861576
5171867619
5171876713
5171884465
5171893315
5171900334
5171905827
5171914433
5171922795
5171932743
5171939945
5171949467
5171957951
5171963627
5171972477
5171980351
5171988468
5171996525
5171999760
5172015568
5172021244
5172030704
5172037845
5172045902
5172052860
5172058170
5172066349
5172073978
5172081363
5172091800
5172099247
5172106998
5172114628
5172121036
5172129215
5172134769
5172144413
5172152957
5172161197
5172169071
5172177371
5172184024
5172188968
5172198123
5172205509
5172213260
5172220462
5172229740
5172237369
5172242862
5172252872
5172260013
5172266727
5172273685
5172282718
5172289371
5172296695
5172305423
5172313724
5172320804
5172327273
5172335391
5172341678
5172349429
5172356021
5172363162
5172371951
5172379336
5172384952
5172394351
5172400943
5172408267
5172414676
5172421939
5172428469
5172433902
5172445925
5172453860
5172461062
5172467959
5172473208
5172483340
5172491274
5172499087
5172506472
5172509585
5172522769
5172531008
5172539614
5172546755
5172549807
5172560732
5172568423
5172577334
5172585146
5172588259
5172604311
5172613711
5172620058
5172627260
5172634707
5172642275
5172649599
5172656130
5172667727
5172674135
5172683291
5172689272
5172692080
5172702639
5172710146
5172715639
5172721804
5172730776
5172737123
5172745729
5172751711
5172756655
5172764101
5172770082
5172777285
5172785036
5172791567
5172800112
5172805116
5172813234
5172819765
5172826357
5172832216
5172837038
5172846315
5172853761
5172863832
5172871156
5172878969
5172885316
5172888002
5172898683
5172903444
5172910829
5172918458
5172929689
5172934083
5172941408
5172949281
5172956178
5172962709
5172967775
5172975587
5172983033
5172993409
5173000917
5173008424
5173016420
5173022279
5173030946
5173035768
5173045533
5173052308
5173058107
5173070375
5173078553
5173085450
5173093019
5173102723
5173110230
5173115418
5173124391
5173131226
5173142457
5173149781
5173155152
5173163636
5173170350
5173177003
5173183656
5173190308
5173196595
5173204713
5173212952
5173220338
5173226990
5173232484
5173240418
5173246827
5173255005
5173261170
5173267701
5173279053
5173293641
5173302369
5173309143
5173324341
5173332337
5173343994
5173352845
5173365052
5173376404
5173389282
5173401367
5173410278
5173420166
5173428162
5173436829
5173445740
5173454346
5173463013
5173472900
5173479797
5173486267
5173492920
5173499756
5173509705
5173518066
5173531006
5173539673
5173547180
5173555786
5173565307
5173573547
5173581726
5173589355
5173597412
5173605346
5173613403
5173622375
5173629516
5173637329
5173645813
5173654113
5173661376
5173669311
5173680847
5173688903
5173697875
5173706176
5173714416
5173725585
5173731994
5173740966
5173749206
5173756591
5173762878
5173773193
5173780212
5173787475
5173798156
5173802734
5173813476
5173819579
5173829589
5173836486
5173845702
5173854186
5173862914
5173870849
5173877868
5173885558
5173896361
5173905455
5173912230
5173921386
5173928283
5173937377
5173945800
5173954039
5173961608
5173970763
5173980467
5173987303
5173999144
5174006957
5174016295
5174024962
5174036681
5174043578
5174052306
5174059081
5174067198
5174074705
5174083983
5174092894
5174101988
5174114989
5174132933
5174149962
5174169127
5174189695
5174209715
5174230101
5174249144
5174268492
5174290403
5174307127
5174318052
5174327696
5174337156
5174351316
5174364072
5174382200
5174395872
5174408079
5174418333
5174426633
5174435117
5174443418
5174452085
5174460080
5174467283
5174475217
5174482786
5174491452
5174498777
5174507322
5174514890
5174522947
5174530698
5174538327
5174546018
5174553403
5174562619
5174569516
5174577146
5174583310
5174593198
5174601010
5174608640
5174617185
5174625974
5174632443
5174640500
5174648129
5174655026
5174664059
5174670346
5174682248
5174688901
5174696835
5174705441
5174711545
5174721921
5174728085
5174737607
5174744137
5174751889
5174755978
5174766903
5174773922
5174779538
5174784726
5174789975
5174795285
5174800045
5174804135
5174808346
5174812741
5174818356
5174824887
5174829464
5174833310
5174838070
5174843808
5174847103
5174851864
5174857174
5174861630
5174865353
5174871456
5174876217
5174880490
5174886593
5174889950
5174895199
5174899410
5174904965
5174909481
5174914120
5174918881
5174924618
5174929562
5174936153
5174940975
5174947323
5174951962
5174955868
5174963741
5174968136
5174974789
5174977962
5174984310
5174988460
5174994015
5175000912
5175006344
5175012142
5175016598
5175021664
5175026607
5175031368
5175035518
5175041317
5175046566
5175051998
5175057308
5175063106
5175067684
5175073238
5175079769
5175084469
5175090816
5175095516
5175100643
5175104793
5175110958
5175115657
5175121944
5175128475
5175134273
5175139888
5175145259
5175151485
5175156063
5175160213
5175166500
5175171077
5175177425
5175182613
5175188106
5175193904
5175200191
5175204891
5175211238
5175217159
5175222347
5175228633
5175234676
5175239375
5175246089
5175250972
5175254634
5175264522
5175270259
5175275691
5175277644
5175285396
5175288753
5175295955
5175299495
5175308589
5175314448
5175319942
5175326289
5175330989
5175335994
5175341853
5175346980
5175353084
5175358516
5175366511
5175371638
5175377742
5175383357
5175389094
5175394648
5175401667
5175406184
5175412226
5175416865
5175424189
5175429316
5175436030
5175440547
