5304992888
5304998259
5305003386
5305008391
5305013945
5305019622
5305024260
5305029204
5305034453
5305040130
5305046111
5305051482
5305057402
5305062529
5305068389
5305075225
5305079680
5305085723
5305091460
5305096221
5305102935
5305108428
5305113738
5305120452
5305126738
5305133025
5305138640
5305145842
5305151885
5305159270
5305164214
5305172575
5305177458
5305185637
5305192046
5305199248
5305204863
5305212859
5305221220
5305228667
5305236662
5305245756
5305253081
5305259489
5305265105
5305272917
5305279997
5305287932
5305294645
5305301787
5305308256
5305315458
5305321379
5305330107
5305338102
5305346708
5305353239
5305360685
5305370329
5305382414
5305391447
5305405546
5305417021
5305421964
5305431181
5305439787
5305447172
5305453886
5305461942
5305468778
5305476713
5305486234
5305493192
5305499906
5305508817
5305515958
5305523222
5305530973
5305538053
5305545133
5305553434
5305560514
5305569303
5305574918
5305582609
5305591520
5305602628
5305609220
5305616178
5305622525
5305631498
5305638089
5305645536
5305651761
5305662198
5305669095
5305678250
5305684781
5305692655
5305699979
5305707608
5305715909
5305723966
5305729825
5305736600
5305746488
5305755582
5305764005
5305771146
5305780057
5305787686
5305794766
5305803494
5305814114
5305822476
5305829495
5305836697
5305843716
5305851224
5305859219
5305867398
5305875760
5305884732
5305893643
5305901150
5305908474
5305916226
5305924893
5305931668
5305938076
5305946743
5305954617
5305961819
5305969387
5305975552
5305983547
5305990017
5305998257
5306011013
5306019192
5306028042
5306037991
5306052578
5306062771
5306072598
5306079311
5306090481
5306097866
5306105190
5306113003
5306120754
5306127895
5306136745
5306145473
5306151943
5306160427
5306166469
5306174587
5306181057
5306189296
5306195827
5306204555
5306212734
5306219082
5306227565
5306234035
5306243801
5306253383
5306261257
5306267910
5306275539
5306282924
5306290554
5306296352
5306305385
5306312465
5306319179
5306326991
5306333522
5306341945
5306349025
5306355739
5306364955
5306370204
5306378749
5306384608
5306392848
5306399318
5306407497
5306414516
5306422755
5306430934
5306438563
5306445399
5306451320
5306458949
5306467494
5306476527
5306483241
5306490138
5306496852
5306505153
5306511805
5306518885
5306526210
5306536280
5306549708
5306558070
5306564967
5306574610
5306580958
5306587611
5306597132
5306606349
5306612147
5306620936
5306628382
5306636805
5306643946
5306652613
5306660182
5306666285
5306674952
5306682948
5306690150
5306699366
5306707239
5306715235
5306723353
5306731898
5306736964
5306749171
5306759363
5306774012
5306782007
5306792200
5306802576
5306807764
5306815760
5306824488
5306832300
5306840479
5306847315
5306855249
5306862818
5306873133
5306880823
5306888452
5306896326
5306904322
5306911341
5306917810
5306927088
5306935327
5306940943
5306947839
5306955164
5306962366
5306970728
5306978418
5306986169
5306993311
5307000391
5307008081
5307014307
5307021020
5307027734
5307035181
5307041284
5307048852
5307056238
5307062768
5307070459
5307077417
5307084436
5307091699
5307098657
5307104699
5307112695
5307118860
5307126794
5307132959
5307141137
5307150720
5307156579
5307162988
5307171594
5307178369
5307184777
5307194970
5307203149
5307211816
5307219384
5307226586
5307234460
5307243005
5307249535
5307257592
5307267053
5307281640
5307287988
5307297509
5307305016
5307311913
5307321984
5307329064
5307337853
5307346032
5307354821
5307364037
5307371361
5307379235
5307386376
5307392418
5307399559
5307405297
5307412560
5307418724
5307421593
5307430870
5307439843
5307449364
5307457665
5307468407
5307476219
5307482567
5307489037
5307495079
5307500878
5307506554
5307511193
5307518517
5307524193
5307531517
5307536278
5307543053
5307548302
5307554344
5307559349
5307565880
5307571678
5307575951
5307582359
5307588341
5307593895
5307598412
5307604698
5307610130
5307616356
5307622642
5307628075
5307633812
5307640831
5307647850
5307652977
5307658287
5307663780
5307670067
5307675682
5307681358
5307687828
5307692527
5307698997
5307704124
5307710594
5307715782
5307722740
5307729026
5307733116
5307739891
5307746360
5307751182
5307757774
5307764732
5307769920
5307776206
5307781333
5307786582
5307792930
5307798423
5307804466
5307809104
5307815086
5307821922
5307826438
5307832603
5307837913
5307845298
5307850913
5307855735
5307862388
5307868797
5307874717
5307880027
5307886619
5307892173
5307898765
5307904746
5307911155
5307916099
5307920920
5307928001
5307933799
5307939597
5307944785
5307950767
5307958701
5307965049
5307972129
5307978415
5307985312
5307991294
5307996787
5308005515
5308011496
5308018699
5308024985
5308029074
5308035910
5308042075
5308046836
5308053733
5308058737
5308063987
5308070151
5308075705
5308081931
5308088278
5308092673
5308099326
5308104514
5308110251
5308114951
5308122214
5308127341
5308133994
5308140097
5308146872
5308152976
5308159079
5308164389
5308169455
5308175497
5308181540
5308187277
5308191916
5308198691
5308204733
5308209982
5308215292
5308220602
5308225363
5308233176
5308237570
5308243918
5308248312
5308254538
5308260153
5308266440
5308271933
5308278586
5308283835
5308289816
5308294821
5308299887
5308307272
5308313131
5308317709
5308322897
5308329672
5308335165
5308341146
5308346701
5308353353
5308360311
5308368124
5308372824
5308379843
5308385519
5308390829
5308397055
5308403219
5308407369
5308413168
5308418295
5308425375
5308430746
5308437154
5308443563
5308447836
5308454611
5308459798
5308466268
5308472128
5308478170
5308487142
5308495748
5308501119
5308510152
5308519918
5308525960
5308532491
5308537923
5308543355
5308548910
5308555318
5308560262
5308566060
5308570760
5308578451
5308583638
5308588399
5308595113
5308600911
5308607076
5308614705
5308621358
5308626485
5308631551
5308638509
5308643026
5308649434
5308655233
5308660543
5308665731
5308672933
5308678365
5308684224
5308689717
5308695027
5308700948
5308705708
5308711568
5308717732
5308723897
5308729634
5308735433
5308740498
5308746236
5308755452
5308760762
5308767232
5308772359
5308777608
5308784077
5308788899
5308795613
5308801411
5308806477
5308813557
5308822346
5308828023
5308834370
5308839558
5308845418
5308851338
5308857808
5308863667
5308869526
5308876118
5308882222
5308886372
5308894551
5308900654
5308907734
5308913105
5308918477
5308925496
5308931355
5308936360
5308944233
5308950520
5308956929
5308963215
5308967793
5308975239
5308979450
5308986469
5308992146
5308997700
5309003987
5309010761
5309014729
5309021259
5309027851
5309034687
5309042622
5309048420
5309056721
5309063862
5309070026
5309076801
5309081745
5309087849
5309092792
5309098896
5309104633
5309110187
5309115620
5309122394
5309127949
5309133198
5309138325
5309143574
5309150104
5309155781
5309161030
5309166279
5309172016
5309176655
5309182758
5309189350
5309193439
5309200092
5309207355
5309212726
5309217182
5309223224
5309227497
5309233966
5309238971
5309245319
5309252155
5309256427
5309261981
5309267414
5309273517
5309278522
5309283954
5309290424
5309296955
5309301898
5309307758
5309313129
5309319049
5309323444
5309330280
5309336749
5309342243
5309347125
5309352252
5309358783
5309363849
5309369037
5309374713
5309381244
5309386554
5309393268
5309397540
5309404010
5309408710
5309414630
5309420123
5309425555
5309432696
5309439349
5309444659
5309449420
5309456195
5309462115
5309468707
5309473163
5309479205
5309482989
5309488910
5309494647
5309499896
5309507830
5309513202
5309518878
5309524737
5309530597
5309535479
5309543048
5309547625
5309555011
5309562884
5309570819
5309575335
5309584979
5309590167
5309597552
5309604449
5309609454
5309615740
5309621539
5309627642
5309632159
5309638445
5309644122
5309648150
5309654009
5309659441
5309664629
5309671099
5309676897
5309682574
5309689165
5309693621
5309698565
5309704668
5309711138
5309715533
5309722063
5309728899
5309733843
5309740679
5309745012
5309751909
5309756487
5309762102
5309768511
5309774431
5309779802
5309786944
5309792437
5309797747
5309803728
5309808367
5309813311
5309819292
5309824419
5309830706
5309835100
5309841204
5309846514
5309850969
5309857256
5309863359
5309869158
5309875749
5309881853
5309886919
5309893266
5309897844
5309903093
5309907671
5309914385
5309918718
5309925188
5309930803
5309937517
5309943010
5309949724
5309954607
5309961321
5309967302
5309974260
5309981218
5309986162
5309993242
5309999040
5310004594
5310010393
5310016252
5310020586
5310030473
5310037919
5310044511
5310050310
5310056840
5310063188
5310067888
5310076188
5310081865
5310087175
5310094255
5310100419
5310107621
5310116410
5310123491
5310130754
5310138261
5310144914
5310150285
5310156449
5310161088
5310167985
5310174333
5310180314
5310187638
5310192765
5310198136
5310204911
5310211686
5310217057
5310223039
5310229936
5310236710
5310241776
5310249101
5310254838
5310261124
5310268510
5310274979
5310280167
5310286271
5310292557
5310298173
5310304825
5310309220
5310315568
5310321854
5310327653
5310334611
5310339860
5310345963
5310351578
5310357377
5310363114
5310369462
5310374650
5310380692
5310386673
5310392960
5310398880
5310405045
5310411271
5310417679
5310424637
5310431900
5310438858
5310444840
5310449845
5310456559
5310462601
5310469559
5310476090
5310482620
5310488297
5310495133
5310501114
5310507157
5310512894
5310519669
5310525040
5310532913
5310539017
5310545120
5310551773
5310558731
5310563736
5310570267
5310575394
5310583816
5310589981
5310598221
5310603287
5310613785
5310619827
5310626419
5310632400
5310638382
5310643814
5310650284
5310655777
5310661514
5310667801
5310672744
5310679458
5310686050
5310691299
5310697281
5310702041
5310708389
5310713394
5310718582
5310724929
5310732193
5310737686
5310741775
5310747573
5310753921
5310759231
5310765090
5310772415
5310777542
5310783401
5310788772
5310795364
5310800674
5310804763
5310811904
5310818374
5310823501
5310829055
5310834121
5310839187
5310846084
5310850845
5310856765
5310861892
5310867812
5310873122
5310878921
5310884902
5310890212
5310896804
5310900954
5310907851
5310913161
5310919082
5310924026
5310930556
5310938125
5310946731
5310955031
5310963393
5310969436
5310978103
5310985793
5310995986
5311004531
5311013991
5311022292
5311033034
5311043593
5311051650
5311061721
5311069411
5311077162
5311085829
5311092909
5311102736
5311112013
5311120802
5311128920
5311139235
5311150832
5311159315
5311167555
5311178847
5311187514
5311197157
5311205580
5311215163
5311223219
5311233595
5311242018
5311250563
5311259352
5311267897
5311277113
5311286329
5311295485
5311303419
5311312696
5311320265
5311330824
5311341627
5311349623
5311359388
5311367445
5311377210
5311383619
5311393324
5311402967
5311409071
5311417494
5311426649
5311435804
5311445020
5311452772
5311461927
5311471510
5311479322
5311488538
5311496290
5311505628
5311514966
5311524183
5311531873
5311540540
5311550184
5311556104
5311566114
5311574964
5311583997
5311592542
5311601209
5311608899
5311619031
5311631482
5311639539
5311650281
5311658521
5311667005
5311675183
5311685315
5311692212
5311701062
5311709180
5311716565
5311726392
5311733960
5311742200
5311751538
5311762952
5311769971
5311782056
5311790845
5311798474
5311808240
5311817639
5311825268
5311832837
5311841382
5311849988
5311860180
5311869824
5311877942
5311886059
5311894177
5311901684
5311910046
5311918530
5311926464
5311935559
5311943798
5311952221
5311962048
5311971325
5311981640
5311990734
5311999645
5312009472
5312015392
5312026867
5312037121
5312046276
5312055431
5312062695
5312071606
5312079723
5312085766
5312095959
5312104076
5312112133
5312119762
5312129772
5312136730
5312146251
5312154491
5312163524
5312172252
5312180492
5312189891
5312195751
5312205577
5312213817
5312222789
5312229930
5312237255
5312246898
5312256359
5312265331
5312269481
5312275768
5312281139
5312287059
5312292919
5312296581
5312303478
5312308421
5312313365
5312320934
5312328807
5312336559
5312342357
5312347301
5312352428
5312357982
5312362498
5312369701
5312374034
5312379222
5312384410
5312390147
5312394969
5312399913
5312405040
5312411571
5312415965
5312420970
5312426463
5312431041
5312436656
5312442332
5312448680
5312455638
5312460460
5312465281
5312470286
5312475779
5312480540
5312486766
5312492686
5312496959
5312502757
5312506907
5312513011
5312517955
5312523326
5312529612
5312533824
5312539744
5312545176
5312549998
5312558726
5312564646
5312571665
5312578440
5312584849
5312591990
5312598094
5312604807
5312611094
5312617075
5312623545
5312628733
5312634043
5312640025
5312645823
5312650950
5312659373
5312664133
5312670908
5312676951
5312685129
5312690745
5312697703
5312704417
5312711008
5312717905
5312723948
5312729563
5312735544
5312742869
5312748179
5312754587
5312762827
5312768442
5312776072
5312783335
5312789316
5312794870
5312799875
5312806284
5312811472
5312818186
5312823008
5312828318
5312833567
5312840952
5312846140
5312852304
5312856882
5312864023
5312871042
5312876718
5312882700
5312886850
5312894541
5312900278
5312906320
5312911997
5312917795
5312923654
5312928171
5312934702
5312941782
5312946115
5312951486
5312958566
5312964548
5312970041
5312976022
5312980905
5312986948
5312994028
5313000497
5313006967
5313011301
5313017343
5313022836
5313030038
5313035653
5313041940
5313049630
5313055490
5313064645
5313072702
5313080087
5313086496
5313092172
5313097543
5313104440
5313110543
5313116220
5313121835
5313126718
5313133004
5313140512
5313146127
5313152658
5313158029
5313163461
5313170236
5313175363
5313180367
5313186593
5313192635
5313198007
5313204415
5313209054
5313215218
5313219552
5313226510
5313232491
5313237313
5313242806
5313249459
5313254891
5313260445
5313266366
5313271920
5313278268
5313282662
5313288888
5313293709
5313300423
5313306405
5313311715
5313318001
5313323250
5313328621
5313335824
5313341378
5313348153
5313353219
5313358590
5313364327
5313369393
5313375802
5313380867
5313386483
5313392403
5313397225
5313404305
5313410103
5313417733
5313423226
5313428902
5313434761
5313439339
5313445992
5313451729
5313457772
5313462898
5313468453
5313474312
5313482369
5313488228
5313495125
5313500557
5313507149
5313513313
5313518501
5313523811
5313532234
5313541451
5313548103
5313554207
5313560249
5313567696
5313574959
5313579842
5313583992
5313590584
5313595100
5313600838
5313605415
5313612373
5313618782
5313624092
5313628608
5313635689
5313640815
5313647346
5313653633
5313659309
5313665840
5313670479
5313677375
5313685432
5313689521
5313696235
5313703498
5313708015
5313713142
5313719062
5313725532
5313731758
5313737190
5313743965
5313748420
5313755500
5313761543
5313769416
5313775276
5313781257
5313787361
5313792610
5313798957
5313805061
5313811164
5313817268
5313823493
5313829536
5313835395
5313841743
5313847663
5313853767
5313860480
5313865180
5313871772
5313876838
5313884284
5313888984
5313895576
5313900641
5313906318
5313912726
5313918403
5313924689
5313929938
5313936286
5313941474
5313946784
5313953315
5313959601
5313967231
5313973639
5313979560
5313988044
5313993293
5313999945
5314006537
5314015631
5314022040
5314029242
5314038886
5314047980
5314052985
5314060004
5314065985
5314071967
5314077460
5314084479
5314090094
5314096808
5314101691
5314107672
5314112189
5314118170
5314123297
5314128851
5314135260
5314141180
5314146124
5314151556
5314156744
5314162543
5314168707
5314174689
5314179266
5314185065
5314191290
5314195563
5314201361
5314206244
5314213934
5314219610
5314225348
5314230414
5314235663
5314240790
5314246832
5314252081
5314258612
5314263922
5314269415
5314275518
5314279974
5314286749
5314291510
5314298346
5314303839
5314310064
5314315802
5314321478
5314326544
5314330877
5314338140
5314344793
5314349737
5314355108
5314361212
5314366583
5314371160
5314377447
5314389898
5314396917
5314404852
5314412786
5314420293
5314427923
5314434454
5314440679
5314446111
5314451910
5314457220
5314461858
5314468816
5314474370
5314479497
5314485357
5314490423
5314495672
5314501348
5314507757
5314513616
5314519475
5314525823
5314532903
5314540166
5314543157
5314552556
5314558477
5314566411
5314575261
5314582525
5314589482
5314595525
5314601384
5314605168
5314611760
5314617925
5314623906
5314629827
5314635869
5314641667
5314646367
5314651189
5314658269
5314664311
5314670232
5314677068
5314683476
5314689397
5314695561
5314701238
5314705693
5314711858
5314716985
5314721928
5314727788
5314734502
5314740361
5314745549
5314750859
5314756474
5314764348
5314769597
5314774602
5314780217
5314785710
5314790593
5314796818
5314801762
5314808537
5314812749
5314818608
5314824956
5314831059
5314836857
5314842412
5314848820
5314855351
5314860478
5314865117
5314871159
5314876164
5314882267
5314886845
5314893254
5314899540
5314904545
5314909611
5314915165
5314920231
5314924382
5314932987
5314937504
5314943241
5314947941
5314956791
5314962467
5314967961
5314973393
5314978520
5314984623
5314990360
5314996525
5315002445
5315006840
5315014896
5315021427
5315027470
5315033695
5315039371
5315044498
5315050053
5315056095
5315061893
5315066593
5315073734
5315080265
5315090946
5315097477
5315103092
5315110660
5315117924
5315122074
5315129276
5315134586
5315141605
5315146915
5315151676
5315157535
5315164371
5315168583
5315174503
5315181461
5315186588
5315191593
5315196292
5315202640
5315208438
5315213871
5315219852
5315226749
5315230777
5315236637
5315241641
5315247745
5315253787
5315258426
5315263309
5315270572
5315276370
5315281558
5315287479
5315294498
5315300357
5315305240
5315312015
5315317935
5315323306
5315329532
5315335025
5315341190
5315347720
5315351810
5315359622
5315365298
5315370914
5315376712
5315382571
5315388492
5315393680
5315401065
5315405581
5315412234
5315418277
5315423648
5315428348
5315434695
5315441287
5315448916
5315454532
5315461123
5315465518
5315472110
5315478457
5315488589
5315494876
5315500796
5315506900
5315512576
5315517947
5315524844
5315530276
5315536868
5315543521
5315547610
5315553835
5315559146
5315564944
5315569583
5315574709
5315580142
5315585330
5315591616
5315596987
5315604128
5315612185
5315621157
5315629275
5315637942
5315646731
5315652102
5315657046
5315663576
5315669314
5315674441
5315679751
5315684572
5315692080
5315697268
5315703127
5315707339
5315713076
5315718447
5315722536
5315729006
5315735476
5315741396
5315746523
5315751894
5315757448
5315763063
5315768251
5315775209
5315779543
5315785707
5315791140
5315795900
5315801393
5315806337
5315812258
5315818056
5315824587
5315828981
5315834902
5315840578
5315845583
5315850893
5315858217
5315862551
5315869386
5315874269
5315881288
5315886232
5315892153
5315899172
5315904726
5315909425
5315915163
5315919801
5315926088
5315931764
5315936098
5315943666
5315950136
5315955263
5315961427
5315967409
5315972902
5315978517
5315984559
5315990968
5315996156
5316002748
5316008424
5316015870
5316021791
5316027833
5316033204
5316038392
5316044130
5316049440
5316054872
5316060182
5316065980
5316072633
5316077943
5316082826
5316088685
5316093568
5316098573
5316105226
5316111756
5316116700
5316121644
5316127564
5316135133
5316141969
5316152162
5316159303
5316167542
5316173890
5316178834
5316184632
5316189271
5316196595
5316203004
5316208375
5316214051
5316220338
5316226563
5316231873
5316238892
5316244019
5316248963
5316255006
5316261597
5316267762
5316272645
5316278931
5316285279
5316290345
5316293275
5316299744
5316305726
5316311402
5316316651
5316323670
5316327637
5316333863
5316338440
5316344483
5316348938
5316355103
5316359925
5316366272
5316371216
5316376343
5316383973
5316389710
5316395813
5316400269
5316406861
5316413147
5316418213
5316422791
5316429322
5316434204
5316438904
5316444763
5316450318
5316455139
5316460999
5316466736
5316470764
5316477295
5316481506
5316488098
5316494446
5316500000
5316504883
5316511780
5316517456
5316524170
5316529114
5316537476
5316545593
5316551514
5316555603
5316563293
5316567505
5316575195
5316580566
5316587280
5316593994
5316598999
5316606140
5316610351
5316616760
5316621582
5316628479
5316634216
5316640075
5316645019
5316651611
5316661132
5316668151
5316674682
5316681640
5316690857
5316698059
5316703796
5316709289
5316715454
5316721313
5316727050
5316733947
5316739562
5316744506
5316750610
5316757202
5316761840
5316768127
5316772765
5316778442
5316785949
5316791686
5316796935
5316801513
5316808044
5316812621
5316819640
5316825072
5316831786
5316836608
5316842467
5316847106
5316853759
5316859984
5316864867
5316871764
5316877441
5316882445
5316886535
5316892211
5316897948
5316903319
5316908202
5316915282
5316920958
5316926146
5316930785
5316937011
5316941466
5316948241
5316954100
5316960814
5316965148
5316972716
5316978881
5316985472
5316990721
5316996459
5317003539
5317008849
5317014891
5317019774
5317025633
5317032347
5317038329
5317044310
5317049315
5317055785
5317061644
5317068175
5317074828
5317079466
5317086424
5317092528
5317097655
5317103697
5317109801
5317114623
5317119566
5317127867
5317134398
5317139647
5317145262
5317150938
5317158507
5317166014
5317170958
5317177366
5317182249
5317188475
5317195006
5317200072
5317208616
5317213499
5317219175
5317225157
5317231260
5317238585
5317245054
5317251036
5317257750
5317262144
5317269163
5317274778
5317281309
5317287046
5317293150
5317298765
5317303038
5317310484
5317314817
5317322386
5317328428
5317334104
5317339170
5317345701
5317350706
5317357359
5317361753
5317368223
5317373777
5317380003
5317385069
5317391477
5317397092
5317403806
5317410032
5317417112
5317422910
5317428587
5317435056
5317439573
5317446409
5317451658
5317458250
5317463438
5317469968
5317475645
5317482297
5317488584
5317496396
5317502439
5317508054
5317514707
5317519407
5317526059
5317531553
5317538266
5317544797
5317549070
5317554563
5317560727
5317567563
5317572568
5317579343
5317584531
5317590146
5317596189
5317602903
5317607175
5317613767
5317618466
5317625302
5317631650
5317638730
5317644345
5317649961
5317655332
5317661862
5317668942
5317675351
5317680600
5317685605
5317692136
5317698605
5317703549
5317709225
5317716367
5317721860
5317728207
5317734555
5317738827
5317745053
5317751279
5317756894
5317767026
5317771664
5317778927
5317783627
5317790829
5317798276
5317805173
5317812069
5317818600
5317823483
5317828915
5317835019
5317841305
5317847287
5317853390
5317860409
5317864987
5317871762
5317878476
5317884030
5317890316
5317896176
5317901852
5317907223
5317913449
5317919674
5317924557
5317931088
5317936764
5317942867
5317948727
5317954586
5317960201
5317967159
5317972897
5317979427
5317984676
5317990109
5317996883
5318001522
5318008236
5318014339
5318019222
5318026424
5318032894
5318038387
5318044125
5318051876
5318059322
5318065365
5318071590
5318079769
5318087032
5318091488
5318097835
5318103390
5318110958
5318117489
5318124508
5318131893
5318137630
5318144832
5318149959
5318156307
5318162105
5318169735
5318178646
5318184627
5318189022
5318196956
5318204708
5318210750
5318217464
5318222164
5318228389
5318234798
5318240901
5318251460
5318257015
5318263362
5318270137
5318276912
5318282100
5318288570
5318295528
5318301753
5318307796
5318313289
5318320552
5318326411
5318332637
5318340572
5318347407
5318353023
5318359798
5318366328
5318371760
5318377925
5318384089
5318390376
5318395869
5318401729
5318408687
5318414302
5318420344
5318425349
5318432124
5318437861
5318444026
5318451350
5318457515
5318462947
5318467768
5318475764
5318480830
5318486933
5318491877
5318498225
5318505244
5318509638
5318517451
5318522883
5318529475
5318534114
5318540949
5318546137
5318552424
5318559260
5318565730
5318570979
5318576899
5318582209
5318587763
5318594416
5318600886
5318607050
5318613276
5318619318
5318624567
5318630488
5318637324
5318642206
5318648737
5318655085
5318661310
5318666254
5318672175
5318678461
5318683161
5318689814
5318696528
5318702936
5318707758
5318713740
5318720026
5318725153
5318731562
5318738520
5318746454
5318751642
5318756525
5318763239
5318770136
5318776117
5318780878
5318788690
5318794123
5318799738
5318806391
5318811884
5318818720
5318824823
5318830988
5318837213
5318841669
5318848383
5318854364
5318861261
5318866632
5318873712
5318878839
5318886713
5318892511
5318899347
5318905084
5318911859
5318918512
5318924371
5318930963
5318935480
5318942071
5318948419
5318954584
5318960870
5318967401
5318972772
5318979120
5318984430
5318990106
5318997186
5319002496
5319008722
5319014642
5319020257
5319026544
5319032830
5319038385
5319044244
5319050958
5319057428
5319063836
5319069879
5319074151
5319081475
5319087518
5319093072
5319099237
5319105706
5319111260
5319117364
5319124322
5319129815
5319135186
5319140374
5319146966
5319152947
5319159173
5319166192
5319172051
5319177483
5319183099
5319189629
5319195977
5319202325
5319209100
5319214715
5319221062
5319225518
5319231866
5319238091
5319243951
5319250542
5319256158
5319262566
5319267815
5319273919
5319279595
5319287285
5319294365
5319300591
5319306695
5319311944
5319318047
5319323784
5319329949
5319337761
5319343010
5319349541
5319354119
5319360222
5319366143
5319372551
5319379387
5319385186
5319391960
5319397942
5319404778
5319410942
5319416924
5319424492
5319431450
5319438347
5319443474
5319450737
5319456352
5319462578
5319469658
5319475273
5319481743
5319486992
5319493950
5319498894
5319505058
5319512199
5319516411
5319523735
5319530083
5319535515
5319541435
5319548027
5319553398
5319559746
5319564812
5319570854
5319577324
5319583427
5319590019
5319595939
5319602165
5319608818
5319614982
5319619560
5319625724
5319632682
5319637077
5319644645
5319650932
5319657585
5319662529
5319669120
5319674491
5319680778
5319687370
5319691642
5319699150
5319703483
5319710380
5319716361
5319723258
5319729240
5319735343
5319740287
5319746024
5319752372
5319757804
5319764213
5319770133
5319775932
5319781913
5319788078
5319793266
5319798209
5319804923
5319811942
5319818046
5319823905
5319832084
5319838004
5319845328
5319849601
5319856864
5319862235
5319869132
5319873466
5319879935
5319886100
5319892386
5319897147
5319904777
5319910453
5319916922
5319922538
5319928763
5319935416
5319939627
5319946952
5319953971
5319959403
5319966666
5319973929
5319980155
5319987845
5319995780
5320001334
5320007804
5320012686
5320018912
5320025076
5320031668
5320037222
5320043814
5320050467
5320055838
5320062003
5320067374
5320073538
5320079520
5320085928
5320091483
5320097464
5320103934
5320110281
5320115225
5320120657
5320126883
5320134085
5320139700
5320145376
5320152090
5320157400
5320162894
5320169668
5320174917
5320181082
5320187674
5320193594
5320199209
5320205801
5320212942
5320218802
5320225149
5320230459
5320236197
5320242483
5320248098
5320255117
5320259695
5320265615
5320273001
5320278799
5320285330
5320291433
5320298025
5320302908
5320309133
5320315481
5320319876
5320326406
5320331655
5320338796
5320345083
5320351248
5320355947
5320361929
5320369009
5320376028
5320381521
5320387930
5320393118
5320399038
5320405080
5320410757
5320417898
5320424001
5320429800
5320434804
5320441335
5320447866
5320453176
5320460134
5320465017
5320472829
5320477834
5320484365
5320490651
5320497793
5320505117
5320510549
5320517568
5320525075
5320529897
5320537038
5320543081
5320550527
5320555349
5320561940
5320567739
5320574147
5320579030
5320585378
5320592397
5320596852
5320604238
5320610341
5320615773
5320622060
5320628285
5320634206
5320640676
5320645192
5320651418
5320658376
5320664052
5320669240
5320675588
5320682729
5320688100
5320694325
5320700063
5320706349
5320712025
5320717946
5320724721
5320729481
5320736073
5320742116
5320748280
5320754567
5320758717
5320765980
5320772328
5320778737
5320782948
5320790516
5320795582
5320801198
5320808217
5320814015
5320819874
5320826588
5320831654
5320838429
5320842396
5320850941
5320855397
5320861439
5320868214
5320873646
5320879994
5320884816
5320892811
5320898365
5320907093
5320912892
5320919300
5320925160
5320930103
5320937855
5320944386
5320948902
5320956349
5320963123
5320970203
5320975819
5320981373
5320987965
5320994190
5321000538
5321005115
5321011280
5321018360
5321023975
5321031422
5321037525
5321043629
5321050464
5321057178
5321062244
5321069446
5321077015
5321082569
5321089222
5321095508
5321101063
5321106067
5321113514
5321119007
5321125232
5321130848
5321137012
5321143909
5321149524
5321155323
5321161243
5321167774
5321173877
5321179004
5321185596
5321191699
5321197132
5321203113
5321209827
5321214954
5321221607
5321227832
5321232593
5321239734
5321246326
5321250354
5321257861
5321263477
5321270007
5321275195
5321281482
5321288623
5321294666
5321299609
5321305957
5321312244
5321318652
5321323596
5321330371
5321336047
5321342334
5321346911
5321352954
5321359973
5321364734
5321371325
5321379687
5321387500
5321392749
5321398913
5321404590
5321410388
5321418322
5321423510
5321429248
5321434741
5321440417
5321447436
5321454394
5321460925
5321465686
5321472888
5321477832
5321484362
5321489855
5321495959
5321502429
5321508044
5321515307
5321521472
5321525622
5321533618
5321539843
5321546191
5321552172
5321557665
5321564440
5321569018
5321575549
5321581713
5321588244
5321595507
5321603197
5321609728
5321617236
5321622912
5321629198
5321635912
5321642077
5321647448
5321653368
5321660570
5321666491
5321671740
5321677355
5321682665
5321688891
5321695421
5321700976
5321707384
5321712633
5321718737
5321723070
5321730028
5321737535
5321742968
5321748156
5321754808
5321760607
5321767076
5321772264
5321778490
5321783556
5321789904
5321796495
5321801622
5321807726
5321812731
5321820909
5321826158
5321832018
5321837572
5321844225
5321850450
5321856676
5321863207
5321868395
5321873705
5321880113
5321885912
5321891893
5321898424
5321904344
5321909898
5321915086
5321921556
5321927049
5321932970
5321937364
5321946092
5321951463
5321957628
5321962755
5321969041
5321974840
5321980333
5321987413
5321992601
5322000291
5322006517
5322012498
5322017747
5322024461
5322031297
5322036546
5322042772
5322049119
5322053331
5322060533
5322066087
5322072801
5322077745
5322084336
5322090684
5322096055
5322101487
5322107774
5322114182
5322121140
5322129075
5322136094
5322141099
5322151414
5322155930
5322163377
5322169846
5322175828
5322181931
5322188889
5322194138
5322199998
5322206101
5322212876
5322218186
5322224290
5322230393
5322235154
5322241379
5322246934
5322253098
5322258652
5322264390
5322270920
5322278184
5322283555
5322289109
5322294419
5322300766
5322305710
5322312851
5322318222
5322323716
5322329819
5322336777
5322342820
5322349656
5322353379
5322359970
5322366257
5322372177
5322378220
5322384323
5322389572
5322395127
5322401535
5322406784
5322413193
5322419174
5322428635
5322435654
5322442001
5322448471
5322453415
5322461594
5322467331
5322473679
5322479355
5322484665
5322491257
5322497421
5322503891
5322510727
5322514755
5322521835
5322526840
5322533371
5322538803
5322545151
5322553207
5322559921
5322565170
5322571579
5322576645
5322581711
5322588546
5322596664
5322601303
5322608200
5322614608
5322620651
5322626449
5322632187
5322639206
5322645126
5322650863
5322656234
5322662521
5322669967
5322674301
5322683578
5322689498
5322696395
5322702316
5322709152
5322715682
5322721786
5322729049
5322735458
5322741622
5322748397
5322754134
5322759567
5322765609
5322773116
5322777938
5322784591
5322790633
5322796981
5322801742
5322807845
5322815292
5322821090
5322828048
5322833297
5322839828
5322845321
5322851851
5322858260
5322864486
5322869735
5322875533
5322880904
5322887252
5322893783
5322899886
5322904769
5322911116
5322917281
5322923873
5322929732
5322935408
5322942061
5322948836
5322955062
5322962569
5322967757
5322974166
5322979598
5322987410
5322992964
5322998702
5323005416
5323010176
5323017012
5323023360
5323029402
5323033553
5323040205
5323047102
5323053145
5323058577
5323063826
5323070357
5323077071
5323083846
5323089949
5323096175
5323104597
5323110518
5323116316
5323123091
5323129561
5323136702
5323141951
5323148237
5323152998
5323159529
5323164412
5323170881
5323176680
5323183088
5323188826
5323195906
5323200728
5323207014
5323213301
5323221296
5323227034
5323234541
5323240828
5323246931
5323253828
5323260725
5323265791
5323272383
5323277449
5323283613
5323288313
5323294416
5323301557
5323307295
5323313093
5323318525
5323325300
5323330427
5323335737
5323342207
5323349653
5323355268
5323361372
5323365949
5323371931
5323376997
5323383100
5323389326
5323395612
5323402326
5323408369
5323414228
5323418806
5323425458
5323431928
5323438520
5323443342
5323449384
5323455427
5323461652
5323467084
5323472761
5323479657
5323485212
5323490888
5323496503
5323503217
5323507734
5323514325
5323520490
5323525556
5323531232
5323537946
5323543988
5323548200
5323555646
5323559980
5323566510
5323572919
5323579877
5323584760
5323591352
5323596356
5323603498
5323608441
5323614972
5323620954
5323626019
5323631574
5323638165
5323644086
5323650678
5323659161
5323663434
5323670087
5323675763
5323682660
5323687726
5323694684
5323701703
5323706952
5323714886
5323719830
5323726544
5323730755
5323737164
5323742657
5323749859
5323756634
5323761700
5323768170
5323773297
5323779461
5323786664
5323792279
5323801434
5323807110
5323814434
5323820172
5323826886
5323832379
5323838971
5323845501
5323850140
5323858074
5323863140
5323869671
5323874615
5323881268
5323885418
5323892498
5323897442
5323904339
5323909771
5323915936
5323921063
5323927654
5323933697
5323939983
5323945294
5323951641
5323957073
5323962994
5323969341
5323975018
5323981426
5323985943
5323992596
5323997356
5324003704
5324008892
5324015362
5324020489
5324027264
5324034038
5324038616
5324044842
5324051128
5324058208
5324063640
5324068584
5324075176
5324081829
5324087139
5324091289
5324098125
5324104473
5324111187
5324117046
5324123455
5324128704
5324132976
5324141155
5324148601
5324153850
5324159526
5324165447
5324171245
5324177593
5324184368
5324188457
5324195293
5324201152
5324207927
5324214946
5324221416
5324226787
5324246135
5324253093
5324259807
5324266155
5324272075
5324276408
5324284160
5324290263
5324296184
5324301982
5324307292
5324314250
5324320293
5324325969
5324333232
5324337810
5324347087
5324353007
5324359050
5324365275
5324371928
5324378276
5324383586
5324390666
5324395610
5324403788
5324409587
5324416301
5324422221
5324428386
5324434306
5324440593
5324446513
5324453288
5324458781
5324464274
5324470927
5324476847
5324482646
5324489298
5324494120
5324500468
5324506632
5324511027
5324517741
5324523966
5324528239
5324535929
5324540690
5324548136
5324553935
5324561137
5324565531
5324572123
5324577555
5324583537
5324590006
5324593241
5324598917
5324602824
5324607584
5324611429
5324616373
5324620219
5324625529
5324630900
5324634379
5324638712
5324643168
5324647806
5324652567
5324659159
5324663614
5324667948
5324673075
5324677347
5324681070
5324684977
5324689798
5324695475
5324699869
5324704142
5324709391
5324713541
5324717386
5324724710
5324729105
5324734598
5324738626
5324743753
5324747660
5324752054
5324757120
5324762491
5324766947
5324771463
5324776346
5324781900
5324786173
5324791666
5324796366
5324801309
5324806864
5324811929
5324816873
5324822855
5324828409
5324833475
5324840311
5324845499
5324851968
5324857034
5324861185
5324865823
5324871805
5324876382
5324880228
5324885843
5324889932
5324895547
5324898599
5324906168
5324911722
5324915567
5324921182
5324926553
5324930215
5324934366
5324939981
5324944803
5324948831
5324953897
5324958536
5324961892
5324967508
5324973733
5324978311
5324982889
5324987588
5324992044
5324996255
5325002420
5325007180
5325012918
5325017495
5325021890
5325027139
5325031289
5325035196
5325040322
5325045571
5325050820
5325055093
5325060342
5325064309
5325070046
5325075173
5325079629
5325085977
5325090127
5325094522
5325099221
5325103860
5325108193
5325113381
5325119302
5325124123
5325129067
5325133279
5325137673
5325144265
5325151101
5325156106
5325161538
5325167214
5325172280
5325176308
5325182351
5325188149
5325192849
5325198037
5325203103
5325208108
5325212929
5325217385
5325224648
5325233193
5325238381
5325242837
5325248757
5325253579
5325257180
5325264016
5325268899
5325275185
5325280556
5325286721
5325292092
5325299477
5325305703
5325312905
5325319680
5325324257
5325328713
5325333535
5325338051
5325342812
5325347817
5325352455
5325358925
5325363747
5325368813
5325373940
5325379128
5325385109
5325390541
5325395607
5325400795
5325406105
5325411171
5325416786
5325421730
5325424782
5325433388
5325440041
5325444374
5325450539
5325456093
5325460854
5325466469
5325471107
5325478371
5325484779
5325490517
5325494850
5325501381
5325506264
5325512794
5325517982
5325523476
5325530556
5325535133
5325541359
5325547462
5325552650
5325557167
5325562660
5325569923
5325576027
5325582618
5325588234
5325593177
5325598671
5325604652
5325610267
5325616371
5325621925
5325626869
5325632057
5325637672
5325643714
5325649452
5325655860
5325659950
5325665870
5325671730
5325677284
5325681129
5325687293
5325693336
5325696754
5325703712
5325711097
5325718116
5325723670
5325727577
5325733314
5325738685
5325743385
5325750465
5325754859
5325764625
5325768653
5325776344
5325781898
5325786597
5325792823
5325798438
5325802589
5325809424
5325816016
5325820167
5325826819
5325831824
5325837440
5325843116
5325850196
5325856666
5325865027
5325872107
5325878455
5325883765
5325889624
5325894935
5325901099
5325906226
5325911292
5325916480
5325922095
5325926184
5325932288
5325938147
5325942359
5325949195
5325953406
5325958716
5325964026
5325969885
5325975440
5325981360
5325987036
5325993018
5325998450
5326002783
5326009436
5326015418
5326020789
5326025549
5326031958
5326037695
5326043005
5326046912
5326052405
5326058569
5326062537
5326069556
5326075781
5326084448
5326089392
5326094336
5326099768
5326105688
5326110571
5326115698
5326120398
5326128210
5326133948
5326139380
5326145117
5326150549
5326155737
5326161230
5326167151
5326175085
5326182043
5326186377
5326192785
5326198523
5326204138
5326209753
5326216040
5326220129
5326227026
5326233313
5326239050
5326245153
5326249426
5326254614
5326259619
5326267248
5326273413
5326279821
5326284216
5326289526
5326298620
5326304174
5326310705
5326316869
5326322118
5326327673
5326334142
5326339941
5326345495
5326350011
5326355627
5326360998
5326367406
5326372900
5326378759
5326384740
5326390295
5326395055
5326400915
5326405553
5326413671
5326420019
5326426610
5326433874
5326437719
5326444921
5326451269
5326457006
5326466039
5326472387
5326478307
5326483068
5326487584
5326493505
5326498815
5326503148
5326508947
5326516515
5326522985
5326528905
5326534581
5326538915
5326543676
5326549657
5326554845
5326559606
5326564794
5326570653
5326575475
5326582067
5326587621
5326592381
5326597142
5326603429
5326608373
5326614232
5326618627
5326625096
5326630528
5326635472
5326642125
5326647252
5326653355
5326659703
5326664830
5326669896
5326674168
5326682103
5326686742
5326692845
5326699864
5326705113
5326710972
5326716710
5326722081
5326727452
5326732823
5326739537
5326745335
5326751622
5326755955
5326761509
5326767735
5326772740
5326777134
5326783421
5326790135
5326794651
5326798863
5326805027
5326811009
5326816624
5326821385
5326829319
5326834629
5326840794
5326846409
5326852207
5326857273
5326865086
5326871189
5326878086
5326884495
5326891087
5326897007
5326902867
5326909214
5326914890
5326922459
5326928867
5326935703
5326942112
5326948887
5326955112
5326962009
5326967991
5326971714
5326979710
5326985874
5326991245
5326996799
5327001682
5327007297
5327011997
5327019016
5327026707
5327036106
5327041355
5327047642
5327054538
5327061130
5327068332
5327074375
5327080173
5327087009
5327091282
5327098728
5327104831
5327112583
5327120273
5327125888
5327131137
5327136081
5327142795
5327151889
5327165256
5327177707
5327186801
5327195407
5327203098
5327211948
5327219089
5327226413
5327234103
5327239841
5327245090
5327249667
5327254916
5327259982
5327264621
5327270541
5327276889
5327283359
5327287997
5327293735
5327299899
5327305270
5327311740
5327317538
5327322726
5327328158
5327332675
5327337497
5327342380
5327347079
5327351901
5327359225
5327365878
5327369662
5327374118
5327381137
5327385165
5327391452
5327397433
5327402865
5327409335
5327413974
5327418734
5327423617
5327429599
5327433627
5327441317
5327446505
5327451022
5327457980
5327464755
5327469576
5327476351
5327482577
5327488070
5327494052
5327498568
5327503939
5327509676
5327515292
5327520724
5327526522
5327531039
5327537631
5327542818
5327547823
5327552279
5327561007
5327564791
5327570895
5327577730
5327582674
5327588778
5327594088
5327600741
5327607210
5327613070
5327618563
5327623568
5327627474
5327634066
5327640230
5327645907
5327651217
5327656588
5327662020
5327667452
5327673678
5327680758
5327685274
5327691927
5327698153
5327702303
5327707308
5327713411
5327719454
5327723909
5327729097
5327735872
5327740694
5327746492
5327751375
5327756502
5327762667
5327767244
5327773165
5327780672
5327785555
5327790621
5327795503
5327802828
5327807344
5327814851
5327819124
5327825411
5327830476
5327837190
5327842012
5327847505
5327853181
5327858125
5327862581
5327871187
5327879243
5327883760
5327888765
5327898958
5327903779
5327910310
5327915010
5327922334
5327928010
5327935274
5327941377
5327947053
5327951387
5327956758
5327961824
5327967439
5327974702
5327978853
5327986299
5327990998
5327996614
5328001558
5328007600
5328013215
5328019624
5328026887
5328032319
5328038056
5328043489
5328049104
5328054841
5328060517
5328064424
5328071443
5328077607
5328081819
5328087800
5328093171
5328099641
5328107270
5328113862
5328119294
5328125642
5328131196
5328137299
5328142365
5328148408
5328153718
5328159089
5328168061
5328174836
5328180939
5328186494
5328192902
5328198090
5328204011
5328209443
5328216096
5328221039
5328226105
5328231415
5328236603
5328242829
5328247651
5328257905
5328264679
5328270173
5328276581
5328281342
5328287812
5328291718
5328298127
5328302094
5328307831
5328314423
5328320343
5328325714
5328331879
5328337006
5328342377
5328348480
5328354767
5328360871
5328365082
5328370453
5328376007
5328380341
5328387421
5328391510
5328399323
5328405548
5328411163
5328415924
5328421722
5328428131
5328431854
5328438324
5328444855
5328451935
5328459015
5328463348
5328469879
5328475861
5328479767
5328486969
5328492767
5328498138
5328504059
5328509125
5328514862
5328519867
5328524078
5328531647
5328537018
5328544037
5328549103
5328554596
5328560394
5328566559
5328571747
5328575897
5328581634
5328587005
5328594024
5328600738
5328605621
5328610626
5328618927
5328624420
5328630584
5328635772
5328641143
5328647125
5328652374
5328659332
5328665069
5328669891
5328675323
5328681610
5328688445
5328693817
5328699981
5328705718
5328711211
5328714080
5328722015
5328727813
5328734649
5328740813
5328744842
5328751739
5328757659
5328764983
5328769866
5328777373
5328784698
5328791106
5328798003
5328806304
5328811736
5328816070
5328821319
5328828399
5328833770
5328841094
5328847808
5328852324
5328858062
5328863799
5328869475
5328874602
5328878814
5328887847
5328893767
5328899138
5328905303
5328910857
5328916716
5328925261
5328930815
5328936736
5328942046
5328948149
5328953337
5328958830
5328964568
5328970244
5328974578
5328981352
5328986418
5328993071
5328998259
5329006194
5329011260
5329016081
5329022551
5329027617
5329033293
5329039458
5329046416
5329052214
5329057463
5329063261
5329068205
5329073515
5329082915
5329086943
5329093901
5329098906
5329104887
5329112395
5329120573
5329123991
5329134855
5329140104
5329146086
5329152433
5329156645
5329162932
5329169035
5329173735
5329179533
5329184172
5329190886
5329195280
5329202604
5329206999
5329212858
5329218534
5329224577
5329233793
5329240873
5329245878
5329251860
5329256559
5329262113
5329267546
5329275663
5329280912
5329287138
5329291410
5329296903
5329303739
5329307523
5329314420
5329320158
5329326872
5329333341
5329337675
5329344267
5329349332
5329353971
5329360563
5329365018
5329374357
5329383512
5329386442
5329395475
5329401823
5329408536
5329414762
5329421903
5329427030
5329432523
5329437589
5329442655
5329446988
5329453397
5329457914
5329467374
5329473111
5329479093
5329482267
5329488492
5329495023
5329499356
5329506314
5329511686
5329518827
5329523648
5329530118
5329535306
5329540250
5329545316
5329551114
5329557340
5329566312
5329570218
5329577664
5329582242
5329587674
5329592923
5329598538
5329603421
5329610745
5329617337
5329621304
5329625699
5329633145
5329638089
5329645413
5329649808
5329657010
5329661649
5329669034
5329674100
5329680203
5329685147
5329690213
5329696866
5329701077
5329708584
5329714688
5329719510
5329724576
5329730008
5329735867
5329741360
5329746182
5329753384
5329759060
5329764492
5329768948
5329775174
5329780117
5329785061
5329791531
5329798428
5329804898
5329811001
5329816494
5329823330
5329829129
5329835842
5329842068
5329849697
5329854763
5329860256
5329865139
5329871304
5329876064
5329882961
5329888210
5329897366
5329902065
5329908718
5329913052
5329918301
5329924953
5329930080
5329936489
5329941250
5329947903
5329952358
5329958584
5329965115
5329971035
5329977444
5329984035
5329991299
5329999111
5330006801
5330013515
5330020168
5330024685
5330031582
5330038357
5330045437
5330050319
5330056972
5330063259
5330066555
5330072902
5330078273
5330083889
5330090480
5330097622
5330104152
5330109951
5330115444
5330120571
5330123500
5330131191
5330136684
5330143520
5330149745
5330155116
5330161159
5330166408
5330172817
5330178676
5330182826
5330188747
5330196193
5330201442
5330207912
5330212550
5330219081
5330223048
5330230128
5330235378
5330243190
5330248622
5330253749
5330259059
5330264735
5330269984
5330275477
5330280482
5330287196
5330293544
5330299159
5330303432
5330308986
5330315272
5330321437
5330325648
5330332545
5330338221
5330344691
5330349574
5330355800
5330360743
5330367884
5330373378
5330379664
5330384974
5330391139
5330396022
5330401210
5330406764
5330412501
5330418116
5330423304
5330432582
5330438502
5330446375
5330452174
5330457667
5330464015
5330469508
5330475489
5330482203
5330486964
5330493128
5330499232
5330503443
5330508814
5330514613
5330521143
5330527186
5330533350
5330538477
5330543665
5330550074
5330555872
5330562952
5330570704
5330576075
5330582850
5330593348
5330597681
5330603113
5330610254
5330615626
5330622584
5330628321
5330635157
5330639917
5330645044
5330650660
5330657496
5330661463
5330669275
5330673426
5330680811
5330686426
5330691919
5330694910
5330702112
5330707972
5330714014
5330720545
5330724695
5330729151
5330735742
5330742212
5330747766
5330752283
5330757288
5330765283
5330770166
5330776514
5330782068
5330787134
5330793115
5330798059
5330801050
5330810327
5330815393
5330820947
5330827356
5330833704
5330839502
5330844873
5330850427
5330857629
5330863306
5330868738
5330873682
5330879846
5330884119
5330891199
5330895837
5330902551
5330909448
5330913598
5330920129
5330926416
5330931543
5330936792
5330941919
5330948022
5330955529
5330961084
5330966577
5330971338
5330978906
5330983239
5330988733
5330994470
5331002893
5331008203
5331014367
5331020776
5331027917
5331034814
5331045373
5331051293
5331057458
5331065515
5331069787
5331076135
5331081262
5331086511
5331093896
5331099694
5331104516
5331111474
5331116906
5331122643
5331128075
5331133569
5331138573
5331144799
5331150597
5331156518
5331162133
5331168908
5331172997
5331179284
5331184777
5331191613
5331197350
5331205834
5331213036
5331220910
5331226586
5331233605
5331237572
5331244164
5331251061
5331257836
5331264244
5331268456
5331275048
5331281029
5331284691
5331291832
5331297203
5331303734
5331309349
5331314415
5331321068
5331326561
5331332176
5331337609
5331343529
5331351158
5331354943
5331361839
5331365868
5331371605
5331378380
5331383812
5331388512
5331394615
5331401024
5331405235
5331411827
5331417259
5331421715
5331428307
5331433311
5331440941
5331445885
5331452171
5331457970
5331461632
5331469017
5331473045
5331479637
5331485741
5331490990
5331496483
5331503074
5331508690
5331514122
5331519188
5331524742
5331527611
5331538780
5331544334
5331550316
5331555931
5331561485
5331566429
5331571861
5331576377
5331584983
5331588523
5331595726
5331600853
5331606040
5331613060
5331618247
5331624839
5331631858
5331638877
5331644309
5331654441
5331659873
5331666953
5331673972
5331679954
5331685020
5331692161
5331697532
5331704063
5331709495
5331714500
5331722129
5331727195
5331731528
5331740195
5331745750
5331751121
5331755820
5331762229
5331766563
5331773765
5331779380
5331785911
5331795798
5331803245
5331810203
5331820579
5331825522
5331833091
5331839255
5331844565
5331850486
5331856040
5331861289
5331868613
5331874167
5331879233
5331884482
5331891684
5331897238
5331903159
5331909140
5331914817
5331919821
5331925376
5331929770
5331938132
5331942954
5331948874
5331953940
5331961691
5331968222
5331973776
5331978293
5331983481
5331990622
5331995688
5332002585
5332007834
5332012961
5332018271
5332024069
5332030783
5332038351
5332041891
5332048727
5332053366
5332059470
5332065329
5332070822
5332075827
5332081991
5332087240
5332093100
5332097983
5332104696
5332109213
5332114584
5332121725
5332129355
5332134604
5332141073
5332145468
5332151938
5332156637
5332162680
5332169333
5332174032
5332180807
5332185812
5332190939
5332196493
5332202597
5332208883
5332216329
5332223837
5332230368
5332237203
5332244955
5332249655
5332257162
5332265157
5332273397
5332280294
5332287679
5332295248
5332303671
5332311910
5332318380
5332329610
5332334310
5332345235
5332351339
5332359762
5332367269
5332373678
5332382345
5332386556
5332395528
5332402059
5332409749
5332417257
5332424947
5332435384
5332440999
5332448629
5332455648
5332461690
5332469686
5332478536
5332485494
5332495443
5332503987
5332511251
5332522786
5332529378
5332537435
5332542378
5332547322
5332556111
5332562642
5332569722
5332574422
5332580769
5332586385
5332592122
5332598042
5332603169
5332607991
5332615865
5332621236
5332627034
5332632405
5332637898
5332642964
5332649129
5332654195
5332661397
5332668599
5332672993
5332677510
5332683674
5332689900
5332693501
5332700337
5332707234
5332714619
5332719319
5332725667
5332730732
5332735981
5332742024
5332747090
5332752522
5332758625
5332764302
5332770039
5332776631
5332782185
5332787617
5332792073
5332796528
5332805012
5332809895
5332816914
5332821858
5332828083
5332832356
5332838154
5332845051
5332849690
5332856220
5332861103
5332867329
5332873066
5332877949
5332883137
5332890400
5332896259
5332904377
5332911335
5332918415
5332925800
5332931599
5332940082
5332946796
5332953449
5332960834
5332976093
5332983539
5332989338
5332998554
5333003620
5333009845
5333019428
5333027790
5333033771
5333043598
5333048908
5333056659
5333064411
5333072589
5333077533
5333090900
5333095233
5333104938
5333111957
5333119220
5333126789
5333133930
5333139972
5333146808
5333153888
5333165912
5333173786
5333183795
5333190692
5333201556
5333208942
5333217181
5333225177
5333235553
5333243304
5333248370
5333253863
5333259967
5333267169
5333272723
5333278094
5333285052
5333290606
5333297687
5333302569
5333308490
5333313434
5333317889
5333325335
5333330035
5333336200
5333342059
5333347552
5333353778
5333360614
5333365680
5333371783
5333375201
5333383441
5333389727
5333395892
5333401568
5333407977
5333413104
5333418536
5333423052
5333432513
5333435809
5333443133
5333447772
5333453326
5333459979
5333464617
5333471026
5333474810
5333482928
5333488665
5333494097
5333500506
5333506060
5333511126
5333517229
5333523333
5333530108
5333535601
5333541094
5333545550
5333552019
5333557085
5333564410
5333568682
5333577715
5333582171
5333589739
5333595659
5333600847
5333606402
5333612139
5333615435
5333623980
5333630327
5333637163
5333644304
5333650896
5333658587
5333667925
5333674273
5333684343
5333693926
5333700457
5333708635
5333714983
5333720354
5333728960
5333738176
5333744036
5333751177
5333760820
5333767473
5333774248
5333781084
5333786638
5333794695
5333802812
5333808427
5333815324
5333824846
5333832170
5333838029
5333845964
5333853715
5333860124
5333867021
5333875017
5333883867
5333892290
5333901933
5333910112
5333921220
5333926713
5333935319
5333942399
5333949296
5333954057
5333963212
5333968583
5333976396
5333980668
5333985917
5333991227
5333997148
5334003617
5334007646
5334014787
5334019609
5334026444
5334030900
5334036332
5334042802
5334048722
5334053971
5334060624
5334066911
5334072892
5334078751
5334083146
5334089249
5334095353
5334099686
5334106889
5334111527
5334116044
5334122636
5334129716
5334134049
5334139054
5334145890
5334151139
5334157609
5334163285
5334168351
5334173356
5334180314
5334185502
5334191422
5334197403
5334205338
5334211442
5334216996
5334225113
5334230851
5334236832
5334242630
5334248002
5334255814
5334260209
5334265519
5334270707
5334276444
5334283402
5334287491
5334293167
5334301224
5334306107
5334312882
5334317826
5334323258
5334329483
5334334854
5334341324
5334346695
5334353409
5334362442
5334367630
5334374283
5334379593
5334385330
5334394302
5334401566
5334406509
5334411636
5334417374
5334424576
5334429031
5334435135
5334439346
5334446060
5334451858
5334456985
5334462173
5334467239
5334472061
5334477188
5334481827
5334489517
5334498306
5334505630
5334510879
5334517654
5334524795
5334529312
5334537246
5334543472
5334547378
5334552688
5334556839
5334563797
5334569473
5334573745
5334578811
5334584671
5334589431
5334595413
5334600601
5334607925
5334612503
5334618911
5334625503
5334631668
5334636123
5334644180
5334648513
5334652725
5334663711
5334668716
5334672012
5334682998
5334689956
5334694839
5334699477
5334705886
5334711440
5334717117
5334722366
5334727676
5334733962
5334738296
5334744216
5334749709
5334755202
5334760268
5334765212
5334770400
5334780532
5334786941
5334792983
5334797622
5334804458
5334810378
5334815383
5334819838
5334826918
5334831069
5334837905
5334842849
5334849013
5334854811
5334860305
5334863234
5334872267
5334879164
5334884841
5334890090
5334895644
5334900649
5334905654
5334912001
5334916823
5334924330
5334929762
5334936354
5334940688
5334946181
5334952284
5334959181
5334966628
5334972670
5334977980
5334984938
5334988661
5334995558
5335000136
5335005751
5335010207
5335018813
5335024916
5335030470
5335035536
5335040968
5335046400
5335051771
5335058180
5335063063
5335070265
5335074476
5335080824
5335086928
5335092787
5335099684
5335105726
5335112074
5335120558
5335130568
5335136488
5335142775
5335148756
5335154982
5335159620
5335164625
5335169508
5335175550
5335180128
5335185194
5335190565
5335196302
5335201856
5335207716
5335214002
5335219068
5335224562
5335230604
5335236830
5335243604
5335250440
5335260877
5335270094
5335276869
5335288831
5335295850
5335305311
5335316846
5335324842
5335334730
5335344556
5335352674
5335359510
5335366346
5335374097
5335381177
5335388807
5335396802
5335406080
5335412183
5335418958
5335426587
5335434095
5335441358
5335450086
5335458203
5335465589
5335473279
5335480786
5335488172
5335497083
5335502454
5335511975
5335519422
5335526441
5335534619
5335541516
5335548718
5335558423
5335565625
5335575513
5335580640
5335590894
5335598706
5335605359
5335613110
5335619153
5335629285
5335637219
5335645154
5335655469
5335662976
5335671155
5335678357
5335686963
5335693860
5335701001
5335709851
5335717907
5335723889
5335730664
5335741101
5335748547
5335755078
5335764721
5335770886
5335778515
5335785473
5335795056
5335802929
5335810681
5335818249
5335827648
5335837048
5335845776
5335853527
5335861889
5335872143
5335877087
5335886791
5335892895
5335902538
5335910229
5335916576
5335927502
5335934521
5335942577
5335949901
5335959606
5335967785
5335974621
5335983898
5335990612
5336000438
5336009594
5336014904
5336026073
5336033825
5336039623
5336049938
5336057628
5336065624
5336072399
5336079357
5336088512
5336098461
5336106456
5336113719
5336121593
5336128368
5336136852
