5531367919
5531374023
5531380370
5531388000
5531394286
5531400207
5531406310
5531412292
5531417968
5531422912
5531428039
5531433837
5531439391
5531446654
5531451293
5531458739
5531465148
5531472106
5531479796
5531486388
5531492980
5531500670
5531507872
5531512206
5531520446
5531528502
5531536254
5531543761
5531549865
5531556945
5531566344
5531573668
5531581298
5531588866
5531596373
5531603514
5531609679
5531618895
5531626647
5531632506
5531640379
5531649901
5531655577
5531665648
5531672728
5531681395
5531690916
5531698607
5531706908
5531713805
5531721434
5531730101
5531737669
5531745299
5531753233
5531763182
5531771422
5531780455
5531788328
5531795775
5531804075
5531811094
5531820372
5531827147
5531834776
5531842344
5531850279
5531857481
5531863279
5531872618
5531879576
5531889585
5531901426
5531912229
5531922361
5531932005
5531941343
5531950376
5531962095
5531970579
5531980222
5531987058
5531995115
5532000547
5532010191
5532017454
5532026548
5532033506
5532042905
5532049741
5532056455
5532062681
5532070066
5532080747
5532089353
5532098935
5532106809
5532113828
5532120908
5532127988
5532134885
5532143613
5532150510
5532158261
5532165280
5532172910
5532179441
5532186521
5532194760
5532202024
5532209897
5532216733
5532223874
5532231015
5532236691
5532245542
5532252194
5532261655
5532269833
5532276181
5532283383
5532292172
5532299496
5532305600
5532315854
5532322690
5532331845
5532341916
5532349362
5532358456
5532366147
5532373654
5532384091
5532390561
5532399777
5532406857
5532413693
5532421566
5532429135
5532435910
5532441952
5532451107
5532460507
5532467770
5532476620
5532484982
5532491635
5532500057
5532507260
5532512448
5532521725
5532527462
5532539547
5532548397
5532556942
5532566036
5532573483
5532583492
5532591549
5532598324
5532608028
5532616695
5532623592
5532632381
5532639034
5532648373
5532659786
5532666439
5532675350
5532682430
5532689815
5532698055
5532705013
5532711666
5532719661
5532726497
5532734249
5532740902
5532749385
5532757076
5532762935
5532772518
5532778987
5532786067
5532794063
5532801021
5532808101
5532815486
5532824947
5532830928
5532837947
5532845149
5532852474
5532861141
5532869197
5532874873
5532882137
5532889461
5532896297
5532901790
5532910335
5532919429
5532929072
5532935908
5532943477
5532948421
5532956294
5532964107
5532973079
5532980342
5532986995
5532995173
5533002192
5533008296
5533015376
5533021846
5533029780
5533038325
5533045161
5533053706
5533059626
5533067866
5533075862
5533081233
5533088923
5533097285
5533104548
5533112666
5533119135
5533126277
5533132990
5533140193
5533148432
5533155634
5533161555
5533166987
5533175349
5533182124
5533191157
5533199763
5533206660
5533214350
5533223444
5533231440
5533237543
5533246882
5533254450
5533263178
5533273859
5533281122
5533291071
5533298517
5533307673
5533316523
5533325495
5533333185
5533343805
5533355158
5533364374
5533371576
5533378290
5533385797
5533393244
5533401117
5533408502
5533417047
5533424310
5533431696
5533437433
5533445001
5533451288
5533458673
5533465265
5533473810
5533481439
5533489069
5533493829
5533502985
5533510065
5533516534
5533526605
5533535089
5533543512
5533549615
5533558282
5533563531
5533573480
5533580682
5533588800
5533596795
5533604425
5533611383
5533618341
5533626458
5533633538
5533641595
5533650811
5533658746
5533666009
5533673089
5533681634
5533688043
5533696282
5533704766
5533713433
5533720452
5533729974
5533738397
5533747796
5533755120
5533762505
5533767999
5533775140
5533781792
5533787408
5533796380
5533802911
5533810113
5533816949
5533824029
5533828973
5533837456
5533844475
5533851555
5533858086
5533864861
5533869561
5533878533
5533884697
5533892144
5533898125
5533904778
5533911675
5533918938
5533924797
5533931389
5533937737
5533948906
5533954277
5533961235
5533967461
5533974358
5533979790
5533986687
5533996514
5534001824
5534008415
5534016411
5534022270
5534027092
5534033379
5534039726
5534045403
5534051140
5534057243
5534062004
5534068596
5534075432
5534081657
5534085808
5534091606
5534097404
5534103447
5534109672
5534116692
5534121696
5534128288
5534133293
5534138603
5534144890
5534149895
5534156425
5534162895
5534167167
5534173088
5534178215
5534184257
5534190727
5534197502
5534203972
5534209465
5534214042
5534221794
5534226005
5534232963
5534238823
5534245353
5534249992
5534256279
5534261467
5534267265
5534273368
5534279594
5534287528
5534291923
5534298271
5534304618
5534310417
5534317130
5534323173
5534329826
5534334159
5534340995
5534346061
5534351981
5534357719
5534364799
5534371085
5534376517
5534382560
5534387382
5534393790
5534399284
5534405570
5534411979
5534418204
5534423331
5534428947
5534435721
5534440909
5534447135
5534452384
5534458854
5534467093
5534472465
5534481315
5534487662
5534496390
5534503837
5534511344
5534516898
5534526053
5534530936
5534538016
5534544303
5534548941
5534555228
5534561942
5534567130
5534572318
5534579093
5534583670
5534590079
5534594535
5534601798
5534608023
5534612540
5534619254
5534625907
5534631278
5534637808
5534643424
5534648673
5534655020
5534661490
5534667227
5534673575
5534677969
5534685171
5534689810
5534696463
5534703360
5534707510
5534714224
5534719778
5534725027
5534731436
5534737051
5534742361
5534748526
5534754080
5534760122
5534765982
5534770254
5534777945
5534782644
5534790335
5534795584
5534801504
5534806570
5534813467
5534819143
5534825857
5534830984
5534837881
5534842581
5534847586
5534854422
5534860403
5534866568
5534873220
5534878591
5534883291
5534889700
5534895864
5534901968
5534906423
5534913076
5534919180
5534925710
5534931326
5534936819
5534941885
5534948782
5534955862
5534961355
5534967947
5534973318
5534979482
5534986074
5534992544
5535000356
5535006704
5535014028
5535023733
5535032033
5535039724
5535048330
5535054677
5535059255
5535065114
5535069936
5535076223
5535081838
5535088247
5535093374
5535099294
5535105520
5535110463
5535117727
5535123952
5535129140
5535133596
5535139943
5535145375
5535152883
5535157460
5535163381
5535169911
5535174550
5535181447
5535186208
5535191335
5535197865
5535205495
5535211354
5535217580
5535222951
5535228383
5535235158
5535240956
5535247060
5535251149
5535257008
5535264394
5535268910
5535275746
5535280995
5535285756
5535290944
5535297414
5535304127
5535308278
5535314137
5535321278
5535326405
5535331410
5535338551
5535343129
5535349476
5535353749
5535360097
5535366688
5535370839
5535376942
5535383473
5535388661
5535394154
5535401112
5535406544
5535412404
5535419545
5535425709
5535431813
5535438038
5535444813
5535451588
5535457447
5535463063
5535468556
5535474659
5535482044
5535488148
5535494312
5535501026
5535510182
5535516895
5535526295
5535532154
5535540821
5535544911
5535554798
5535563160
5535568775
5535574696
5535579578
5535585865
5535591541
5535595875
5535603565
5535609730
5535616138
5535621815
5535627369
5535632801
5535639515
5535646595
5535652149
5535657520
5535662830
5535670276
5535674488
5535680591
5535687183
5535692493
5535698658
5535703479
5535709217
5535714100
5535720813
5535726307
5535732593
5535738697
5535743946
5535749683
5535755542
5535760974
5535767078
5535773426
5535779285
5535785083
5535789905
5535797656
5535802905
5535808338
5535815906
5535821399
5535826770
5535832752
5535836902
5535843616
5535849231
5535856250
5535860400
5535866321
5535873462
5535879565
5535886768
5535891162
5535896960
5535904224
5535909534
5535916308
5535922473
5535929492
5535936694
5535942981
5535950305
5535958362
5535964648
5535969531
5535976916
5535982226
5535988086
5535995715
5536002124
5536010180
5536016711
5536023486
5536030627
5536038195
5536047412
5536053027
5536059619
5536066943
5536073107
5536079211
5536084765
5536090808
5536097277
5536103381
5536109362
5536115099
5536120471
5536126940
5536131823
5536137804
5536142687
5536148852
5536154284
5536160754
5536167223
5536172106
5536178210
5536184740
5536189318
5536196703
5536203356
5536211291
5536217699
5536224474
5536231066
5536236620
5536243761
5536250292
5536256029
5536263231
5536269152
5536275988
5536281969
5536287340
5536293566
5536299852
5536306200
5536313646
5536318651
5536325487
5536331591
5536336962
5536343737
5536350084
5536356005
5536360948
5536369615
5536374803
5536381883
5536388964
5536395494
5536401781
5536407274
5536413744
5536418871
5536423387
5536430895
5536437547
5536444872
5536450914
5536456895
5536463182
5536469041
5536475938
5536483324
5536492845
5536498399
5536506822
5536514451
5536520738
5536526475
5536534776
5536542650
5536548204
5536553331
5536559373
5536564012
5536569810
5536574876
5536580797
5536586168
5536591661
5536597581
5536602342
5536608934
5536613939
5536619859
5536623826
5536629380
5536635179
5536641160
5536645921
5536651658
5536657273
5536662156
5536667649
5536673081
5536677781
5536685166
5536689561
5536696458
5536702683
5536708604
5536712510
5536718553
5536724351
5536730576
5536737046
5536743150
5536749009
5536753648
5536760484
5536766099
5536772202
5536777085
5536783433
5536789475
5536793687
5536800950
5536806138
5536811814
5536817551
5536824326
5536829758
5536835068
5536841904
5536846055
5536852402
5536856614
5536863572
5536870163
5536875535
5536880295
5536886582
5536892868
5536898728
5536903855
5536912278
5536917649
5536922715
5536928269
5536935471
5536940293
5536949570
5536955673
5536963242
5536968491
5536974533
5536978928
5536985092
5536991501
5536999436
5537006577
5537011093
5537018723
5537024704
5537031174
5537036484
5537043442
5537050034
5537054977
5537061935
5537069015
5537074875
5537080063
5537086899
5537090927
5537097519
5537103500
5537109970
5537115890
5537119858
5537124801
5537131943
5537137802
5537143905
5537149521
5537155746
5537160812
5537165573
5537171188
5537177292
5537182113
5537187606
5537194137
5537200363
5537204940
5537211044
5537217392
5537222580
5537227645
5537233505
5537240463
5537246017
5537248825
5537257919
5537263717
5537269088
5537274337
5537280502
5537285995
5537292526
5537298934
5537306197
5537312179
5537318588
5537324325
5537329696
5537335616
5537340743
5537347579
5537352889
5537359603
5537364486
5537370834
5537376449
5537382125
5537387984
5537394576
5537400436
5537405685
5537412520
5537416915
5537423751
5537429488
5537434981
5537440536
5537447005
5537452010
5537457869
5537463241
5537469527
5537475264
5537482345
5537487960
5537491073
5537499923
5537505782
5537510970
5537517195
5537523848
5537528914
5537535323
5537541487
5537546065
5537553328
5537560164
5537566512
5537571211
5537578108
5537583113
5537590865
5537596602
5537603865
5537609053
5537617598
5537623091
5537628951
5537634688
5537640791
5537646101
5537650679
5537657210
5537663252
5537668501
5537674849
5537680037
5537686446
5537693404
5537699202
5537704878
5537712874
5537718977
5537723616
5537729231
5537735274
5537739729
5537745955
5537752791
5537756941
5537763777
5537769636
5537774885
5537780989
5537788130
5537794233
5537800398
5537805281
5537811018
5537817244
5537821638
5537828047
5537837751
5537842939
5537849592
5537856977
5537863874
5537868269
5537875105
5537881086
5537887800
5537892195
5537898786
5537903181
5537909345
5537914167
5537920881
5537928449
5537933698
5537938703
5537944685
5537949873
5537954755
5537961652
5537967207
5537973554
5537979780
5537985517
5537989728
5537995588
5538001203
5538009321
5538015241
5538021467
5538028119
5538033002
5538039472
5538044233
5538050092
5538056745
5538062116
5538067975
5538074201
5538079694
5538085553
5538093427
5538099225
5538104718
5538111798
5538116254
5538123822
5538131391
5538137372
5538145002
5538150434
5538155866
5538161969
5538169477
5538174665
5538180463
5538186444
5538190534
5538197186
5538203351
5538207990
5538214948
5538221051
5538226361
5538233075
5538238080
5538242963
5538249371
5538254437
5538259747
5538266522
5538271893
5538277020
5538283063
5538288983
5538293378
5538300763
5538306012
5538311749
5538316632
5538324322
5538328778
5538335003
5538341351
5538347699
5538353558
5538358624
5538378216
5538382794
5538389813
5538394818
5538403363
5538407330
5538413922
5538421124
5538425396
5538431378
5538435467
5538442547
5538447979
5538453106
5538459698
5538468731
5538474041
5538479473
5538486920
5538491619
5538496807
5538503155
5538508343
5538515179
5538520611
5538526592
5538532879
5538537884
5538543499
5538549114
5538553448
5538559490
5538564800
5538571270
5538576214
5538582683
5538587749
5538594097
5538599651
5538605144
5538610515
5538617290
5538623211
5538627422
5538637249
5538644817
5538652630
5538659649
5538665264
5538674541
5538680645
5538689556
5538695842
5538703716
5538710552
5538714641
5538723186
5538728069
5538733928
5538741802
5538747478
5538753459
5538758708
5538765850
5538769817
5538776042
5538781230
5538787883
5538795024
5538800395
5538806865
5538811870
5538818340
5538823344
5538829997
5538835796
5538842693
5538848186
5538854106
5538859050
5538865947
5538871867
5538875896
5538882548
5538888225
5538894023
5538899089
5538904704
5538912517
5538918193
5538924174
5538928508
5538934978
5538940898
5538946391
5538951640
5538958659
5538963969
5538969462
5538976054
5538981181
5538987223
5538993449
5538998576
5539004374
5539010844
5539015971
5539022074
5539027018
5539033854
5539039836
5539044108
5539050761
5539057536
5539063456
5539068766
5539075175
5539081095
5539086833
5539092692
5539098307
5539104167
5539110636
5539115885
5539122172
5539126811
5539131632
5539139201
5539145182
5539150309
5539158549
5539166178
5539172465
5539179118
5539186991
5539191263
5539199869
5539208414
5539216471
5539223673
5539230814
5539237162
5539242594
5539249064
5539253580
5539260355
5539267435
5539271769
5539279032
5539285196
5539290445
5539297647
5539303751
5539309854
5539315287
5539321390
5539325968
5539332498
5539337625
5539344400
5539350260
5539356058
5539361551
5539367166
5539372721
5539379190
5539385782
5539391824
5539396585
5539403116
5539408304
5539413248
5539420511
5539425821
5539431375
5539437845
5539442911
5539448587
5539453470
5539462259
5539468423
5539473978
5539480386
5539486307
5539492776
5539498086
5539505044
5539510599
5539514749
5539521707
5539527627
5539532998
5539538370
5539545083
5539551126
5539555948
5539561380
5539567361
5539571389
5539577249
5539583535
5539590799
5539595926
5539602090
5539607583
5539613870
5539621316
5539627908
5539633401
5539639505
5539647134
5539652505
5539658364
5539663247
5539670449
5539675515
5539681619
5539689065
5539696328
5539702187
5539708779
5539716164
5539721230
5539726907
5539733865
5539739419
5539745522
5539751992
5539757729
5539763345
5539772256
5539777505
5539782632
5539788613
5539794167
5539800698
5539807778
5539812234
5539819131
5539824868
5539831399
5539837136
5539841286
5539847390
5539851906
5539859475
5539865273
5539870949
5539875893
5539882546
5539888100
5539893471
5539898842
5539904824
5539909767
5539916054
5539921791
5539926552
5539933693
5539938454
5539944557
5539950600
5539955788
5539961464
5539967446
5539973183
5539980934
5539986427
5539991127
5539995827
5540002297
5540007301
5540013161
5540018898
5540023659
5540030251
5540036598
5540042213
5540046547
5540053871
5540058998
5540064491
5540069435
5540076820
5540082863
5540088112
5540093300
5540099159
5540105568
5540112037
5540117348
5540121925
5540129677
5540135719
5540141884
5540147438
5540153053
5540158058
5540164772
5540169349
5540176246
5540181617
5540188331
5540193458
5540199623
5540205909
5540210548
5540218788
5540224403
5540230201
5540237159
5540243141
5540250221
5540255836
5540262672
5540269691
5540275550
5540282386
5540289710
5540296302
5540302223
5540309425
5540315650
5540320655
5540327857
5540333656
5540340553
5540345008
5540351600
5540357398
5540364051
5540369910
5540375465
5540381202
5540388160
5540393653
5540400245
5540406165
5540411963
5540417396
5540422400
5540429236
5540433936
5540440101
5540445411
5540450416
5540455970
5540462806
5540469275
5540475684
5540480628
5540484717
5540490882
5540496436
5540502356
5540508460
5540514624
5540519995
5540526465
5540531348
5540537390
5540542517
5540548438
5540552588
5540559241
5540564063
5540570960
5540577735
5540582800
5540588782
5540594092
5540601538
5540607275
5540613074
5540618079
5540623023
5540629065
5540635962
5540639868
5540647375
5540653296
5540658301
5540665442
5540671484
5540676611
5540681250
5540686743
5540692053
5540699133
5540703894
5540711035
5540716467
5540722510
5540727148
5540734961
5540740393
5540746801
5540752905
5540758886
5540764929
5540769873
5540778357
5540783361
5540788061
5540793066
5540799597
5540807653
5540812780
5540819433
5540826025
5540832006
5540837805
5540843115
5540849645
5540856481
5540860388
5540868322
5540874731
5540879431
5540885961
5540890905
5540896826
5540903112
5540908910
5540913793
5540921117
5540925817
5540932409
5540938512
5540943578
5540950231
5540954992
5540962316
5540967382
5540974096
5540980382
5540985570
5540991186
5540996801
5541001623
5541008459
5541013036
5541020421
5541026464
5541031835
5541037328
5541042272
5541048559
5541055211
5541060949
5541065526
5541072973
5541078649
5541084386
5541089147
5541095678
5541100316
5541105870
5541112828
5541118444
5541124913
5541130284
5541134862
5541141088
5541146764
5541151097
5541158055
5541164952
5541172215
5541176732
5541183385
5541187779
5541194798
5541200536
5541206273
5541212193
5541219090
5541224644
5541232274
5541239903
5541245152
5541250706
5541255528
5541264683
5541271641
5541277623
5541283299
5541289830
5541295628
5541300877
5541306553
5541312291
5541317601
5541322239
5541327488
5541333714
5541341099
5541346959
5541352391
5541359349
5541366002
5541372105
5541378270
5541383824
5541389866
5541395237
5541402439
5541409275
5541413853
5541420262
5541426121
5541432652
5541440159
5541447056
5541452671
5541458958
5541463597
5541469395
5541475620
5541480747
5541487827
5541493260
5541500279
5541505955
5541513096
5541519627
5541526585
5541533482
5541538975
5541545200
5541552341
5541557468
5541564304
5541569858
5541576328
5541583103
5541587742
5541593723
5541599521
5541604832
5541610874
5541616611
5541622410
5541628269
5541633457
5541640842
5541646885
5541652073
5541657016
5541663059
5541670200
5541676853
5541682651
5541688572
5541693760
5541698276
5541703952
5541710178
5541715183
5541721408
5541726230
5541732456
5541738132
5541744846
5541750400
5541755100
5541761203
5541767490
5541772128
5541778903
5541783420
5541790561
5541797275
5541802402
5541806857
5541813449
5541818942
5541823642
5541829318
5541836276
5541841403
5541848361
5541853671
5541860080
5541865695
5541871249
5541876620
5541882968
5541889072
5541895053
5541901156
5541907260
5541912509
5541919284
5541924472
5541929477
5541936740
5541943759
5541948764
5541956332
5541961764
5541969882
5541974215
5541981723
5541987826
5541994662
5541999728
5542005892
5542010958
5542016329
5542021456
5542028781
5542033724
5542038363
5542044833
5542049777
5542056063
5542062838
5542068636
5542074801
5542079501
5542085421
5542090182
5542095187
5542102389
5542108187
5542114962
5542120821
5542126498
5542131503
5542136691
5542145052
5542150484
5542157687
5542163912
5542169222
5542175448
5542180208
5542185030
5542191317
5542196627
5542203341
5542209566
5542215853
5542221651
5542227633
5542233004
5542237642
5542244295
5542248873
5542254000
5542259554
5542264864
5542270968
5542276583
5542283419
5542290010
5542294710
5542300753
5542306063
5542310274
5542315279
5542324434
5542330538
5542336885
5542342195
5542347872
5542354769
5542360140
5542366121
5542372469
5542377657
5542384126
5542391084
5542397249
5542401460
5542408113
5542412691
5542419527
5542426668
5542432466
5542438875
5542444124
5542450594
5542455781
5542462678
5542469026
5542473848
5542479890
5542487092
5542493867
5542500398
5542506685
5542512361
5542518464
5542526399
5542532869
5542538484
5542543062
5542550081
5542556916
5542561738
5542569062
5542574678
5542580049
5542586274
5542592500
5542598176
5542603364
5542608308
5542614839
5542618745
5542626191
5542631990
5542639009
5542643464
5542649751
5542655549
5542659760
5542665559
5542671723
5542677705
5542683076
5542688386
5542694550
5542700776
5542707917
5542712922
5542717744
5542724152
5542729096
5542733979
5542739045
5542745637
5542751435
5542758454
5542764374
5542769135
5542774995
5542779145
5542785920
5542790497
5542797455
5542802826
5542808259
5542813691
5542821076
5542827424
5542834015
5542839936
5542846405
5542853608
5542859040
5542864960
5542870881
5542876191
5542881256
5542887238
5542891999
5542899018
5542904877
5542911835
5542917084
5542923615
5542927399
5542933319
5542939179
5542944550
5542951447
5542958038
5542963593
5542968231
5542973419
5542979523
5542985138
5542990692
5542997162
5543002594
5543007782
5543013458
5543020355
5543026947
5543033722
5543039825
5543046661
5543053436
5543060211
5543065948
5543070892
5543077606
5543083710
5543090301
5543095062
5543100982
5543106598
5543111053
5543118133
5543123077
5543128936
5543135650
5543141754
5543148040
5543153900
5543159149
5543166839
5543173065
5543180938
5543186920
5543193267
5543198944
5543204559
5543211273
5543217620
5543223846
5543229705
5543234100
5543242156
5543247283
5543254363
5543260833
5543267242
5543271819
5543278228
5543284820
5543291229
5543296905
5543305145
5543312774
5543321197
5543328399
5543334136
5543339324
5543346160
5543352630
5543358855
5543364104
5543370574
5543377105
5543381805
5543388518
5543395293
5543401214
5543407989
5543413726
5543419280
5543427886
5543434966
5543440032
5543448027
5543453826
5543459502
5543465545
5543471526
5543477874
5543485015
5543491545
5543497344
5543503386
5543510222
5543514434
5543521208
5543526396
5543532866
5543538542
5543545745
5543552031
5543557707
5543563750
5543570647
5543576933
5543586455
5543595000
5543605254
5543611967
5543618559
5543625578
5543632109
5543636687
5543645293
5543651213
5543657194
5543662138
5543668913
5543673979
5543680571
5543685637
5543692778
5543698332
5543704558
5543709623
5543716520
5543723539
5543728117
5543735441
5543741301
5543746672
5543752409
5543758024
5543764616
5543769987
5543775053
5543781767
5543787992
5543793119
5543798918
5543806120
5543811125
5543817289
5543822782
5543828947
5543835111
5543841825
5543847746
5543854460
5543860136
5543865812
5543872648
5543877897
5543884489
5543890287
5543895597
5543902250
5543907255
5543913053
5543919828
5543926420
5543932035
5543937894
5543944120
5543950834
5543955656
5543962308
5543967374
5543973417
5543978177
5543986356
5543991605
5543997770
5544003995
5544008939
5544014982
5544021573
5544027677
5544034635
5544039151
5544045743
5544052213
5544058072
5544064359
5544070951
5544076322
5544081998
5544088773
5544094754
5544100675
5544105924
5544113431
5544118802
5544125272
5544132230
5544139737
5544145352
5544151822
5544159696
5544166104
5544171964
5544177274
5544182767
5544189603
5544194852
5544201810
5544209134
5544215359
5544221036
5544225613
5544233487
5544238919
5544246731
5544255398
5544261502
5544265958
5544272305
5544278531
5544284451
5544290616
5544297574
5544304226
5544309475
5544314663
5544320157
5544326809
5544331753
5544339322
5544344998
5544351651
5544356472
5544362881
5544368008
5544374173
5544379300
5544385891
5544392422
5544398648
5544404507
5544410794
5544416104
5544422695
5544430203
5544434475
5544441189
5544445767
5544452480
5544457729
5544464077
5544469143
5544475857
5544483120
5544487392
5544492703
5544498806
5544504421
5544510342
5544517300
5544523403
5544530483
5544535610
5544542385
5544547573
5544553799
5544558132
5544565700
5544571316
5544577236
5544583706
5544588222
5544595424
5544600185
5544607815
5544613918
5544621120
5544626247
5544631435
5544638576
5544644741
5544649318
5544656215
5544662807
5544667446
5544674282
5544681118
5544686306
5544690578
5544698268
5544704677
5544711574
5544717922
5544725246
5544731960
5544738613
5544744960
5544752162
5544757655
5544762843
5544769924
5544776210
5544781459
5544787868
5544794460
5544800319
5544806178
5544812953
5544818629
5544823634
5544828883
5544834499
5544839809
5544847316
5544852626
5544858729
5544863795
5544870082
5544876796
5544882655
5544888026
5544893702
5544898829
5544904872
5544909633
5544915675
5544922816
5544927943
5544934108
5544940150
5544946009
5544951258
5544959071
5544966700
5544971217
5544976649
5544983607
5544989283
5544996180
5545001551
5545006434
5545013087
5545018824
5545025111
5545031214
5545036097
5545043910
5545048914
5545055934
5545060999
5545066493
5545072718
5545077540
5545082118
5545088831
5545094325
5545100855
5545105738
5545111597
5545117091
5545122828
5545128199
5545132777
5545139124
5545146632
5545152430
5545158594
5545163843
5545168299
5545174463
5545181421
5545188135
5545192408
5545199244
5545205042
5545211817
5545218165
5545222925
5545228846
5545235560
5545241114
5545246363
5545252466
5545259119
5545264978
5545271448
5545279261
5545284693
5545292200
5545298975
5545303064
5545311975
5545318506
5545324732
5545330225
5545337549
5545343408
5545349878
5545355737
5545361170
5545365015
5545370142
5545377039
5545383814
5545388879
5545395166
5545400415
5545406335
5545412378
5545418970
5545425012
5545430200
5545435327
5545442407
5545447412
5545454187
5545460779
5545466333
5545471460
5545477807
5545483850
5545489282
5545495324
5545501428
5545507348
5545511560
5545518030
5545524194
5545530237
5545536279
5545542505
5545547631
5545552636
5545559838
5545565210
5545571130
5545576623
5545582299
5545588952
5545593774
5545600183
5545606286
5545611230
5545616723
5545623376
5545629907
5545635827
5545641076
5545646264
5545653527
5545657494
5545665246
5545669824
5545677697
5545683129
5545689599
5545696618
5545702416
5545708459
5545715234
5545722680
5545728783
5545734521
5545740502
5545746300
5545753441
5545759240
5545766503
5545771264
5545777917
5545783776
5545793603
5545800194
5545807213
5545814232
5545819970
5545826195
5545834069
5545842431
5545848961
5545854821
5545860558
5545867760
5545873009
5545881249
5545886925
5545893334
5545898766
5545905785
5545910668
5545916588
5545925316
5545930870
5545937828
5545946129
5545952110
5545958458
5545964501
5545970604
5545977013
5545983543
5545989708
5545995506
5546001854
5546007652
5546014427
5546019737
5546025963
5546032982
5546037559
5546044090
5546049888
5546057396
5546064232
5546070579
5546076195
5546082298
5546087730
5546093773
5546101097
5546108116
5546113487
5546120201
5546125206
5546131248
5546139915
5546144432
5546151329
5546158287
5546164573
5546169883
5546176475
5546182701
5546188682
5546195274
5546201927
5546207237
5546213279
5546219444
5546225791
5546232139
5546239036
5546245811
5546252647
5546258628
5546266013
5546272361
5546276328
5546283958
5546289817
5546295860
5546301353
5546309226
5546314963
5546320213
5546326926
5546332908
5546339805
5546346274
5546354575
5546360679
5546365867
5546372764
5546380515
5546387046
5546393027
5546399924
5546406943
5546412375
5546418662
5546424704
5546430381
5546437278
5546443198
5546450095
5546456260
5546462546
5546468222
5546473899
5546480368
5546486838
5546492514
5546498740
5546504294
5546511618
5546516562
5546521994
5546530905
5546536398
5546543112
5546548544
5546554831
5546560690
5546566611
5546573508
5546579306
5546586020
5546590842
5546597128
5546603232
5546609946
5546617087
5546622336
5546629294
5546633810
5546640768
5546646078
5546652548
5546660238
5546666403
5546674154
5546679953
5546686056
5546692465
5546699240
5546704123
5546712057
5546717917
5546723288
5546729452
5546735373
5546742575
5546748800
5546754904
5546760824
5546766439
5546773519
5546778036
5546784811
5546791647
5546795797
5546804098
5546809164
5546815145
5546820638
5546828634
5546834188
5546840048
5546846334
5546853170
5546857626
5546865316
5546874105
5546878805
5546886068
5546892416
5546899984
5546906271
5546915670
5546922384
5546928792
5546935628
5546942525
5546950216
5546955953
5546963705
5546969137
5546975179
5546980672
5546985677
5546990255
5546997762
5547003927
5547009847
5547013753
5547019857
5547026387
5547030599
5547038350
5547043843
5547050374
5547055745
5547062581
5547067281
5547074117
5547080464
5547085713
5547092855
5547097920
5547103047
5547108785
5547115193
5547119588
5547126546
5547133199
5547137593
5547145345
5547150044
5547155232
5547161458
5547168111
5547173360
5547179646
5547186177
5547190999
5547198079
5547203023
5547209431
5547214436
5547221028
5547226582
5547232503
5547237813
5547244099
5547250813
5547255574
5547261494
5547266621
5547273396
5547279133
5547284566
5547289876
5547296406
5547301838
5547308064
5547312764
5547317708
5547325032
5547330464
5547337788
5547343892
5547349690
5547357075
5547362019
5547369282
5547375874
5547381367
5547387532
5547393452
5547398701
5547407734
5547417500
5547424336
5547431599
5547437946
5547444660
5547450947
5547458027
5547465839
5547471882
5547476887
5547482319
5547488239
5547492634
5547499653
5547506062
5547511982
5547516865
5547522297
5547529133
5547533893
5547540363
5547545795
5547550739
5547556965
5547563068
5547569477
5547573810
5547581257
5547586078
5547591816
5547598285
5547603534
5547609455
5547614216
5547620868
5547626178
5547632160
5547638263
5547647174
5547654621
5547661151
5547667255
5547673786
5547680377
5547685565
5547691974
5547696979
5547703021
5547709857
5547716083
5547722858
5547728351
5547734210
5547739337
5547745380
5547751544
5547757892
5547764667
5547770221
5547776202
5547781146
5547787006
5547795245
5547800067
5547808002
5547813495
5547819903
5547826923
5547832660
5547840411
5547845843
5547852008
5547858172
5547864215
5547868182
5547875995
5547882831
5547889911
5547896563
5547902728
5547908709
5547915851
5547922625
5547929095
5547937152
5547945391
5547952105
5547957965
5547967364
5547975299
5547982745
5547989825
5547998614
5548004656
5548010455
5548016986
5548021990
5548027728
5548034075
5548038104
5548045123
5548051348
5548056536
5548062335
5548068072
5548072833
5548078875
5548085040
5548091265
5548096575
5548102129
5548108233
5548112810
5548119097
5548124773
5548131426
5548136675
5548142535
5548149248
5548154497
5548160479
5548166704
5548174334
5548180071
5548186297
5548192095
5548197893
5548203631
5548210650
5548217241
5548223528
5548229204
5548233233
5548240740
5548246843
5548252031
5548258440
5548264543
5548271074
5548275103
5548281572
5548286638
5548294329
5548299700
5548305925
5548313188
5548319475
5548325456
5548332964
5548337847
5548344682
5548351946
5548358293
5548364946
5548370134
5548378557
5548383928
5548390337
5548397050
5548402849
5548409929
5548417314
5548422258
5548429887
5548436296
5548442338
5548449174
5548455278
5548462236
5548469865
5548475358
5548482683
5548488298
5548495073
5548502397
5548510637
5548517411
5548523942
5548530290
5548535112
5548541337
5548548783
5548555131
5548560685
5548566056
5548573075
5548579545
5548587663
5548593827
5548600358
5548606706
5548612626
5548619035
5548626237
5548632829
5548639787
5548644486
5548650590
5548657121
5548663163
5548670365
5548676957
5548684098
5548689408
5548695573
5548703263
5548708512
5548715409
5548722672
5548729447
5548735734
5548744523
5548750748
5548756241
5548764542
5548770463
5548776627
5548783463
5548790299
5548796708
5548801896
5548808426
5548817215
5548822281
5548829178
5548835648
5548841874
5548847428
5548853836
5548860245
5548866226
5548872269
5548878922
5548884232
5548890885
5548897537
5548904618
5548909073
5548918045
5548923599
5548930496
5548936539
5548941910
5548947525
5548955826
5548960281
5548966873
5548974442
5548979813
5548986588
5548989517
5548998672
5549005264
5549011673
5549018875
5549025955
5549032303
5549038650
5549044693
5549053604
5549057693
5549066788
5549073868
5549080765
5549087723
5549094070
5549099685
5549105301
5549112503
5549118301
5549124771
5549130325
5549137649
5549145401
5549150711
5549155654
5549161941
5549166702
5549171829
5549179763
5549184768
5549189895
5549195693
5549201187
5549207595
5549212234
5549218704
5549224380
5549230422
5549237991
5549246291
5549251540
5549257888
5549264358
5549270766
5549276199
5549283340
5549289016
5549294143
5549299331
5549306838
5549312514
5549318740
5549326797
5549333022
5549339614
5549345290
5549351699
5549358779
5549364577
5549372207
5549378554
5549384902
5549392104
5549399001
5549404494
5549410720
5549416335
5549423293
5549428237
5549434645
5549440993
5549446791
5549453688
5549459304
5549465346
5549470778
5549477065
5549484633
5549491286
5549496474
5549504897
5549510878
5549517226
5549523451
5549527724
5549535964
5549541762
5549548720
5549555739
5549563002
5549570021
5549577834
5549585463
5549590773
5549598219
5549604079
5549611891
5549617384
5549626417
5549632460
5549639479
5549643996
5549650831
5549657423
5549663954
5549670180
5549676283
5549681837
5549687819
5549694532
5549699049
5549706862
5549712599
5549718519
5549726210
5549732374
5549739027
5549745253
5549751539
5549756117
5549762770
5549769789
5549776380
5549781690
5549788099
5549793470
5549799879
5549806288
5549810621
5549816847
5549822401
5549828626
5549834669
5549839246
5549847608
5549852186
5549858228
5549864454
5549869703
5549875867
5549882764
5549887830
5549893934
5549899366
5549905653
5549910291
5549916090
5549922498
5549928785
5549934522
5549940626
5549945569
5549951612
5549956678
5549961744
5549968885
5549974927
5549981214
5549985853
5549991773
5549997327
5550002881
5550009168
5550015271
5550021863
5550026197
5550032483
5550036634
5550042859
5550048535
5550055493
5550060437
5550066358
5550072156
5550077649
5550083203
5550088758
5550094129
5550100965
5550106580
5550111646
5550118604
5550125623
5550136853
5550144910
5550153516
5550163953
5550172314
5550181348
5550191357
5550200879
5550210644
5550222058
5550231518
5550238782
5550246716
5550254407
5550264233
5550273327
5550281750
5550291028
5550300183
5550307812
5550315625
5550324719
5550332898
5550341931
5550350537
5550359570
5550368481
5550377819
5550386975
5550395947
5550404980
5550413525
5550422497
5550430431
5550440075
5550451794
5550459606
5550468395
5550476513
5550485607
5550496715
5550503246
5550513317
5550520397
5550532360
5550539501
5550549755
5550557873
5550566784
5550576977
5550584484
5550593944
5550601329
5550610363
5550619152
5550625621
5550637279
5550647228
5550654125
5550662670
5550672069
5550680553
5550689708
5550698131
5550706676
5550716686
5550726146
5550733470
5550740672
5550752818
5550760936
5550769908
5550780406
5550787669
5550797435
5550807567
5550813975
5550825755
5550831981
5550842418
5550849986
5550859446
5550870372
5550879100
5550889476
5550898326
5550910289
5550917552
5550926219
5550935740
5550942332
5550953379
5550963023
5550971018
5550982920
5550991404
5550998057
5551005198
5551012156
5551022044
5551029246
5551035471
5551043711
5551051951
5551060618
5551068369
5551076182
5551085337
5551093272
5551100901
5551109080
5551116465
5551123606
5551132212
5551140818
5551148020
5551154734
5551164438
5551173716
5551181955
5551188547
5551197641
5551204660
5551212717
5551219431
5551229319
5551236277
5551245310
5551251902
5551260752
5551269419
5551277414
5551285105
5551297190
5551306894
5551316721
5551322763
5551334238
5551339975
5551349619
5551356577
5551364999
5551373605
5551381845
5551391305
5551398080
5551408456
5551417367
5551424325
5551433603
5551442575
5551449411
5551455575
5551461313
5551465585
5551470895
5551478158
5551480661
5551487497
5551492502
5551498971
5551504647
5551509164
5551513742
5551518808
5551523690
5551528024
5551535592
5551539743
5551545785
5551551400
5551556710
5551562387
5551567819
5551571969
5551578134
5551583383
5551586984
5551594125
5551600594
5551605355
5551608895
5551614755
5551618722
5551623361
5551626412
5551631051
5551634896
5551642587
5551647347
5551652230
5551656380
5551660165
5551664803
5551669564
5551675545
5551680367
5551684884
5551688668
5551693734
5551697762
5551701607
5551706063
5551713265
5551717110
5551721200
5551725106
5551728341
5551732796
5551736031
5551741219
5551746590
5551753121
5551760506
5551765755
5551774544
5551781929
5551788033
5551792977
5551798409
5551802987
5551807137
5551811348
5551815804
5551820198
5551826546
5551831063
5551835518
5551839608
5551843636
5551848580
5551853646
5551859322
5551863655
5551868111
5551872383
5551877449
5551886666
5551892159
5551897713
5551903450
5551909004
5551913094
5551917671
5551923042
5551927132
5551933968
5551937691
5551943428
5551947945
5551953377
5551958687
5551962471
5551968147
5551973762
5551978523
5551982429
5551987801
5551992317
5551997261
5552002815
5552007637
5552014412
5552019111
5552025276
5552029487
5552034797
5552040962
5552047004
5552052864
5552058845
5552065132
5552069099
5552074531
5552081062
5552085457
5552090828
5552093940
5552099617
5552104560
5552109626
5552114143
5552120185
5552125618
5552129829
5552134224
5552138618
5552145088
5552149971
5552156684
5552161628
5552167488
5552171150
5552177436
5552183174
5552188117
5552192329
5552200263
5552205024
5552211555
5552215278
5552221320
5552225715
5552232124
5552237739
5552243415
5552249336
5552254890
5552260932
5552266669
5552272407
5552277412
5552281867
5552288520
5552292304
5552298347
5552303535
5552309455
5552315253
5552320197
5552325507
5552331489
5552338325
5552345649
5552349372
5552356208
5552360175
5552365485
5552370734
5552377875
5552382880
5552388862
5552394477
5552400519
5552405768
5552412116
5552418280
5552426459
5552432502
5552437995
5552444342
5552450812
5552456000
5552461371
5552466010
5552472113
5552476813
5552482123
5552487677
5552492987
5552499762
5552505438
5552509772
5552514288
5552520880
5552526801
5552532416
5552538336
5552546332
5552551581
5552558051
5552565253
5552571905
5552578192
5552583746
5552588873
5552594427
5552600775
5552607001
5552613226
5552619391
5552623297
5552627630
5552632513
5552637030
5552642279
5552648565
5552651861
5552660589
5552664862
5552669256
5552674261
5552678717
5552683783
5552689581
5552696600
5552703253
5552707830
5552715338
5552720526
5552725470
5552729071
5552736151
5552741583
5552748052
5552753851
5552760259
5552766546
5552770696
5552777532
5552783758
5552789068
5552794805
5552799627
5552804937
5552809942
5552815740
5552821905
5552827154
5552831915
5552837164
5552844549
5552850103
5552856329
5552862127
5552867376
5552873907
5552880254
5552884710
5552890630
5552896795
5552903753
5552909551
5552914068
5552919622
5552926397
5552932134
5552938543
5552943059
5552948430
5552956121
5552960332
5552968084
5552972600
5552978093
5552985601
5552992376
5552997625
5553004216
5553009832
5553015020
5553021184
5553029119
5553037419
5553043645
5553048589
5553052678
5553059087
5553064397
5553070684
5553074956
5553080083
5553087041
5553091008
5553097295
5553102849
5553107854
5553111760
5553118718
5553126408
5553132512
5553140263
5553144292
5553156926
5553162663
5553168645
5553174199
5553181279
5553186711
5553191289
5553199895
5553205327
5553211247
5553215581
5553225224
5553228886
5553236088
5553241093
5553246159
5553251225
5553257756
5553260563
5553271977
5553276310
5553282048
5553286992
5553292180
5553297367
5553303410
5553308903
5553316044
5553324711
5553331486
5553336918
5553341374
5553346623
5553353092
5553357731
5553366093
5553370854
5553378483
5553383122
5553389042
5553395085
5553402043
5553405460
5553413151
5553418339
5553424748
5553431400
5553436222
5553441166
5553447025
5553453251
5553458561
5553467167
5553472904
5553479313
5553485172
5553490482
5553495975
5553502933
5553509159
5553515201
5553520267
5553526066
5553531864
5553536808
5553544071
5553549015
5553553959
5553562076
5553567386
5553573673
5553578251
5553584598
5553590152
5553596439
5553602787
5553609989
5553616336
5553621952
5553627140
5553633121
5553639530
5553644596
5553650333
5553656070
5553663394
5553669803
5553676761
5553681522
5553687503
5553693118
5553698306
5553705386
5553709537
5553716312
5553722720
5553728275
5553734500
5553741214
5553748233
5553755069
5553760013
5553766177
5553772952
5553780215
5553786441
5553792483
5553798099
5553804812
5553810916
5553818790
5553825381
5553830020
5553834598
5553842410
5553848025
5553853213
5553857669
5553865115
5553869754
5553875796
5553880130
5553885196
5553891787
5553896304
5553903018
5553907351
5553915408
5553919558
5553925601
5553931033
5553936587
5553941348
5553948428
5553954226
5553959658
5553964541
5553969607
5553975283
5553980227
5553986453
5553993105
5553997988
5554005373
5554011538
5554017519
5554021914
5554027834
5554034182
5554039004
5554045290
5554052798
5554057314
5554063113
5554069277
5554074953
5554079897
5554086306
5554091555
5554096316
5554103274
5554108156
5554114016
5554120302
5554125735
5554131594
5554137514
5554142946
5554150393
5554155520
5554161318
5554166872
5554173403
5554178591
5554185488
5554191103
5554197817
5554202456
5554207399
5554214663
5554219423
5554226564
5554231630
5554237551
5554243715
5554250795
5554255678
5554261293
5554266847
5554273622
5554279054
5554284914
5554290224
5554296755
5554301454
5554307070
5554314455
5554318971
5554326662
5554333070
5554338503
5554345277
5554353517
5554358034
5554365541
5554373415
5554378419
5554385499
5554390382
5554397645
5554404481
5554409913
5554420411
5554423646
5554431093
5554436464
5554442018
5554446229
5554452333
5554458558
5554465333
5554470826
5554476686
5554482484
5554487733
5554495912
5554503358
5554508363
5554517884
5554522889
5554528504
5554534120
5554539186
5554542176
5554549745
5554554261
5554562196
5554565125
5554572083
5554576173
5554582643
5554586976
5554592774
5554600465
5554604981
5554611085
5554616395
5554620484
5554625001
5554631409
5554637391
5554642884
5554648743
5554653809
5554658997
5554664063
5554667237
5554675294
5554680299
5554686158
5554692933
5554697449
5554702088
5554709229
5554713502
5554721131
5554726136
5554733094
5554738160
5554745240
5554751709
5554757142
5554761902
5554767457
5554773194
5554780091
5554786011
5554790772
5554798951
5554803467
5554810608
5554816223
5554822754
5554828553
5554837464
5554843140
5554850403
5554855530
5554862671
5554866699
5554873108
5554879639
5554885315
5554890503
5554896851
5554903809
5554909302
5554915833
5554922607
5554923950
5554934387
5554940247
5554946716
5554953247
5554960144
5554966675
5554971497
5554977478
5554986145
5554991211
5554998901
5555006286
5555010498
5555017578
5555023315
5555029175
5555034485
5555041626
5555046509
5555052063
5555057922
5555064636
5555069702
5555075439
5555081604
5555087707
5555093261
5555097961
5555102417
5555109497
5555114868
5555120666
5555125976
5555132812
5555137878
5555144042
5555150451
5555154724
5555160644
5555166137
5555171874
5555177856
5555182861
5555190368
5555195068
5555201293
5555207885
5555212280
5555219543
5555223998
5555230834
5555236388
5555243041
5555249328
5555254821
5555259032
5555265563
5555270751
5555277526
5555284423
5555289611
5555295959
5555301879
5555306823
5555313231
5555318603
5555325072
5555332335
5555336181
5555342956
5555347533
5555355224
5555358886
5555366149
5555370482
5555376769
5555381530
5555387816
5555394103
5555400267
5555405700
5555410643
5555417968
5555424071
5555428771
5555433287
5555440550
5555444762
5555452757
5555457945
5555463378
5555470519
5555476805
5555482604
5555488829
5555493895
5555500670
5555505919
5555511778
5555518370
5555525816
5555529478
5555536925
5555542967
5555549315
5555555235
5555561278
5555566832
5555574095
5555581297
5555588011
5555591612
5555599364
5555604979
5555612486
5555619566
5555627196
5555634764
5555642027
5555649717
5555653502
5555660460
5555665831
5555672300
5555677488
5555685179
5555691038
5555697630
5555705320
5555711607
5555717222
5555724485
5555729856
5555735411
5555738584
5555746763
5555751768
5555758177
5555762205
5555768858
5555773130
5555779356
5555783567
5555790891
5555794737
5555800291
5555807615
5555813352
5555821348
5555827573
5555832334
5555838255
5555843565
5555847837
5555855344
5555861082
5555867795
5555873411
5555879209
5555884885
5555890378
5555893247
5555901853
5555906187
5555913022
5555917539
5555925596
5555930234
5555936460
5555942380
5555947995
5555952451
5555958982
5555965879
5555970456
5555976865
5555981809
5555987119
5555992612
5555998166
5556003843
5556010556
5556013791
5556023252
5556028195
5556033811
5556040036
5556044187
5556049008
5556059079
5556065549
5556071652
5556074582
5556082272
5556086850
5556093747
5556099484
5556104550
5556111997
5556117490
5556123166
5556131100
5556136044
5556140683
5556147214
5556152646
5556160275
5556164975
5556174618
5556179074
5556186703
5556194028
5556199765
5556205258
5556215207
5556221493
5556226620
5556234250
5556239377
5556244931
5556252194
5556257931
5556265011
5556272030
5556275692
5556283017
5556288021
5556293942
5556300106
5556306698
5556310055
5556317196
5556321591
5556328671
5556334713
5556340267
5556345639
5556349545
5556355587
5556360409
5556366329
5556370297
5556376766
5556381161
5556387753
5556392880
5556400814
5556406124
5556412045
5556416622
5556421383
5556426815
5556431576
5556436886
5556444881
5556451046
5556457577
5556462398
5556467464
5556473751
5556478695
5556483456
5556492245
5556498409
5556503719
5556507808
5556513851
5556520687
5556526912
5556531612
5556537777
5556544185
5556550228
5556555477
5556561031
5556565487
5556571590
5556576656
5556582576
5556587276
5556596004
5556599117
5556606075
5556610836
5556619930
5556623897
5556634822
5556639766
5556648433
5556653560
5556658931
5556664852
5556670101
5556675655
5556681880
5556687435
5556694026
5556698909
5556705196
5556710262
5556716304
5556720760
5556729671
5556736934
5556742915
5556746272
5556753719
5556758601
5556765132
5556770259
5556775569
5556782527
5556789302
5556794978
5556802547
5556808101
5556813777
5556818843
5556827327
5556831416
5556840815
5556846858
5556852839
5556859370
5556864314
5556866572
5556873225
5556879268
5556886348
5556890376
5556896601
5556900691
5556905696
5556911189
5556916804
5556923030
5556927607
5556931269
5556937190
5556941645
5556947993
5556952571
5556958003
5556963557
5556969843
5556974665
5556979365
5556984736
5556989131
5556993586
5557000178
5557006037
5557010920
5557015742
5557020319
5557025629
5557031062
5557036616
5557043696
5557048701
5557054255
5557059138
5557064326
5557069147
5557074702
5557078608
5557084223
5557091913
5557098200
5557104426
5557110041
5557114863
5557120112
5557124201
5557132258
5557136469
5557143915
5557146845
5557153681
5557157526
5557163996
5557168146
5557173273
5557179377
5557185907
5557190485
5557195124
5557201044
5557205805
5557211603
5557217951
5557222895
5557227167
5557233576
5557237604
5557242609
5557247492
5557254328
5557258722
5557266229
5557270807
5557277704
5557282770
5557288019
5557293512
5557298517
5557303644
5557311334
5557316949
5557322504
5557328241
5557333673
5557338373
5557344171
5557349420
5557357843
5557363580
5557370538
5557377008
5557383478
5557387506
5557394220
5557400506
5557407037
5557413385
5557419000
5557424920
5557430414
5557434808
5557440057
5557442804
5557452142
5557458001
5557463433
5557468866
5557474176
5557478570
5557483270
5557487054
5557493524
5557499871
5557504144
5557508172
5557514276
5557518487
5557524896
5557528802
5557538079
5557542901
5557550042
5557554986
5557558892
5557564813
5557569268
5557574944
5557580926
5557586358
5557591729
5557595818
5557601006
5557606133
5557611749
5557616448
5557620599
5557630181
5557635796
5557640862
5557645318
5557650811
5557656182
5557663506
5557669182
5557676690
5557681878
5557686577
5557691887
5557697075
5557701043
5557707329
5557711419
5557718255
5557723015
5557728203
5557733513
5557739129
5557744378
5557749382
5557754021
5557759697
5557763787
5557770440
5557774895
5557783684
5557789238
5557794731
5557799614
5557806023
5557812859
5557818474
5557823967
5557829827
5557832634
5557839775
5557842583
5557854607
5557861015
5557866387
5557872185
5557877312
5557881889
5557888298
5557893852
5557902947
5557909660
5557915459
5557921806
5557928703
5557933586
5557941338
5557946953
5557954582
5557963005
5557968437
5557973259
5557979301
5557983635
5557988457
5557996696
5558001396
5558007988
5558012199
5558018120
5558022453
5558027885
5558033745
5558040886
5558046501
5558049736
5558056755
5558060844
5558065605
5558071891
5558078239
5558082695
5558087944
5558093315
5558099052
5558103691
5558108818
5558113639
5558121147
5558126762
5558132133
5558138297
5558143302
5558147270
5558155204
5558158988
5558168083
5558173942
5558179008
5558183341
5558190727
5558196037
5558201652
5558207450
5558214957
5558220756
5558226493
5558231620
5558237113
5558241813
5558248710
5558254508
5558260551
5558265189
5558272208
5558276603
5558283256
5558287711
5558293693
5558298453
5558304374
5558311210
5558317557
5558323295
5558328605
5558333365
5558338736
5558344169
5558351310
5558357230
5558365775
5558374076
5558383658
5558386832
5558395194
5558400016
5558408866
5558413504
5558420401
5558425101
5558430167
5558437491
5558442801
5558449027
5558454642
5558463187
5558469229
5558475272
5558480521
5558487540
5558494803
5558500845
5558507132
5558517264
5558526602
5558532523
5558537955
5558544424
5558550284
5558554800
5558562002
5558567557
5558574270
5558580862
5558587027
5558592093
5558597037
5558603506
5558609366
5558616324
5558623037
5558628775
5558633780
5558639456
5558645071
5558650869
5558657400
5558663748
5558668875
5558674795
5558680777
5558686575
5558690969
5558697317
5558703665
5558710073
5558716421
5558722463
5558727529
5558734426
5558738760
5558744253
5558750662
5558754507
5558763174
5558768972
5558773855
5558778799
5558784292
5558789297
5558794790
5558801443
5558808157
5558814687
5558820730
5558826345
5558830556
5558837148
5558841665
5558848684
5558855581
5558860342
5558866811
5558871267
5558877614
5558882558
5558889211
5558894216
5558899953
5558906362
5558912954
5558917287
5558922414
5558928579
5558934743
5558940358
5558947744
5558954335
5558959340
5558964040
5558969045
5558975148
5558981679
5558986196
5558991079
5558998525
5559003713
5559011098
5559017568
5559027272
5559032216
5559038381
5559044728
5559050954
5559055593
5559061391
5559066579
5559072560
5559079701
5559085500
5559091664
5559100026
5559104848
5559110341
5559117482
5559123769
5559129628
5559136647
5559143544
5559148366
5559157460
5559163685
5559170033
5559176259
5559182484
5559190053
5559195180
5559200795
5559206715
5559212513
5559218312
5559224110
5559228688
5559235585
5559240223
5559247120
5559253468
5559259083
5559263905
5559269154
5559275563
5559281117
5559286610
5559291859
5559298268
5559304005
5559309803
5559314381
5559319996
5559326039
5559332264
5559336964
5559344410
5559350025
5559355580
5559360768
5559366200
5559372120
5559378407
5559383106
5559388722
5559393177
5559400135
5559404896
5559410816
5559417225
5559424244
5559429859
5559436878
5559441273
5559447620
5559452808
5559457630
5559464649
5559470325
5559477650
5559483326
5559487903
5559494739
5559500904
5559506763
5559511402
5559519275
5559524402
5559531604
5559535816
5559542225
5559546253
5559551502
5559556629
5559564991
5559571399
5559577076
5559581165
5559587635
5559591724
5559597766
5559603565
5559608875
5559617115
5559620532
5559627796
5559634754
5559641590
5559648975
5559655994
5559661853
5559670093
5559675342
5559684009
5559692981
5559699695
5559704578
5559714893
5559726306
5559737170
5559741260
5559753162
5559760608
5559768176
5559776233
5559785876
5559793933
5559799304
5559808764
5559814258
5559820788
5559826220
5559832812
5559837207
5559844043
5559850512
5559855090
5559859729
5559865405
5559871936
5559875903
5559883166
5559888781
5559895922
5559901049
5559906176
5559911059
5559917163
5559922473
5559929492
5559934252
5559940417
5559946398
5559952502
5559955615
5559963793
5559968859
5559975268
5559979784
5559987170
5559992114
5559998644
5560003161
5560008227
5560015307
5560020251
5560025378
5560032641
5560038134
5560043749
5560049364
5560055590
5560060656
5560065722
5560071825
5560077257
5560084459
5560091112
5560095446
5560099779
5560106493
5560112658
5560116625
5560123156
5560128405
5560135729
5560142138
5560146593
5560153734
5560159044
5560164721
5560171068
5560175402
5560184069
5560190172
5560195970
5560201647
5560207201
5560212023
5560218553
5560224352
5560231188
5560236376
5560243517
5560248949
5560254686
5560260240
5560266405
5560271471
5560277513
5560282274
5560288683
5560293810
5560299059
5560305650
5560309801
5560317003
5560322435
5560331346
5560339586
5560346422
5560351854
5560356431
5560364000
5560369493
5560375535
5560383409
5560391038
5560394090
5560403306
5560407884
5560416002
5560420884
5560428453
5560434861
5560440721
5560445176
5560451768
5560456224
5560460984
5560469773
5560477342
5560482286
5560492295
5560496995
5560502610
5560508958
5560514451
5560519151
5560525315
5560532823
5560539048
5560543931
5560549058
5560555833
5560560960
5560566514
5560571519
5560579209
5560584641
5560589890
5560595017
5560600999
5560608384
5560613694
5560619859
5560627610
5560632615
5560639756
5560646836
5560652878
5560658677
5560664719
5560669968
5560676987
5560682419
5560688218
5560694321
5560700181
5560705246
5560710801
5560715745
5560723557
5560728501
5560734055
5560738877
5560746445
5560752243
5560756882
5560762192
5560769394
5560775254
5560781052
5560787644
5560792710
5560797898
5560803513
5560813339
5560818711
5560828537
5560836228
5560844406
5560849777
5560855148
5560861130
5560866257
5560871323
5560879746
5560885239
5560890976
5560896530
5560902206
5560907211
5560913010
5560917526
5560927658
5560933700
5560939011
5560942123
5560950119
5560955429
5560962448
5560970077
5560977402
5560983810
5560990219
5560997116
5561003158
5561006393
5561013839
5561019333
5561029770
5561032943
5561041183
5561047592
5561052780
5561056991
5561062301
5561068344
5561074142
5561078781
5561086288
5561091415
5561096542
5561102645
5561108566
5561113510
5561119308
5561126144
5561132491
5561136947
5561142257
5561149520
5561153426
5561161300
5561165511
5561172897
5561178268
5561183395
5561189071
5561196334
5561200790
5561209762
5561217391
5561223495
5561229354
5561234542
5561240523
5561246261
5561250777
5561257125
5561263534
5561270614
5561277572
5561282271
5561289046
5561292342
5561298873
5561304061
5561311080
5561316390
5561321700
5561327376
5561332625
5561340194
5561346602
5561352767
5561357894
5561362960
5561371016
5561377242
5561383040
5561385909
5561394026
5561401229
5561407027
5561412337
5561419966
5561423445
5561431075
5561436202
5561441695
5561446272
5561453841
5561458357
5561464705
5561469100
5561475569
5561481123
5561486372
5561491499
5561496993
5561503279
5561509016
5561515059
5561519820
5561526778
5561532393
5561536665
5561543074
5561547713
5561552534
5561561995
5561569868
5561575606
5561581648
5561589155
5561595320
5561601545
5561606917
5561614912
5561621382
5561628096
5561634199
5561641951
5561647505
5561652510
5561655561
5561663923
5561669905
5561675886
5561681074
5561686689
5561693281
5561699201
5561703596
5561711042
5561717573
5561723554
5561728193
5561734236
5561738630
5561744856
5561750105
5561756635
5561762190
5561767255
5561773176
5561779524
5561784650
5561790449
5561796186
5561801313
5561809614
5561815412
5561821149
5561824262
5561831647
5561837141
5561843610
5561848737
5561856855
5561864057
5561870099
5561875532
5561881147
5561885480
5561889997
5561896406
5561903486
5561908185
5561914838
5561920942
5561926130
5561931195
5561937238
5561942609
5561947858
5561956891
5561961286
5561966901
5561972455
5561978559
5561983747
5561989362
5561993939
5562001386
5562007489
5562012921
5562017499
5562023725
5562030133
5562033978
5562040570
5562047284
5562052411
5562060773
5562066266
5562072369
5562077374
5562083966
5562088849
5562097211
5562101727
5562109113
5562113690
5562120587
5562125409
5562130231
5562136212
5562141400
5562149274
5562154095
5562159222
5562168378
5562174725
5562180218
5562186017
5562193646
5562201886
5562206280
5562214032
5562218670
5562224713
5562229962
5562237896
5562242962
5562249371
5562256573
5562260968
5562267498
5562273175
5562278729
5562284893
