5336936593
5336941842
5336947152
5336953195
5336958566
5336965341
5336970407
5336976449
5336982003
5336987191
5336993600
5336998727
5337005685
5337010446
5337018075
5337024301
5337031686
5337038888
5337046273
5337053109
5337058785
5337066537
5337074654
5337081368
5337088448
5337095956
5337103951
5337110726
5337119759
5337126717
5337133919
5337141183
5337149117
5337157418
5337166756
5337172921
5337180184
5337187691
5337196969
5337203316
5337214058
5337224984
5337232552
5337240670
5337250191
5337255806
5337264717
5337274849
5337283516
5337290230
5337299568
5337306465
5337314034
5337321846
5337328194
5337335640
5337341438
5337348824
5337353401
5337360909
5337369820
5337376778
5337383003
5337390999
5337398201
5337403999
5337411446
5337418587
5337424263
5337433967
5337440132
5337448555
5337454597
5337462410
5337471504
5337482002
5337490486
5337495674
5337504097
5337512336
5337521309
5337527900
5337538093
5337547981
5337557075
5337569282
5337577339
5337587837
5337599983
5337611762
5337623847
5337633918
5337647346
5337658332
5337667426
5337677802
5337687019
5337698493
5337708320
5337719916
5337732734
5337744819
5337754951
5337765388
5337775702
5337787116
5337797309
5337807746
5337818488
5337826300
5337836127
5337842414
5337852912
5337861212
5337869391
5337877692
5337887396
5337895453
5337904730
5337912604
5337920416
5337928778
5337938178
5337947394
5337957221
5337966315
5337973090
5337984015
5337990363
5338001776
5338009772
5338024908
5338033942
5338043219
5338052435
5338061835
5338070746
5338079474
5338090765
5338099249
5338107184
5338115118
5338125677
5338133429
5338142706
5338149298
5338158758
5338168096
5338177618
5338186041
5338194647
5338202459
5338210821
5338258794
5338270513
5338279974
5338287359
5338296392
5338304082
5338312322
5338320196
5338329656
5338338506
5338347600
5338356573
5338364995
5338372625
5338381170
5338390203
5338399297
5338408086
5338417058
5338425603
5338435125
5338449102
5338457585
5338466863
5338476140
5338484624
5338493108
5338501287
5338509526
5338516973
5338526372
5338534856
5338543157
5338551762
5338560063
5338567632
5338576421
5338584172
5338593144
5338601079
5338612004
5338621831
5338631840
5338642522
5338653996
5338666203
5338677861
5338689030
5338699772
5338711125
5338722538
5338733403
5338743840
5338755558
5338766667
5338776799
5338787052
5338798588
5338807926
5338818974
5338830448
5338840824
5338852299
5338862797
5338874760
5338888065
5338897587
5338910038
5338924259
5338933292
5338946293
5338957645
5338966373
5338978031
5338989139
5339000492
5339007938
5339021732
5339030826
5339042545
5339051700
5339066165
5339075565
5339082950
5339097171
5339108768
5339119510
5339130924
5339142398
5339151614
5339163516
5339173038
5339184940
5339196231
5339204654
5339219058
5339228763
5339240359
5339249759
5339259280
5339270877
5339283267
5339294131
5339301761
5339309695
5339317813
5339323550
5339330874
5339338992
5339348269
5339354617
5339362796
5339370242
5339376956
5339383731
5339390933
5339400027
5339407961
5339413333
5339422610
5339429141
5339436099
5339444338
5339451174
5339458865
5339466982
5339473574
5339480959
5339487734
5339495241
5339503176
5339511416
5339517275
5339523928
5339530947
5339539309
5339545473
5339554995
5339562441
5339570009
5339575625
5339583254
5339590944
5339600649
5339607912
5339615297
5339622622
5339629335
5339635744
5339644167
5339650637
5339658632
5339666628
5339673159
5339680605
5339689455
5339699220
5339707704
5339715151
5339721864
5339729677
5339736696
5339744081
5339752748
5339760683
5339767885
5339774538
5339782167
5339789430
5339797792
5339804933
5339812807
5339820802
5339828065
5339836061
5339842531
5339851198
5339860475
5339868776
5339877199
5339884889
5339893556
5339901613
5339909425
5339915345
5339923890
5339933534
5339940797
5339950074
5339957582
5339967225
5339974244
5339982179
5339990052
5339996034
5340006104
5340012879
5340021974
5340028687
5340036866
5340044801
5340051087
5340059815
5340068726
5340075806
5340085145
5340092530
5340099427
5340108460
5340114930
5340122315
5340127198
5340133973
5340139588
5340144715
5340151429
5340158326
5340164673
5340170594
5340173523
5340182923
5340188233
5340193421
5340199524
5340204590
5340211609
5340216736
5340225281
5340230286
5340235596
5340241028
5340248169
5340253968
5340259644
5340266236
5340274781
5340280396
5340291321
5340299622
5340307068
5340315308
5340323486
5340328919
5340334473
5340343262
5340348816
5340353455
5340361328
5340365601
5340372742
5340379822
5340385925
5340391540
5340396423
5340401306
5340407959
5340412781
5340421387
5340426636
5340432434
5340437622
5340442138
5340448608
5340453613
5340460571
5340467163
5340472473
5340476562
5340482910
5340488830
5340495544
5340501342
5340507019
5340512573
5340517456
5340523010
5340530639
5340536743
5340541626
5340547790
5340553100
5340557495
5340565185
5340569885
5340576293
5340582031
5340588684
5340594482
5340598815
5340606201
5340611144
5340618041
5340623535
5340629272
5340635497
5340641479
5340647582
5340654174
5340661681
5340667297
5340672668
5340678344
5340684753
5340688903
5340695800
5340701110
5340707030
5340712646
5340718688
5340723937
5340728332
5340735168
5340741515
5340747863
5340752807
5340757873
5340763305
5340769469
5340777587
5340784301
5340791991
5340796691
5340803466
5340810607
5340817015
5340823424
5340831054
5340837889
5340845275
5340850157
5340856993
5340861876
5340868529
5340873839
5340880065
5340886107
5340892027
5340897582
5340904051
5340909422
5340915465
5340920470
5340926512
5340933348
5340939818
5340944457
5340951720
5340957396
5340964171
5340968871
5340975645
5340981016
5340987364
5340993346
5341000548
5341005980
5341011473
5341018126
5341024657
5341029844
5341036619
5341041197
5341049254
5341055235
5341060728
5341065977
5341072874
5341079161
5341084288
5341091063
5341097105
5341104368
5341109556
5341114683
5341120298
5341126646
5341133970
5341138182
5341145506
5341150022
5341156309
5341162107
5341168150
5341175230
5341181700
5341187132
5341193418
5341199644
5341206053
5341210508
5341216978
5341221189
5341228025
5341234312
5341239561
5341245847
5341251402
5341257871
5341264463
5341269590
5341276426
5341281797
5341287717
5341292051
5341299924
5341305356
5341310789
5341317869
5341322690
5341329587
5341336362
5341342283
5341352842
5341357663
5341365293
5341370664
5341377134
5341383542
5341389524
5341396360
5341400876
5341408078
5341412656
5341419248
5341424558
5341429929
5341436154
5341442624
5341447568
5341453733
5341459104
5341465390
5341470578
5341476865
5341482846
5341489255
5341495908
5341500913
5341506223
5341512448
5341517819
5341523007
5341529904
5341535397
5341541501
5341546506
5341552731
5341559018
5341565488
5341571408
5341576962
5341582638
5341589169
5341594845
5341601193
5341606442
5341614804
5341621945
5341627438
5341634030
5341639828
5341645077
5341651547
5341658200
5341663144
5341669003
5341675534
5341681027
5341687375
5341693722
5341701046
5341708004
5341713986
5341720211
5341725643
5341731930
5341735836
5341742184
5341749630
5341754452
5341761288
5341767269
5341773373
5341779232
5341784115
5341792111
5341796993
5341803829
5341809139
5341815060
5341821224
5341826962
5341833798
5341838558
5341844906
5341850582
5341856442
5341861813
5341869686
5341877926
5341885799
5341892208
5341896908
5341903561
5341909786
5341916317
5341923885
5341932430
5341938412
5341944698
5341949032
5341955868
5341962948
5341968502
5341973934
5341980953
5341986629
5341991634
5341997738
5342004207
5342010250
5342016292
5342022152
5342027889
5342033504
5342040157
5342045772
5342051876
5342057186
5342063106
5342068477
5342074581
5342081539
5342087154
5342093685
5342098262
5342104427
5342111446
5342117366
5342122981
5342129634
5342134822
5342140132
5342146968
5342151607
5342158626
5342164363
5342170528
5342175899
5342182368
5342190059
5342194575
5342201167
5342207149
5342212337
5342219111
5342223872
5342230830
5342235408
5342243037
5342248652
5342253901
5342259578
5342266047
5342272944
5342277095
5342284663
5342290217
5342295161
5342301570
5342306514
5342313166
5342319392
5342325801
5342330806
5342337153
5342341609
5342347956
5342353694
5342359675
5342366938
5342371516
5342378169
5342383113
5342389033
5342396723
5342401118
5342407649
5342412592
5342421565
5342427058
5342434809
5342439692
5342449641
5342457026
5342462885
5342470454
5342476374
5342483332
5342488703
5342494868
5342500727
5342506098
5342511713
5342517512
5342523066
5342529535
5342536188
5342541132
5342547663
5342552363
5342559076
5342564448
5342571100
5342579462
5342585749
5342590998
5342595514
5342603449
5342609247
5342614496
5342621576
5342626459
5342633112
5342638422
5342645075
5342651239
5342656854
5342662470
5342667780
5342673944
5342679682
5342685419
5342691950
5342698236
5342703851
5342710565
5342715509
5342721918
5342728876
5342734430
5342740533
5342746576
5342752374
5342757745
5342763727
5342769342
5342775812
5342781061
5342787225
5342792474
5342799310
5342804132
5342810724
5342815668
5342821283
5342827814
5342833612
5342839715
5342847406
5342855340
5342862603
5342867791
5342873895
5342878961
5342886712
5342891961
5342898980
5342904351
5342909600
5342916925
5342922357
5342928033
5342935968
5342941705
5342947442
5342953546
5342958612
5342965142
5342971795
5342979730
5342986443
5342992608
5342999566
5343005425
5343012566
5343019952
5343028863
5343035394
5343042657
5343048577
5343055108
5343060052
5343066216
5343071099
5343077325
5343083855
5343090264
5343095818
5343102349
5343107659
5343114800
5343119439
5343124627
5343131280
5343136590
5343143120
5343148308
5343154595
5343162224
5343167717
5343173394
5343179802
5343185051
5343190667
5343197197
5343202019
5343208855
5343214775
5343220940
5343225945
5343232476
5343237969
5343244622
5343250359
5343256829
5343263542
5343269585
5343275444
5343280144
5343287956
5343293022
5343299065
5343304436
5343310661
5343316765
5343321037
5343328606
5343335075
5343340324
5343346977
5343351860
5343357048
5343363945
5343370415
5343377006
5343382500
5343389458
5343394890
5343400139
5343406792
5343411308
5343417839
5343424919
5343430717
5343435905
5343440910
5343447319
5343453422
5343458000
5343464714
5343470695
5343476494
5343482109
5343489250
5343493400
5343500297
5343508415
5343512809
5343520256
5343526359
5343531730
5343537529
5343545280
5343555473
5343560905
5343566764
5343574088
5343581474
5343587272
5343593864
5343599174
5343605583
5343612174
5343616569
5343622855
5343629325
5343634879
5343641288
5343646842
5343652335
5343658927
5343664664
5343670829
5343676261
5343682914
5343689933
5343694388
5343701163
5343706962
5343713676
5343718802
5343724051
5343730460
5343737113
5343742667
5343749198
5343753714
5343761039
5343766532
5343772086
5343777579
5343783377
5343790458
5343795707
5343802176
5343806754
5343813346
5343820060
5343825370
5343832267
5343837271
5343843741
5343850089
5343855399
5343860953
5343868704
5343874686
5343879874
5343885672
5343892081
5343899771
5343904715
5343913748
5343917960
5343924796
5343929861
5343935294
5343941702
5343946585
5343954398
5343958609
5343964835
5343971304
5343976187
5343981375
5343988455
5343995718
5344002127
5344007193
5344013113
5344019766
5344024771
5344031607
5344037771
5344042166
5344049429
5344054190
5344060782
5344067251
5344073721
5344080069
5344084890
5344093924
5344100149
5344106008
5344112600
5344118765
5344126516
5344131704
5344138784
5344145376
5344150991
5344156301
5344162283
5344168691
5344174551
5344180410
5344185781
5344192129
5344197805
5344204031
5344209585
5344215688
5344220937
5344226797
5344232229
5344238454
5344244558
5344249868
5344256460
5344263357
5344267812
5344275136
5344280324
5344287466
5344292348
5344298879
5344305044
5344309865
5344317678
5344322927
5344329152
5344335622
5344341604
5344346242
5344354116
5344358449
5344364858
5344371022
5344376516
5344382558
5344389699
5344394704
5344401174
5344406606
5344412892
5344417714
5344424123
5344429616
5344436147
5344443044
5344449025
5344454274
5344459584
5344466298
5344470937
5344478078
5344484609
5344491200
5344496083
5344502309
5344507680
5344513783
5344520741
5344528004
5344533925
5344538197
5344544789
5344551198
5344557851
5344563100
5344570363
5344576344
5344582326
5344588124
5344593373
5344599782
5344606618
5344613881
5344619252
5344625050
5344630787
5344636647
5344641774
5344649464
5344655385
5344662404
5344671437
5344678273
5344685292
5344691029
5344698353
5344704335
5344708607
5344715870
5344720204
5344728627
5344734974
5344742848
5344747914
5344755970
5344761891
5344768543
5344773976
5344780079
5344784229
5344790333
5344796925
5344802723
5344809803
5344815357
5344820667
5344825245
5344831471
5344837513
5344843616
5344848255
5344853931
5344858509
5344864063
5344870472
5344875049
5344882557
5344887623
5344892444
5344897999
5344904163
5344909107
5344915272
5344920826
5344926868
5344931568
5344937671
5344943226
5344949451
5344954456
5344961292
5344967823
5344973804
5344982654
5344988880
5344993396
5345001148
5345009388
5345013294
5345018299
5345025806
5345030628
5345036487
5345041370
5345048389
5345055896
5345060535
5345066394
5345071399
5345077014
5345082568
5345086780
5345093799
5345099780
5345104602
5345110095
5345114917
5345120471
5345125537
5345133105
5345139148
5345143848
5345149646
5345154346
5345160083
5345165515
5345171619
5345178210
5345185474
5345192554
5345199267
5345204272
5345213611
5345218982
5345230151
5345236621
5345241809
5345247424
5345252978
5345258960
5345265612
5345271960
5345277697
5345283435
5345288379
5345293139
5345299731
5345304675
5345310473
5345315356
5345321398
5345325549
5345332019
5345337023
5345344531
5345350207
5345354907
5345363024
5345368395
5345374438
5345380724
5345386340
5345390978
5345397326
5345401965
5345406786
5345411669
5345421435
5345426562
5345431994
5345439074
5345443896
5345450671
5345456042
5345462756
5345467882
5345475207
5345479174
5345484972
5345491381
5345497423
5345503405
5345508715
5345514757
5345521349
5345526598
5345531542
5345538622
5345544542
5345550036
5345555590
5345562304
5345567064
5345573778
5345580370
5345584948
5345589830
5345595690
5345601122
5345605211
5345611437
5345617418
5345623094
5345629015
5345634691
5345640550
5345645861
5345651964
5345656603
5345662523
5345667223
5345672045
5345678148
5345682909
5345689501
5345694444
5345701952
5345707079
5345711839
5345719713
5345727708
5345734300
5345740221
5345747484
5345753587
5345759386
5345766160
5345772386
5345781785
5345787340
5345792528
5345799058
5345805833
5345810167
5345817125
5345823533
5345829271
5345834947
5345840135
5345845201
5345850389
5345857225
5345862230
5345867723
5345873826
5345879380
5345884874
5345892015
5345896714
5345901902
5345909227
5345915208
5345921861
5345927842
5345933091
5345938462
5345944383
5345949082
5345954087
5345960984
5345965501
5345971848
5345976609
5345982530
5345987412
5345992295
5345998032
5346004929
5346011277
5346016099
5346022569
5346026841
5346033372
5346040147
5346047349
5346053208
5346058152
5346064439
5346071213
5346075425
5346081467
5346087815
5346092209
5346098496
5346103379
5346110825
5346115769
5346120896
5346127060
5346132370
5346137742
5346145127
5346151413
5346155991
5346161545
5346168686
5346172654
5346178635
5346184250
5346188462
5346194565
5346198838
5346205429
5346212326
5346218308
5346224839
5346229416
5346236191
5346242417
5346246689
5346253403
5346261521
5346270188
5346277939
5346284958
5346290878
5346300766
5346310104
5346317123
5346322128
5346326767
5346333847
5346338669
5346345261
5346350388
5346355209
5346360580
5346366440
5346370224
5346377609
5346383163
5346388962
5346393967
5346398422
5346403488
5346408981
5346415634
5346421860
5346426986
5346433029
5346437851
5346443588
5346449142
5346457809
5346463119
5346468490
5346474777
5346481552
5346486923
5346491500
5346496749
5346503463
5346509811
5346514877
5346519943
5346526290
5346531478
5346537155
5346542282
5346548202
5346553451
5346558639
5346564071
5346568832
5346575790
5346580856
5346588302
5346592513
5346599166
5346604415
5346609054
5346613876
5346619796
5346624435
5346632613
5346638168
5346642562
5346649398
5346654525
5346660567
5346667159
5346672957
5346678390
5346683517
5346687911
5346694320
5346699874
5346704696
5346710921
5346717635
5346721602
5346727523
5346733504
5346737716
5346744429
5346748885
5346754012
5346761153
5346766951
5346772567
5346779525
5346785872
5346791793
5346801741
5346809798
5346819503
5346827620
5346835127
5346842452
5346849410
5346855208
5346861067
5346867964
5346873030
5346878096
5346884749
5346889754
5346895552
5346899764
5346905806
5346912215
5346916914
5346923323
5346930037
5346935469
5346941084
5346947127
5346952498
5346958052
5346963911
5346970625
5346976179
5346981795
5346988569
5346994002
5346998823
5347004744
5347009260
5347015608
5347022932
5347030073
5347036055
5347043135
5347048384
5347054976
5347062666
5347068342
5347074385
5347079817
5347085798
5347091291
5347097456
5347105024
5347111860
5347116804
5347122480
5347129011
5347134382
5347138532
5347145857
5347151228
5347157820
5347164228
5347170210
5347176069
5347182050
5347187177
5347193281
5347200056
5347205793
5347211530
5347216108
5347224043
5347229047
5347234541
5347241376
5347246076
5347252790
5347257856
5347263837
5347269453
5347275495
5347281904
5347287397
5347293867
5347299177
5347306196
5347311445
5347318891
5347324445
5347331342
5347337262
5347342817
5347349958
5347356000
5347361493
5347368940
5347376996
5347384504
5347391278
5347399030
5347404401
5347411054
5347416547
5347423566
5347428754
5347436627
5347442060
5347447614
5347453412
5347461713
5347467023
5347473493
5347480267
5347484540
5347491315
5347496991
5347503339
5347510419
5347514569
5347521405
5347528485
5347533917
5347540448
5347545697
5347552472
5347558942
5347564923
5347569073
5347576703
5347582623
5347588116
5347594342
5347601422
5347606915
5347613080
5347618451
5347624920
5347631329
5347639142
5347645001
5347650555
5347657208
5347662457
5347668682
5347675579
5347680279
5347687359
5347693829
5347700238
5347706402
5347710491
5347717877
5347725140
5347730877
5347736737
5347743389
5347748577
5347755535
5347762371
5347769451
5347775189
5347781780
5347786968
5347792889
5347799114
5347806072
5347811504
5347818462
5347825848
5347830730
5347836773
5347842998
5347849102
5347854839
5347861309
5347867412
5347873089
5347878765
5347885784
5347891582
5347901165
5347909710
5347916607
5347921673
5347928875
5347934978
5347941814
5347947185
5347951336
5347958843
5347965129
5347970989
5347975383
5347981487
5347987896
5347993816
5347999065
5348005413
5348011394
5348016216
5348022502
5348029582
5348034038
5348040691
5348047466
5348053020
5348059123
5348066142
5348071819
5348078105
5348084087
5348090434
5348096111
5348102092
5348108684
5348114970
5348121013
5348126628
5348132854
5348137065
5348143474
5348150615
5348157085
5348161601
5348167216
5348173259
5348180522
5348185710
5348191875
5348196025
5348202250
5348207988
5348214030
5348219096
5348225749
5348231242
5348236918
5348243022
5348247966
5348254252
5348259318
5348265788
5348271403
5348276347
5348281596
5348287577
5348291850
5348298625
5348304301
5348309611
5348316447
5348321391
5348327128
5348332804
5348338542
5348343485
5348349772
5348354228
5348359477
5348365092
5348371684
5348377726
5348384501
5348389689
5348399210
5348410319
5348419596
5348425211
5348432047
5348438822
5348445170
5348451212
5348457499
5348464579
5348469950
5348476847
5348482401
5348488566
5348494730
5348500467
5348506205
5348512980
5348518412
5348524820
5348530130
5348536661
5348542826
5348547464
5348553751
5348559366
5348565592
5348571451
5348577555
5348584574
5348589334
5348596109
5348603250
5348608438
5348614176
5348620340
5348626505
5348631998
5348639688
5348646402
5348653482
5348658243
5348664957
5348670816
5348677164
5348683511
5348689249
5348694742
5348701700
5348707010
5348717081
5348722269
5348728799
5348735147
5348740579
5348747049
5348751749
5348757852
5348763772
5348769266
5348774942
5348782083
5348787820
5348794107
5348799295
5348804300
5348810953
5348817300
5348822427
5348829202
5348835672
5348840432
5348846719
5348851785
5348858316
5348865274
5348870828
5348876016
5348881570
5348888284
5348894021
5348899636
5348905618
5348911477
5348917886
5348923135
5348930032
5348936746
5348942056
5348948892
5348954690
5348962380
5348968484
5348975442
5348982949
5348988747
5348994241
5349001321
5349008218
5349016396
5349020852
5349028176
5349034035
5349039590
5349046365
5349052590
5349057778
5349063882
5349069924
5349074380
5349082680
5349087807
5349094460
5349099221
5349106118
5349112343
5349118569
5349122841
5349129250
5349136391
5349142617
5349148171
5349154702
5349160439
5349167336
5349172219
5349177712
5349183998
5349191445
5349195717
5349202492
5349206642
5349215065
5349219582
5349226296
5349233620
5349238930
5349245217
5349252113
5349258156
5349263893
5349269264
5349276344
5349282997
5349289101
5349295937
5349300636
5349307838
5349313271
5349319862
5349328407
5349336830
5349346718
5349354408
5349365272
5349375282
5349386574
5349398781
5349406349
5349421425
5349431007
5349440651
5349448524
5349457435
5349467201
5349475929
5349483375
5349491676
5349498024
5349503273
5349509376
5349515052
5349521705
5349528236
5349534278
5349539039
5349545631
5349550575
5349557960
5349563941
5349570777
5349577308
5349583961
5349589637
5349597633
5349605201
5349610511
5349617896
5349623817
5349631080
5349635291
5349642493
5349647742
5349654090
5349660071
5349665992
5349672706
5349677588
5349684241
5349689429
5349696082
5349702064
5349707007
5349712500
5349718787
5349724158
5349730628
5349736121
5349742041
5349747840
5349753394
5349759375
5349765235
5349771094
5349776709
5349782691
5349788977
5349795020
5349800025
5349805274
5349810645
5349816138
5349822547
5349832984
5349838660
5349842505
5349849524
5349856238
5349862280
5349869910
5349874182
5349880774
5349887549
5349893103
5349900427
5349907019
5349911536
5349917212
5349923132
5349928198
5349935705
5349939429
5349946631
5349952124
5349957800
5349964697
5349971594
5349977514
5349982641
5349989172
5349995703
5350001440
5350008093
5350013647
5350020178
5350027380
5350032385
5350038183
5350043310
5350050756
5350057714
5350064611
5350069433
5350076025
5350084631
5350089758
5350098120
5350105322
5350113317
5350119970
5350125952
5350133337
5350137731
5350143835
5350149633
5350156164
5350161169
5350167577
5350173803
5350181371
5350186865
5350192052
5350198217
5350202673
5350210729
5350216283
5350224462
5350230688
5350236669
5350243810
5350251867
5350256505
5350263524
5350271947
5350278661
5350285375
5350292821
5350297887
5350304967
5350310216
5350317785
5350323766
5350333776
5350341222
5350345494
5350357640
5350363256
5350369847
5350374852
5350381139
5350388585
5350393468
5350399571
5350404271
5350410497
5350416844
5350422582
5350430150
5350435826
5350440221
5350446141
5350451451
5350457921
5350464208
5350469945
5350475377
5350480992
5350486729
5350491246
5350497594
5350503514
5350509251
5350514867
5350520604
5350526402
5350532078
5350538792
5350544163
5350551427
5350555699
5350561070
5350567723
5350572728
5350581334
5350588353
5350594151
5350600743
5350610508
5350617344
5350623082
5350630711
5350636387
5350642613
5350646763
5350652867
5350659947
5350665379
5350671299
5350675267
5350681553
5350686802
5350692539
5350698582
5350705052
5350710667
5350717198
5350723911
5350729099
5350735325
5350741551
5350746128
5350751927
5350757664
5350763645
5350768772
5350775303
5350781590
5350786839
5350792454
5350798618
5350806126
5350812412
5350817722
5350824131
5350828464
5350834873
5350841343
5350848301
5350852695
5350859226
5350864292
5350870212
5350877231
5350881931
5350888706
5350893223
5350899204
5350905002
5350910312
5350915622
5350923252
5350927219
5350933567
5350938694
5350943637
5350950473
5350955967
5350962131
5350967563
5350973056
5350978977
5350985080
5350990695
5350996189
5351002353
5351008518
5351013950
5351018527
5351024143
5351030246
5351035800
5351040134
5351047580
5351052768
5351058017
5351065646
5351070529
5351080417
5351087497
5351093906
5351100192
5351105563
5351113925
5351119540
5351125827
5351131381
5351138095
5351143466
5351148471
5351155856
5351160922
5351167514
5351173312
5351179233
5351184848
5351192538
5351199008
5351204318
5351210238
5351216891
5351220614
5351227633
5351232699
5351238864
5351244418
5351250094
5351255832
5351260714
5351267428
5351273532
5351278720
5351285433
5351289950
5351295504
5351300753
5351307162
5351311373
5351318881
5351324069
5351330172
5351335299
5351341586
5351346713
5351352389
5351358859
5351365817
5351369479
5351375765
5351381564
5351387362
5351394198
5351398837
5351405001
5351409579
5351415194
5351421542
5351429049
5351435213
5351440829
5351446322
5351451144
5351456637
5351462069
5351468477
5351473604
5351480074
5351484163
5351490389
5351496676
5351501558
5351507723
5351513949
5351521090
5351526400
5351533785
5351540071
5351545259
5351551973
5351559175
5351566805
5351573397
5351580049
5351586214
5351593111
5351601778
5351608064
5351613130
5351618379
5351625337
5351631380
5351638277
5351643465
5351649446
5351655794
5351660616
5351667024
5351672762
5351678743
5351684114
5351689546
5351695222
5351701204
5351706575
5351712678
5351719270
5351724641
5351730501
5351734529
5351740633
5351747590
5351753450
5351758394
5351763826
5351770051
5351774751
5351781221
5351786897
5351792817
5351799775
5351804353
5351810396
5351816255
5351824128
5351832978
5351837373
5351844514
5351848787
5351855439
5351861787
5351866975
5351873567
5351879121
5351885835
5351891023
5351897553
5351902375
5351908296
5351913728
5351920930
5351925813
5351931611
5351936372
5351942841
5351948701
5351952485
5351960114
5351965119
5351970551
5351975556
5351981721
5351987763
5351991853
5352000336
5352006928
5352011994
5352018403
5352025361
5352030915
5352037629
5352042695
5352048981
5352053986
5352060029
5352065461
5352071992
5352079133
5352087189
5352096772
5352102753
5352110383
5352115815
5352123261
5352129120
5352135956
5352140595
5352147126
5352152680
5352158661
5352163666
5352168915
5352175385
5352180634
5352187226
5352191681
5352197724
5352203217
5352210053
5352215119
5352220001
5352226410
5352231232
5352237641
5352243256
5352249664
5352254791
5352260223
5352266327
5352271820
5352278839
5352283539
5352290741
5352295135
5352301544
5352306305
5352312408
5352318695
5352324554
5352329498
5352337067
5352343475
5352350311
5352356048
5352361297
5352366669
5352372223
5352378387
5352384491
5352391266
5352396942
5352402435
5352408111
5352414886
5352420318
5352426849
5352430267
5352436798
5352441253
5352447174
5352453949
5352458648
5352464630
5352470611
5352475250
5352481170
5352486968
5352492401
5352499542
5352504608
5352510833
5352516387
5352521942
5352528350
5352533355
5352539153
5352544036
5352550506
5352556243
5352560882
5352566741
5352573760
5352579314
5352585479
5352591827
5352598602
5352605437
5352611297
5352617950
5352623992
5352629973
5352637237
5352642303
5352649688
5352656646
5352662139
5352666839
5352673491
5352678740
5352685515
5352689666
5352695769
5352700286
5352708892
5352714385
5352720305
5352725310
5352731902
5352737578
5352743132
5352748564
5352753020
5352759917
5352764922
5352770964
5352775420
5352781401
5352787688
5352794402
5352799224
5352805022
5352810759
5352815459
5352822173
5352827727
5352833769
5352839507
5352844145
5352850737
5352856535
5352861723
5352866423
5352873320
5352878752
5352884673
5352889494
5352895598
5352901274
5352905241
5352912627
5352918974
5352925322
5352929655
5352937773
5352944243
5352948332
5352956145
5352962614
5352967375
5352972563
5352978361
5352983122
5352989226
5352994597
5353001005
5353007170
5353012236
5353018278
5353023283
5353029325
5353034880
5353041532
5353047331
5353052702
5353056669
5353062345
5353068083
5353074491
5353081144
5353084989
5353091154
5353096525
5353102812
5353107633
5353114958
5353121549
5353128690
5353134550
5353139494
5353146757
5353151334
5353159757
5353167814
5353173490
5353179777
5353184293
5353189848
5353196317
5353202482
5353207304
5353213346
5353218107
5353224393
5353230009
5353236051
5353241361
5353247220
5353254117
5353259061
5353264799
5353269254
5353275724
5353281583
5353285917
5353293119
5353298978
5353304044
5353308988
5353315397
5353320157
5353325895
5353333219
5353337186
5353343412
5353349576
5353355008
5353360135
5353366483
5353373502
5353379056
5353384976
5353390775
5353396329
5353401395
5353407804
5353413358
5353419156
5353423734
5353430142
5353436002
5353441922
5353447720
5353454129
5353458218
5353465054
5353469815
5353475613
5353480435
5353487454
5353493314
5353498624
5353504544
5353508877
5353514737
5353520230
5353525784
5353533536
5353537747
5353544522
5353549405
5353555203
5353561368
5353567349
5353573697
5353580044
5353585721
5353590786
5353595364
5353602139
5353607998
5353612210
5353620877
5353625515
5353633267
5353638150
5353645169
5353650235
5353658902
5353665249
5353670559
5353677883
5353682827
5353689541
5353694485
5353704006
5353709561
5353715359
5353720669
5353726711
5353732876
5353738979
5353745754
5353749905
5353756130
5353760769
5353766811
5353771999
5353779446
5353784573
5353788967
5353796596
5353801662
5353807583
5353813686
5353819240
5353825405
5353830593
5353835903
5353842922
5353848476
5353854152
5353860378
5353866298
5353871914
5353878628
5353883999
5353889919
5353895290
5353900722
5353906765
5353912685
5353918239
5353923366
5353929653
5353933498
5353939968
5353944301
5353951503
5353956386
5353962429
5353967311
5353974819
5353980861
5353985012
5353991420
5353999050
5354005458
5354012416
5354016750
5354023647
5354029811
5354035854
5354041713
5354046718
5354053066
5354057948
5354063380
5354069606
5354074855
5354081752
5354086085
5354092555
5354099391
5354105739
5354111476
5354116176
5354121486
5354128322
5354134059
5354139857
5354147243
5354152858
5354157863
5354166896
5354171107
5354179591
5354186305
5354191798
5354197291
5354204799
5354212001
5354219142
5354226832
5354231776
5354237574
5354241847
5354247828
5354254115
5354258937
5354264918
5354270472
5354275721
5354282130
5354287379
5354291407
5354298121
5354302271
5354309290
5354315089
5354320521
5354327357
5354332911
5354338465
5354344996
5354349574
5354355616
5354360926
5354365199
5354371851
5354378687
5354384974
5354390223
5354396082
5354401942
5354408045
5354415064
5354420008
5354424952
5354432276
5354437220
5354442103
5354447535
5354454004
5354459376
5354465967
5354472132
5354477808
5354483179
5354487513
5354492640
5354498560
5354503870
5354512842
5354519007
5354526514
5354532434
5354538111
5354543299
5354549402
5354555384
5354560450
5354564905
5354571985
5354577295
5354582056
5354587244
5354593347
5354599390
5354604883
5354609949
5354616052
5354620508
5354626306
5354632959
5354639185
5354644922
5354651086
5354656213
5354661462
5354666711
5354672144
5354678308
5354683801
5354689477
5354697534
5354703821
5354710596
5354718835
5354724878
5354732080
5354738672
5354742700
5354750024
5354757898
5354763757
5354768640
5354773950
5354780237
5354785425
5354791345
5354797326
5354802453
5354810083
5354814843
5354820825
5354826257
5354831079
5354837182
5354842065
5354848168
5354854028
5354860803
5354868371
5354873681
5354879540
5354885522
5354893701
5354900537
5354906030
5354912255
5354918481
5354924951
5354929589
5354935449
5354942712
5354948510
5354953576
5354960473
5354967065
5354973107
5354978051
5354983666
5354990014
5354996972
5355002465
5355008630
5355014733
5355020531
5355027062
5355030541
5355037743
5355044518
5355050500
5355055565
5355060753
5355066002
5355071618
5355078209
5355083764
5355089623
5355095482
5355101281
5355105797
5355112023
5355118798
5355123680
5355130394
5355136620
5355141747
5355148766
5355154625
5355160729
5355165978
5355172203
5355177757
5355182579
5355190697
5355197655
5355206993
5355212670
5355221031
5355230492
5355238976
5355244835
5355251488
5355258629
5355264305
5355270470
5355275536
5355281517
5355289268
5355294395
5355299889
5355305565
5355312218
5355318443
5355323387
5355328941
5355335289
5355340233
5355346092
5355352928
5355358909
5355365013
5355369529
5355374595
5355380211
5355385948
5355391258
5355397483
5355403038
5355408043
5355414390
5355420372
5355425804
5355432640
5355437095
5355443870
5355447959
5355454490
5355459861
5355464866
5355470481
5355476341
5355482627
5355487754
5355493919
5355500633
5355506858
5355514488
5355520957
5355526145
5355532005
5355538413
5355544456
5355550925
5355555930
5355562217
5355568504
5355573264
5355579246
5355583640
5355589805
5355596152
5355601890
5355608298
5355612754
5355618491
5355624656
5355631858
5355637046
5355643638
5355649436
5355654868
5355658896
5355666709
5355671836
5355678733
5355682883
5355690024
5355697593
5355703452
5355709555
5355716086
5355722007
5355729514
5355737509
5355744406
5355750144
5355756491
5355763449
5355769614
5355774680
5355780905
5355786215
5355791464
5355798056
5355803855
5355809409
5355815207
5355819785
5355826865
5355830588
5355838339
5355844260
5355849387
5355855063
5355861227
5355866660
5355872763
5355876669
5355884238
5355890036
5355895407
5355901877
5355908285
5355913351
5355921042
5355927939
5355932455
5355939352
5355944906
5355950949
5355956259
5355961813
5355968710
5355974447
5355979391
5355985128
5355991354
5355997519
5356003866
5356009726
5356014242
5356020529
5356026205
5356031820
5356037374
5356042501
5356049154
5356054830
5356060263
5356066061
5356072775
5356077108
5356083090
5356089742
5356095358
5356100485
5356105306
5356113119
5356118795
5356125143
5356130697
5356136800
5356142294
5356147787
5356155172
5356160238
5356165365
5356170858
5356176961
5356181417
5356191488
5356197713
5356204427
5356211141
5356217123
5356224019
5356229757
5356237447
5356243551
5356250692
5356254903
5356261861
5356266134
5356272298
5356278096
5356284017
5356290670
5356296651
5356302022
5356307149
5356313070
5356319539
5356324727
5356330770
5356335103
5356342000
5356348470
5356355367
5356361592
5356367635
5356373555
5356379598
5356384297
5356390767
5356397359
5356401875
5356408223
5356413045
5356420003
5356426228
5356433064
5356438619
5356445149
5356450459
5356455037
5356460286
5356467488
5356471394
5356474995
5356479878
5356483784
5356487691
5356493123
5356498128
5356502522
5356506795
5356511006
5356515156
5356519673
5356525044
5356528645
5356532612
5356537007
5356541157
5356545186
5356551167
5356555623
5356559956
5356563557
5356569050
5356574849
5356579487
5356586262
5356590413
5356595845
5356600483
5356605732
5356610432
5356614643
5356619587
5356624592
5356628559
5356633808
5356638630
5356644429
5356649678
5356658711
5356662312
5356668843
5356674336
5356682759
5356688374
5356694416
5356699238
5356704670
5356710957
5356715778
5356719624
5356724812
5356729267
5356735004
5356740315
5356745136
5356749531
5356753986
5356758137
5356762775
5356768574
5356772419
5356777790
5356783344
5356787189
5356791279
5356798054
5356802570
5356807270
5356812336
5356817158
5356821125
5356827473
5356831562
5356836628
5356841083
5356846393
5356851459
5356855060
5356860798
5356864643
5356869709
5356874530
5356879963
5356884540
5356889545
5356894428
5356898456
5356904438
5356909320
5356914264
5356918293
5356923175
5356927387
5356932575
5356937152
5356944477
5356949298
5356954730
5356959308
5356964191
5356969867
5356975116
5356980976
5356987567
5356991657
5356996478
5357002338
5357006671
5357011737
5357017963
5357025226
5357029681
5357034992
5357041400
5357046527
5357051349
5357057086
5357062885
5357069354
5357074176
5357080524
5357084186
5357090228
5357096088
5357105060
5357111590
5357117999
5357124652
5357129962
5357135150
5357141498
5357147967
5357154620
5357160541
5357166461
5357171283
5357177752
5357182086
5357187884
5357195269
5357200702
5357204669
5357209613
5357215777
5357220660
5357226763
5357231768
5357239886
5357245257
5357249407
5357255084
5357260760
5357266375
5357271929
5357277361
5357284503
5357290118
5357295001
5357300738
5357307330
5357312762
5357317217
5357323687
5357329546
5357337603
5357346880
5357352801
5357355791
5357363665
5357368853
5357374590
5357381121
5357387224
5357393023
5357398638
5357403338
5357408831
5357414934
5357420428
5357425616
5357431658
5357437884
5357443255
5357447710
5357453325
5357457842
5357465166
5357471331
5357477556
5357482622
5357490068
5357494280
5357500628
5357506365
5357514116
5357520952
5357527483
5357534014
5357540056
5357545732
5357552080
5357557390
5357563860
5357569902
5357577226
5357581560
5357587847
5357594316
5357600664
5357605547
5357612810
5357619585
5357623308
5357630022
5357636491
5357641496
5357648332
5357653215
5357659319
5357667131
5357672075
5357678972
5357684343
5357690141
5357697649
5357703569
5357710771
5357716752
5357723588
5357730546
5357739824
5357747453
5357752336
5357758989
5357764299
5357770707
5357776262
5357780290
5357786760
5357790910
5357796952
5357802262
5357807267
5357813005
5357818498
5357824601
5357829728
5357833818
5357839860
5357844255
5357852494
5357859757
5357865861
5357870805
5357876359
5357881608
5357887467
5357891923
5357899552
5357904984
5357911820
5357916337
5357922929
5357929337
5357934831
5357939225
5357945817
5357950639
5357957597
5357964005
5357969071
5357975114
5357980729
5357985367
5357990861
5357998917
5358005692
5358010270
5358015702
5358022721
5358027665
5358034195
5358040360
5358047623
5358053483
5358059220
5358065140
5358070572
5358076737
5358081559
5358087052
5358094437
5358101029
5358107743
5358114151
5358119034
5358125931
5358131546
5358136063
5358143631
5358148270
5358154679
5358160294
5358167008
5358171646
5358176773
5358183548
5358191605
5358197525
5358202408
5358208145
5358215286
5358221451
5358227005
5358232376
5358239578
5358246964
5358252762
5358257767
5358263870
5358270523
5358277054
5358282425
5358289017
5358296646
5358305557
5358310318
5358317093
5358324356
5358330887
5358336441
5358343765
5358349869
5358358291
5358363052
5358369644
5358376053
5358381668
5358386367
5358392288
5358399002
5358404983
5358410659
5358416275
5358420852
5358426406
5358432510
5358438369
5358444961
5358450942
5358455459
5358461013
5358467178
5358473098
5358478042
5358485488
5358491775
5358497695
5358502456
5358507827
5358514053
5358519790
5358524429
5358530410
5358537734
5358543411
5358549331
5358554824
5358559707
5358565566
5358571731
5358578567
5358587783
5358593703
5358598586
5358605361
5358609756
5358615371
5358621718
5358628005
5358633681
5358639663
5358645278
5358651076
5358657302
5358662856
5358668898
5358676040
5358682082
5358687880
5358693373
5358699538
5358706679
5358711196
5358717665
5358723952
5358729994
5358736647
5358740920
5358747634
5358754653
5358759230
5358765822
5358773024
5358780043
5358789870
5358795302
5358802077
5358807753
5358813796
5358820326
5358826979
5358832167
5358839674
5358844801
5358851881
5358857619
5358863905
5358867201
5358876112
5358885695
5358891127
5358897597
5358903822
5358913954
5358921644
5358930311
5358939955
5358949965
5358959059
5358969130
5358979017
5358986219
5358991713
5359006727
5359015089
5359021131
5359032179
5359041151
5359048841
5359057875
5359063734
5359072401
5359079237
5359085096
5359094190
5359103162
5359108839
5359118787
5359125074
5359132581
5359139539
5359147901
5359152662
5359159742
5359169019
5359178052
5359186597
5359194044
5359199964
5359207044
5359214185
5359220960
5359227247
5359240613
5359248426
5359255872
5359262647
5359270643
5359275586
5359284986
5359292859
5359298902
5359310254
5359315259
5359326673
5359331128
5359339002
5359350904
5359355786
5359364514
5359372815
5359379285
5359387891
5359395154
5359403943
5359410596
5359419873
5359424512
5359436475
5359443066
5359448987
5359460034
5359467725
5359475049
5359481274
5359487927
5359494885
5359503308
5359511120
5359518078
5359527051
5359531445
5359542187
5359546216
5359554760
5359562573
5359569348
5359577282
5359583874
5359594860
5359599438
5359609875
5359616833
5359623181
5359630627
5359636059
5359645275
5359652416
5359657238
5359669445
5359679150
5359688671
5359696484
5359701733
5359709484
5359717236
5359721691
5359730419
5359743053
5359749889
5359758617
5359766430
5359773022
5359780407
5359787670
5359796703
5359804027
5359811046
5359819164
5359834850
5359838695
5359851940
5359859325
5359867016
5359876598
5359884899
5359892589
5359901500
5359915844
5359923656
5359929332
5359936107
5359942272
5359951915
5359958995
5359964610
5359973155
5359980968
5359985484
5359995311
5360002208
5360009593
5360016246
5360021861
5360031810
5360038463
5360045299
5360051097
5360056712
5360062205
5360067699
5360073619
5360081309
5360086131
5360094981
5360100352
5360109691
5360116588
5360122203
5360127086
5360131480
5360140513
5360145457
5360151561
5360155650
5360162181
5360167308
5360173472
5360178416
5360184703
5360192759
5360197947
5360206004
5360210276
5360214732
5360221385
5360226329
5360232676
5360238780
5360243113
5360250193
5360254466
5360260264
5360267405
5360274363
5360283152
5360288889
5360295908
5360302256
5360306284
5360312876
5360317454
5360322154
5360329234
5360335032
5360341624
5360345835
5360352793
5360357798
5360364207
5360369578
5360376658
5360381785
5360389170
5360394419
5360399973
5360405466
5360410898
5360416636
5360423838
5360430002
5360435984
5360441538
5360447519
5360450632
5360458017
5360463816
5360469614
5360474985
5360482187
5360487131
5360493784
5360498301
5360504953
5360512888
5360517771
5360526438
5360531931
5360540109
5360546213
5360553232
5360559030
5360563913
5360571848
5360576486
5360582407
5360587961
5360593027
5360598703
5360603830
5360608591
5360614267
5360620981
5360628732
5360634897
5360641550
5360648691
5360655160
5360661569
5360667123
5360672067
5360676889
5360681711
5360686044
5360691110
5360696298
5360701242
5360707712
5360712289
5360716623
5360721017
5360726083
5360731210
5360735971
5360741952
5360747262
5360752389
5360757150
5360762582
5360767892
5360772775
5360776376
5360781686
5360786996
5360790475
5360797738
5360802011
5360808725
5360812509
5360817880
5360824655
5360830148
5360834176
5360840219
5360844613
5360851144
5360855416
5360860848
5360867257
5360873483
5360877694
5360883798
5360889352
5360894784
5360900582
5360905831
5360913277
5360917367
5360923592
5360929391
5360934090
5360939339
5360944649
5360950997
5360958260
5360963753
5360969063
5360974801
5360979806
5360985299
5360990304
5360995125
5361003365
5361010201
5361014840
5361020760
5361027230
5361032479
5361039071
5361044320
5361050362
5361057747
5361062874
5361068428
5361075020
5361083077
5361088509
5361093270
5361099861
5361107064
5361112313
5361118172
5361124275
5361128792
5361133431
5361138741
5361146797
5361152352
5361157295
5361162972
5361168099
5361173958
5361178536
5361183052
5361189644
5361195259
5361200264
5361204292
5361210518
5361214668
5361221687
5361226692
5361232246
5361236763
5361243416
5361248115
5361253670
5361260139
5361265572
5361269905
5361275276
5361281196
5361286384
5361290901
5361297005
5361302925
5361307930
5361312691
5361318855
5361325630
5361331062
5361336311
5361341255
5361347786
5361352363
5361356941
5361364326
5361371528
5361377205
5361381660
5361386177
5361393135
5361398201
5361404609
5361409309
5361417305
5361424324
5361428779
5361433784
5361440254
5361445869
5361451667
5361457221
5361464546
5361469612
5361477119
5361485481
5361490913
5361493842
5361502204
5361507453
5361513740
5361519843
5361526008
5361530463
5361536079
5361540351
5361547370
5361551826
5361558601
5361566230
5361572394
5361578010
5361583503
5361590278
5361594428
5361599921
5361607062
5361612006
5361619636
5361624030
5361631232
5361636542
5361642768
5361648017
5361655524
5361661567
5361667731
5361674567
5361680426
5361685248
5361690863
5361697333
5361703620
5361708075
5361713568
5361718756
5361724066
5361728827
5361736151
5361740119
5361746283
5361753302
5361759711
5361765204
5361770941
5361779059
5361786505
5361794013
5361803961
5361811469
5361820502
5361827948
5361838995
5361848456
5361857245
5361869330
5361875738
5361882269
5361890021
5361896612
5361904913
5361911993
5361919073
5361929266
5361935370
5361943548
5361952093
5361960211
5361966314
5361974981
5361983038
5361990728
5361998480
5362008490
5362016119
5362023016
5362033575
5362040350
5362049688
5362057256
5362066351
5362073614
5362081976
5362091802
5362099615
5362106695
5362113714
5362122869
5362131536
5362137395
5362147588
5362155279
5362163274
5362172246
5362179998
5362187017
5362194768
5362201787
5362211553
5362218694
5362225591
5362232854
5362241948
5362250798
5362258794
5362267827
5362276677
5362285710
5362301580
5362315557
5362330266
5362344914
5362358647
5362373418
5362388432
5362401128
5362414067
5362430180
5362445256
5362459111
5362471257
5362479619
5362487675
5362496586
5362508732
5362520451
5362532780
5362545842
5362558354
5362569828
5362580082
5362588505
5362596196
5362606266
5362614384
5362622746
5362630680
5362639897
5362648197
5362656132
5362666081
5362674748
5362682926
5362690739
5362700077
5362710270
5362716923
5362722294
5362732120
5362741764
5362747929
5362757816
5362765690
5362772465
5362780216
5362789738
5362796573
5362804325
5362812931
5362819339
5362831363
5362839115
5362847049
5362854435
5362861393
5362868778
5362875614
5362883548
5362892459
5362899478
5362907047
5362915103
5362922183
5362929874
5362937015
5362946475
5362954532
5362962650
5362970889
5362978580
5362990299
5362995914
5363006778
5363014407
5363021671
5363030643
5363037540
5363046268
5363053470
5363061343
5363070254
5363077823
5363084720
5363092715
5363102481
5363109378
5363117618
5363124209
5363134707
5363141665
5363148928
5363157901
5363163394
5363173709
5363181460
5363190615
5363199343
5363204776
5363216189
5363222598
5363231265
5363239932
5363247256
5363256228
5363261416
5363270815
5363277895
5363287600
5363293154
5363302065
5363308230
5363316042
5363324160
5363333071
5363340090
5363348147
5363357790
5363362734
5363369570
5363375490
5363380373
5363385317
5363390078
5363395998
5363400759
5363405703
5363411623
5363415651
5363421206
5363424990
5363431093
5363436342
5363440676
5363444948
5363450136
5363453798
5363459780
5363464113
5363469789
5363475039
5363479189
5363482912
5363488344
5363492311
5363497377
5363501589
5363508242
5363512087
5363517702
5363521913
5363527590
5363532717
5363537782
5363542970
5363548952
5363554567
5363559999
5363563539
5363569032
5363575258
5363580080
5363585878
5363591615
5363598268
5363602663
5363606752
5363612856
5363618593
5363624025
5363629701
5363636171
5363642030
5363647157
5363651186
5363657228
5363662599
5363667848
5363672731
5363679933
5363685609
5363691163
5363696962
5363701906
5363707094
5363711915
5363717103
5363724550
5363729799
5363736268
5363743959
5363750306
5363754213
5363761171
5363767762
5363775270
5363781251
5363787171
5363792115
5363797242
5363803041
5363808045
5363812379
5363818727
5363824281
5363828553
5363832765
5363838563
5363843690
5363848512
5363853944
5363859010
5363864320
5363868714
5363872804
5363878419
5363882386
5363887025
5363892091
5363898316
5363904298
5363910035
5363916688
5363921754
5363926392
5363931763
5363937196
5363943543
5363948853
5363954468
5363960450
5363965638
5363970276
5363976075
5363982178
5363988038
5363994752
5364001832
5364006775
5364012513
5364018494
5364023804
5364028504
5364034424
5364040039
5364045716
5364050843
5364056824
5364061219
5364066224
5364071595
5364077454
5364083557
5364088379
5364094422
5364099060
5364105652
5364111206
5364117127
5364121521
5364127869
5364133423
5364140137
5364142945
5364152893
5364157898
5364162781
5364167603
5364175598
5364181213
5364187927
5364193054
5364199219
5364204102
5364210205
5364216370
5364221802
5364229492
5364234802
5364240051
5364245483
5364251282
5364257568
5364262756
5364267334
5364273865
5364279541
5364285705
5364291137
5364297485
5364302612
5364309387
5364313843
5364322632
5364327758
5364337829
5364343689
5364348693
5364356384
5364363098
5364370971
5364379028
5364384582
5364389465
5364395263
5364400146
5364405883
5364410949
5364414550
5364422302
5364426208
5364432434
5364439575
5364444641
5364450805
5364455505
5364460449
5364468017
5364474242
5364477966
5364484435
5364488952
5364496520
5364501098
5364506530
5364511657
5364519225
5364524474
5364529784
5364535949
5364542174
5364547729
5364553405
5364558959
5364564269
5364569396
5364576659
5364581359
5364588012
5364593627
5364599486
5364606994
5364611998
5364619140
5364624389
5364630370
5364637084
5364643187
5364648314
5364654357
5364661071
5364667723
5364673705
5364679686
5364685485
5364691344
5364696776
5364702086
5364709716
5364715209
5364721739
5364728758
5364734252
5364738768
5364747191
5364751647
5364759337
5364764586
5364773375
5364778014
5364785094
5364792357
5364798277
5364803099
5364808104
5364815672
5364821654
5364827391
5364831480
5364839537
5364845030
5364851012
5364854185
5364862364
5364869261
5364874388
5364881712
5364886351
5364896055
5364901365
5364910399
5364914793
5364925413
5364932554
5364939085
5364948179
5364958006
5364965940
5364974546
5364985777
5364995115
5365001280
5365012998
5365018125
5365031248
5365038755
5365046263
5365054929
5365063230
5365071226
5365079832
5365085752
5365090757
5365098447
5365103208
5365111265
5365116697
5365122434
5365128049
5365135007
5365142820
5365150876
5365159543
5365164609
5365171567
5365177122
5365182554
5365189451
5365195005
5365199827
5365206113
5365212766
5365219541
5365225156
5365231199
5365236692
5365243222
5365247922
5365255307
5365262204
5365268064
5365273069
5365277829
5365285520
5365290097
5365297422
5365301938
5365309262
5365314633
5365320554
5365326047
5365333127
5365339963
5365346616
5365350644
5365359799
5365364987
5365372678
5365377133
5365383298
5365388425
5365393918
5365400082
5365404355
5365411130
5365416501
5365421872
5365428647
5365434262
5365439999
5365445920
5365452267
5365458920
5365463925
5365474789
5365481198
5365486447
5365492001
5365497494
5365503659
5365511105
5365515927
5365522274
5365528134
5365533871
5365537167
5365544674
5365549496
5365556942
5365564328
5365569516
5365576351
5365580807
5365587338
5365591244
5365598873
5365602780
5365612545
5365618710
5365624569
5365631100
5365636654
5365643856
5365651547
5365656735
5365665646
5365671322
5365680782
5365685482
5365691769
5365700802
5365708004
5365715206
5365721859
5365726131
5365731441
5365737240
5365742000
5365748836
5365751827
5365758358
5365764461
5365768917
5365773250
5365779598
5365784176
5365788814
5365795650
5365801082
5365806209
5365811702
5365818416
5365822506
5365828365
5365832454
5365837398
5365843074
5365851497
5365856319
5365863704
5365869808
5365874263
5365880367
5365884700
5365891902
5365896236
5365904232
5365909175
5365917171
5365922298
5365926998
5365931941
5365938350
5365946224
5365952815
5365958736
5365967708
5365972286
5365978145
5365982478
5365987910
5365993282
5365998653
5366005061
5366010738
5366016475
5366020747
5366029170
5366034175
5366041865
5366047969
5366052608
5366057979
5366063838
5366068049
5366072627
5366079524
5366085933
5366091060
5366097529
5366100886
5366107173
5366111018
5366117305
5366121516
5366126948
5366132747
5366138118
5366142695
5366148188
5366154658
5366159419
5366165034
5366170039
5366173945
5366181208
5366187739
5366192927
5366195674
5366204524
5366208735
5366214594
5366221369
5366228999
5366237788
5366245905
5366252558
5366260798
5366269465
5366277399
5366284296
5366292414
5366297663
5366305354
5366310236
5366318598
5366321162
5366328364
5366333979
5366339899
5366345209
5366349604
5366354853
5366361750
5366367121
5366374445
5366379633
5366386408
5366391474
5366395990
5366401484
5366408625
5366413141
5366418085
5366437250
5366446222
5366450861
5366455744
5366462458
5366468195
5366474909
5366481012
5366484186
5366490717
5366495722
5366500910
5366510980
5366515802
5366520990
5366527582
5366533930
5366538751
5366545526
5366550470
5366556329
5366561639
5366567438
5366574091
5366579462
5366584222
5366590143
5366595270
5366604669
5366615228
5366621515
5366628656
5366636224
5366642145
5366647516
5366654657
5366659418
5366667047
5366671319
5366676813
5366681024
5366687616
5366693048
5366698785
5366707513
5366713983
5366718744
5366723199
5366729608
5366734246
5366743280
5366747735
5366754205
5366760858
5366766046
5366772699
5366778741
5366784844
5366789544
5366795953
5366799920
5366805535
5366810357
5366816461
5366821710
5366827752
5366834039
5366839837
5366846917
5366854852
5366859246
5366866692
5366873162
5366880425
5366885979
5366891045
5366898125
5366903008
5366907708
5366912469
5366917168
5366922417
5366927972
5366934441
5366940728
5366945672
5366951165
5366956963
5366962945
5366967522
5366972649
5366978142
5366986687
5366993340
5366999505
5367005791
5367010308
5367016594
5367022210
5367027459
5367034356
5367038323
5367046685
5367050957
5367057549
5367062920
5367069390
5367074700
5367081047
5367086418
5367091728
5367096611
5367103020
5367108025
5367112236
5367118157
5367126579
5367133049
5367138176
5367142998
5367150871
5367155815
5367160515
5367167595
5367172112
5367180290
5367184380
5367189751
5367197014
5367202385
5367206230
5367212517
5367218315
5367223686
5367228813
5367236015
5367240593
5367245842
5367253715
5367258598
5367263908
5367270195
5367276359
5367281120
5367289604
5367293815
5367299492
5367304680
5367311149
5367316765
5367322563
5367325920
5367333305
5367338188
5367344474
5367350639
5367356742
5367362175
5367368522
5367375175
5367380851
5367385978
5367391471
5367398368
5367403129
5367408744
5367414604
5367418632
5367424857
5367432243
5367438773
5367445243
5367452201
5367461173
5367467521
5367475456
5367483939
5367489982
5367492850
5367500114
5367506400
5367511832
5367516593
5367524039
5367527824
5367534110
5367538810
5367544120
5367550529
5367556083
5367560477
5367567374
5367572867
5367579886
5367585685
5367592093
5367598502
5367604300
5367609733
5367614798
5367622611
5367627982
5367634330
5367640128
5367645987
5367652030
5367657035
5367663993
5367669791
5367675162
5367681571
5367686942
5367691275
5367696463
5367702994
5367708426
5367714530
5367720633
5367727469
5367733756
5367737479
5367744620
5367748892
5367755789
5367761221
5367768485
5367773978
5367778433
5367784293
5367789786
5367793265
5367801382
5367806204
5367810599
5367818411
5367823904
5367830313
5367836355
5367842398
5367846121
5367852957
5367858816
5367864493
5367869742
5367874991
5367882010
5367888479
5367893362
5367899160
5367904226
5367910025
5367915640
5367921133
5367925894
5367932974
5367937857
5367942801
5367949942
5367954397
5367963064
5367967764
5367973135
5367979971
5367986379
5367991201
5367997061
5368003347
5368010488
5368015920
5368021780
5368026785
5368033621
5368038137
5368043386
5368052480
5368060171
5368068777
5368075674
5368083181
5368088552
5368095510
5368104421
5368111318
5368121511
5368126760
5368134267
5368139333
5368145742
5368152761
5368157033
5368164785
5368169301
5368177053
5368181753
5368188100
5368192495
5368198476
5368204824
5368210195
5368215322
5368221486
5368227224
5368232778
5368238698
5368244435
5368247182
5368255483
5368262258
5368267385
5368274221
5368281118
5368286855
5368291005
5368296742
5368303151
5368308522
5368314198
5368322804
5368329152
5368334889
5368339589
5368345509
5368350697
5368357777
5368361440
5368369130
5368375539
5368381093
5368386159
5368391652
5368397145
5368402882
5368408314
5368417836
5368422719
5368428639
5368434682
5368440236
5368444752
5368450551
5368455189
5368462514
5368468983
5368475514
5368479970
5368486439
5368491383
5368498158
5368503834
5368507924
5368515248
5368521840
5368526234
5368531361
5368538502
5368543385
5368549916
5368553639
5368560841
5368566578
5368571827
5368577565
