5115553859
5115561122
5115569545
5115578273
5115585353
5115594447
5115600856
5115610072
5115614833
5115625331
5115633754
5115639552
5115646510
5115654750
5115662135
5115668056
5115677577
5115684108
5115692103
5115699855
5115706752
5115713771
5115719813
5115729152
5115737758
5115743556
5115752711
5115758571
5115767787
5115775538
5115784327
5115790980
5115798060
5115804713
5115811854
5115819728
5115826503
5115835047
5115841517
5115848780
5115857447
5115863429
5115872035
5115881312
5115889308
5115895045
5115902796
5115910975
5115918238
5115923853
5115929835
5115939539
5115943812
5115954371
5115962183
5115967677
5115975550
5115981531
5115991480
5115997828
5116006800
5116015894
5116023646
5116031092
5116039271
5116047877
5116055506
5116063440
5116070276
5116077601
5116083948
5116092249
5116100367
5116107386
5116114161
5116121607
5116127954
5116135096
5116141931
5116149195
5116156397
5116164148
5116169641
5116178613
5116184290
5116193140
5116197290
5116207666
5116215784
5116223535
5116229700
5116237451
5116243921
5116249841
5116258691
5116266870
5116273889
5116281457
5116289148
5116296228
5116301904
5116311487
5116320398
5116327478
5116333764
5116340600
5116347253
5116354577
5116361169
5116368860
5116376123
5116382165
5116390771
5116398767
5116406030
5116414331
5116422937
5116430505
5116437219
5116445947
5116451989
5116459802
5116467187
5116477563
5116485131
5116492272
5116500085
5116506127
5116514428
5116522851
5116531152
5116537865
5116547326
5116552270
5116562829
5116567406
5116578271
5116584740
5116592919
5116602563
5116609276
5116618127
5116624779
5116632592
5116640099
5116648949
5116656884
5116664452
5116671105
5116678673
5116687401
5116695824
5116703942
5116713524
5116721093
5116728844
5116736534
5116743553
5116751427
5116759972
5116767784
5116776390
5116784447
5116790856
5116799095
5116806969
5116813805
5116825584
5116830833
5116840965
5116848839
5116857994
5116866112
5116871971
5116880272
5116890160
5116898338
5116906151
5116915428
5116921898
5116931297
5116940574
5116949119
5116956566
5116965965
5116974266
5116981346
5116985862
5116995933
5117005943
5117015464
5117023033
5117027854
5117037803
5117044700
5117052696
5117060935
5117068931
5117077354
5117085472
5117092918
5117099510
5117108238
5117115318
5117124534
5117132468
5117139793
5117146934
5117155173
5117162742
5117168784
5117177268
5117186240
5117195090
5117201987
5117210654
5117218467
5117228049
5117236228
5117245749
5117250632
5117264121
5117272361
5117278647
5117287497
5117295554
5117303611
5117311423
5117320700
5117327475
5117335654
5117342429
5117352133
5117360007
5117368857
5117374106
5117383750
5117391379
5117399191
5117407187
5117414877
5117421896
5117432333
5117440695
5117448813
5117455954
5117461935
5117470053
5117474142
5117484885
5117490805
5117497641
5117504416
5117511801
5117518088
5117526449
5117536337
5117541830
5117550863
5117558554
5117566366
5117571249
5117580648
5117589621
5117597860
5117606649
5117613485
5117622946
5117629537
5117638449
5117644674
5117654928
5117662435
5117671408
5117677755
5117684774
5117692770
5117699911
5117709005
5117715170
5117723531
5117730550
5117737753
5117745321
5117752462
5117759298
5117769674
5117776388
5117783163
5117789388
5117795370
5117804037
5117811544
5117819600
5117826436
5117834432
5117841390
5117848531
5117857076
5117863912
5117872945
5117880574
5117887838
5117897176
5117903218
5117911763
5117916585
5117926412
5117934774
5117943379
5117951558
5117959676
5117966939
5117975423
5117980977
5117989888
5117996663
5118004048
5118011006
5118020100
5118027303
5118034749
5118039388
5118048116
5118053731
5118061055
5118068989
5118074727
5118082783
5118090718
5118098530
5118106709
5118113301
5118121296
5118128560
5118137654
5118143086
5118150349
5118155476
5118162678
5118167866
5118175496
5118181355
5118188435
5118194538
5118200337
5118206623
5118210957
5118217182
5118223347
5118229206
5118234577
5118240986
5118246235
5118253254
5118259480
5118263996
5118273213
5118280842
5118286396
5118291706
5118297932
5118304401
5118309712
5118318867
5118324665
5118334248
5118341694
5118349079
5118356281
5118360737
5118366901
5118371479
5118377399
5118383747
5118388996
5118395466
5118401996
5118407184
5118411640
5118418354
5118421772
5118428913
5118435627
5118440998
5118447529
5118451984
5118457660
5118463398
5118469928
5118476093
5118482624
5118487751
5118493000
5118498310
5118504657
5118510761
5118515705
5118521747
5118526691
5118532245
5118538227
5118543659
5118550006
5118554523
5118562152
5118567035
5118572772
5118578693
5118584125
5118590839
5118600360
5118606281
5118612323
5118617816
5118623065
5118628925
5118634662
5118639850
5118645404
5118651752
5118656879
5118661578
5118666034
5118672626
5118679523
5118684711
5118690570
5118695025
5118701922
5118707110
5118713519
5118718768
5118724444
5118729815
5118735003
5118741290
5118745868
5118752643
5118757159
5118763446
5118770587
5118776507
5118782367
5118787127
5118792620
5118797686
5118803912
5118810321
5118819659
5118825152
5118832843
5118837603
5118846881
5118854937
5118860980
5118866900
5118873309
5118879107
5118884112
5118888567
5118895770
5118901507
5118906634
5118912615
5118917315
5118925066
5118930376
5118935931
5118940386
5118946856
5118953448
5118958941
5118964251
5118969683
5118976702
5118981402
5118988055
5118992693
5118999102
5119005694
5119012591
5119017840
5119022234
5119028277
5119033281
5119039324
5119045794
5119051165
5119057146
5119061174
5119067644
5119072283
5119078814
5119083513
5119091387
5119099260
5119103899
5119110125
5119116533
5119122393
5119128130
5119133928
5119139910
5119144976
5119150835
5119155168
5119161272
5119167131
5119173113
5119179460
5119185381
5119192339
5119198015
5119203935
5119209551
5119215349
5119222185
5119226640
5119232133
5119236650
5119244829
5119249834
5119255388
5119261247
5119266801
5119272661
5119277360
5119283464
5119287919
5119295305
5119300798
5119306047
5119311784
5119317216
5119323442
5119329912
5119336747
5119345842
5119353288
5119358354
5119366288
5119372087
5119378312
5119383500
5119389360
5119394975
5119400773
5119406633
5119412248
5119417436
5119422807
5119428788
5119434281
5119440690
5119445329
5119451005
5119456925
5119461625
5119468461
5119471635
5119478227
5119484574
5119489884
5119495866
5119502091
5119507645
5119513749
5119520463
5119527482
5119533097
5119539140
5119545243
5119551408
5119554642
5119561295
5119567521
5119572221
5119579117
5119584733
5119589554
5119594559
5119601456
5119605912
5119616227
5119623368
5119628556
5119634049
5119640641
5119645279
5119651383
5119657242
5119662919
5119669999
5119675736
5119680863
5119686844
5119692459
5119698807
5119704483
5119710343
5119715958
5119722000
5119727371
5119735611
5119742264
5119747635
5119752640
5119758377
5119764481
5119769486
5119775528
5119779862
5119787430
5119794266
5119798721
5119805374
5119810745
5119816055
5119822098
5119829666
5119836807
5119846268
5119852432
5119861526
5119867630
5119874527
5119879288
5119884659
5119890884
5119895828
5119901932
5119907303
5119914444
5119920669
5119926224
5119932937
5119939102
5119944534
5119949966
5119955642
5119961868
5119969009
5119974197
5119980728
5119987197
5119994094
5119999588
5120007766
5120015090
5120019241
5120025894
5120032302
5120039871
5120045425
5120053054
5120056594
5120064895
5120071853
5120076858
5120085891
5120091873
5120097671
5120104873
5120112075
5120118850
5120124770
5120130386
5120136977
5120142409
5120147658
5120154983
5120161208
5120168105
5120172927
5120178786
5120184707
5120191848
5120196853
5120201674
5120208083
5120217910
5120223647
5120229934
5120235061
5120241469
5120248549
5120254775
5120258742
5120266860
5120273513
5120278945
5120285048
5120292678
5120298964
5120304641
5120310988
5120317092
5120323378
5120328383
5120336989
5120342604
5120346877
5120353407
5120359755
5120365187
5120370436
5120375563
5120381300
5120385390
5120392409
5120397109
5120403456
5120410780
5120415053
5120421767
5120427687
5120433119
5120438429
5120444655
5120451674
5120456984
5120460829
5120467848
5120471876
5120479384
5120485487
5120491469
5120497450
5120502638
5120508070
5120513807
5120519606
5120524733
5120531080
5120536879
5120542128
5120548658
5120553175
5120560255
5120569716
5120574537
5120581312
5120587049
5120593214
5120597792
5120603041
5120610731
5120617262
5120621534
5120627821
5120632582
5120639417
5120645460
5120650648
5120656385
5120661146
5120667188
5120672926
5120678663
5120683546
5120689893
5120695265
5120700514
5120705274
5120710645
5120716627
5120722120
5120727796
5120731336
5120739332
5120746351
5120751295
5120758680
5120765760
5120771009
5120777235
5120782422
5120790174
5120798963
5120803846
5120813245
5120822034
5120828443
5120834424
5120840345
5120843885
5120853040
5120858655
5120862989
5120870740
5120876783
5120881665
5120888562
5120895215
5120900037
5120906629
5120915174
5120922742
5120929334
5120937573
5120944287
5120949780
5120956128
5120962110
5120969129
5120972669
5120982373
5120988355
5120995068
5121000745
5121005383
5121013135
5121018201
5121024792
5121033215
5121039075
5121047436
5121055127
5121063977
5121073865
5121082104
5121093701
5121101758
5121107556
5121113537
5121119031
5121124402
5121128918
5121134900
5121140149
5121146496
5121151196
5121158520
5121164318
5121169567
5121175610
5121181347
5121186291
5121192761
5121198559
5121203320
5121210095
5121213330
5121219799
5121225292
5121230664
5121236889
5121241467
5121247875
5121251782
5121257580
5121263195
5121268200
5121272961
5121279553
5121284863
5121290844
5121295300
5121302074
5121305553
5121314343
5121321178
5121329723
5121337231
5121345715
5121351635
5121361401
5121366588
5121371227
5121376110
5121383007
5121387279
5121393932
5121399792
5121405895
5121410717
5121415966
5121421032
5121426220
5121431408
5121436657
5121443126
5121448681
5121453441
5121457958
5121463878
5121468456
5121475414
5121480785
5121486156
5121490734
5121496898
5121503063
5121508861
5121514720
5121519786
5121526073
5121530284
5121536327
5121542797
5121548961
5121553783
5121559520
5121563854
5121570873
5121575939
5121581065
5121586376
5121591808
5121596507
5121605296
5121612865
5121619151
5121624644
5121631114
5121636790
5121642894
5121649547
5121655650
5121661326
5121666759
5121671519
5121677318
5121683238
5121688487
5121694224
5121698924
5121705089
5121710154
5121715770
5121721202
5121725718
5121731822
5121737742
5121743296
5121748546
5121753672
5121758799
5121764598
5121770457
5121775584
5121779917
5121785350
5121789866
5121796580
5121801768
5121808665
5121812510
5121820201
5121826304
5121832102
5121839244
5121847483
5121852549
5121859324
5121867991
5121875498
5121882334
5121888133
5121894175
5121901194
5121905650
5121912424
5121919016
5121923899
5121928477
5121934885
5121938059
5121946238
5121949351
5121955393
5121961375
5121966563
5121972544
5121978525
5121984812
5121990671
5121996042
5122001291
5122007822
5122012827
5122019724
5122023081
5122029612
5122035349
5122040781
5122044748
5122049875
5122055735
5122061106
5122066538
5122072519
5122078562
5122082895
5122088571
5122095041
5122099497
5122104074
5122111460
5122115915
5122122812
5122128916
5122134592
5122139658
5122144357
5122151682
5122155344
5122161875
5122167001
5122173166
5122177377
5122182810
5122189951
5122193979
5122199594
5122204843
5122211191
5122215524
5122222971
5122227548
5122234994
5122240854
5122246957
5122250619
5122258310
5122263620
5122267648
5122273019
5122278451
5122283945
5122289865
5122295785
5122301584
5122307992
5122312570
5122318979
5122323983
5122331552
5122337472
5122341745
5122347848
5122353952
5122361459
5122368173
5122374765
5122378671
5122386972
5122395761
5122401132
5122407418
5122412973
5122419259
5122424813
5122429696
5122435739
5122440255
5122447640
5122454415
5122460214
5122465768
5122471200
5122476022
5122481149
5122486947
5122491219
5122497811
5122504220
5122510262
5122514962
5122520943
5122526192
5122533395
5122536874
5122544564
5122550667
5122556649
5122561715
5122567330
5122572701
5122578438
5122584176
5122589425
5122595589
5122600472
5122607247
5122611947
5122619515
5122625008
5122630257
5122633370
5122640450
5122644906
5122652413
5122660714
5122664376
5122671028
5122675972
5122681221
5122686959
5122692757
5122698677
5122705086
5122711678
5122717964
5122722420
5122728096
5122733528
5122738594
5122744454
5122750130
5122755562
5122761482
5122766304
5122772591
5122777596
5122783577
5122789742
5122793587
5122799324
5122804512
5122809212
5122814949
5122822029
5122825935
5122831795
5122837349
5122842110
5122846748
5122853645
5122858955
5122866463
5122871773
5122876900
5122884590
5122892280
5122901069
5122908577
5122915901
5122922371
5122927681
5122934822
5122939766
5122945442
5122950019
5122957039
5122963203
5122969429
5122972847
5122980354
5122987068
5122991157
5122997139
5123003242
5123008674
5123015083
5123020454
5123025337
5123031318
5123035652
5123041694
5123046821
5123052619
5123055793
5123063545
5123070564
5123076301
5123082710
5123087226
5123094367
5123098518
5123105231
5123109260
5123117255
5123122016
5123127937
5123131110
5123138435
5123145270
5123151008
5123158637
5123162787
5123170051
5123174079
5123181830
5123188300
5123193061
5123199103
5123205756
5123212470
5123219733
5123225959
5123231330
5123237555
5123243415
5123250739
5123256964
5123262397
5123267951
5123273200
5123278693
5123284247
5123292548
5123297064
5123303900
5123308417
5123315802
5123321356
5123326789
5123332892
5123338568
5123344611
5123348883
5123355353
5123360053
5123367194
5123373053
5123378790
5123384833
5123389105
5123395331
5123401617
5123406622
5123412360
5123419134
5123426092
5123433905
5123439642
5123445990
5123451239
5123460089
5123465399
5123471808
5123477789
5123483343
5123486822
5123494269
5123500250
5123506048
5123511786
5123517950
5123524420
5123529913
5123534735
5123539618
5123547857
5123553045
5123558599
5123564642
5123570318
5123576910
5123582525
5123588812
5123592230
5123599981
5123606146
5123612249
5123618170
5123623419
5123631658
5123636236
5123643438
5123648870
5123654546
5123661138
5123667181
5123673284
5123680303
5123685735
5123691839
5123697393
5123702886
5123707342
5123714910
5123721868
5123728155
5123734014
5123739446
5123745794
5123749761
5123757207
5123762090
5123769109
5123774846
5123781743
5123787176
5123792974
5123798772
5123803594
5123810247
5123815496
5123820928
5123822698
5123830083
5123838445
5123842717
5123849065
5123852178
5123859319
5123865300
5123871587
5123876836
5123883306
5123889043
5123892156
5123899297
5123905278
5123911077
5123916142
5123923039
5123928655
5123936955
5123944585
5123948430
5123956975
5123965032
5123972417
5123978459
5123984746
5123990849
5123996831
5124002873
5124008366
5124012761
5124019048
5124024052
5124030766
5124038212
5124042485
5124049504
5124055791
5124061406
5124066289
5124073369
5124078618
5124084599
5124090214
5124095585
5124101018
5124105290
5124113163
5124120366
5124124638
5124133061
5124136235
5124143864
5124150151
5124155827
5124161991
5124166081
5124171940
5124177677
5124181950
5124188298
5124193974
5124198246
5124204472
5124207951
5124215580
5124225895
5124229069
5124237370
5124240482
5124248783
5124253544
5124258793
5124264225
5124270695
5124276676
5124283390
5124290409
5124296085
5124301945
5124306950
5124312016
5124317387
5124321537
5124329410
5124335514
5124340092
5124344425
5124350407
5124354801
5124360050
5124364689
5124372379
5124375919
5124385196
5124390873
5124394962
5124400089
5124405460
5124412540
5124417179
5124423526
5124429752
5124435062
5124439640
5124446476
5124454959
5124460697
5124469608
5124478031
5124485721
5124494083
5124499881
5124505741
5124510440
5124516605
5124521549
5124526859
5124532596
5124537723
5124542911
5124548160
5124553592
5124557681
5124564456
5124568363
5124573978
5124579837
5124584720
5124589664
5124596133
5124601443
5124607669
5124614749
5124621402
5124628116
5124634463
5124643008
5124649051
5124655582
5124661868
5124667666
5124674014
5124677615
5124685306
5124688479
5124696780
5124703616
5124709170
5124714969
5124720889
5124725894
5124732119
5124737979
5124742862
5124753299
5124759768
5124764285
5124770632
5124775210
5124782107
5124787783
5124793948
5124799380
5124804812
5124810366
5124815737
5124822390
5124828189
5124834719
5124838870
5124845095
5124851016
5124856326
5124862734
5124868838
5124874819
5124880434
5124884402
5124891177
5124897646
5124901980
5124909060
5124913576
5124921145
5124927065
5124932619
5124937319
5124944155
5124949099
5124956850
5124960512
5124967837
5124973452
5124978701
5124984926
5124990969
5124998598
5125008791
5125014650
5125024294
5125031862
5125037600
5125042360
5125049440
5125052858
5125060976
5125067079
5125072756
5125077944
5125082949
5125088930
5125093141
5125099184
5125105593
5125111208
5125116152
5125122560
5125127077
5125132997
5125137697
5125144045
5125147402
5125154482
5125157594
5125165590
5125172121
5125177675
5125183107
5125187074
5125192751
5125198488
5125204713
5125209901
5125216371
5125221315
5125226930
5125231996
5125237672
5125243776
5125249391
5125256105
5125260499
5125267335
5125271119
5125279909
5125287233
5125292909
5125299562
5125305482
5125310487
5125316407
5125321046
5125326356
5125332765
5125337098
5125343995
5125350709
5125355714
5125361085
5125366151
5125371827
5125375917
5125384400
5125388978
5125395204
5125399842
5125406617
5125411622
5125417237
5125423524
5125429383
5125434876
5125440309
5125445558
5125449952
5125456971
5125462464
5125468873
5125473756
5125479371
5125485230
5125490174
5125496461
5125500733
5125507447
5125516724
5125524720
5125530457
5125539185
5125546387
5125554322
5125560731
5125564149
5125571473
5125576844
5125581910
5125588013
5125594117
5125599915
5125605713
5125611451
5125616761
5125622803
5125628907
5125633912
5125638245
5125644104
5125648682
5125655457
5125661621
5125667054
5125672364
5125678223
5125684265
5125690613
5125696045
5125701721
5125707581
5125713013
5125721192
5125725037
5125732300
5125737732
5125742859
5125747437
5125753296
5125759155
5125765015
5125769531
5125773926
5125780090
5125784607
5125790833
5125797180
5125804687
5125810242
5125815124
5125820984
5125826416
5125831726
5125838501
5125844177
5125851623
5125854553
5125862305
5125867981
5125871948
5125879150
5125883545
5125890014
5125894836
5125901428
5125907287
5125911377
5125917663
5125923706
5125929870
5125934143
5125939453
5125945068
5125949768
5125955566
5125962280
5125966552
5125973449
5125977478
5125984680
5125988891
5125996215
5126002929
5126008789
5126015075
5126020141
5126026855
5126033386
5126039489
5126050292
5126057372
5126064208
5126069762
5126076904
5126083862
5126089294
5126094970
5126101012
5126107543
5126113830
5126119384
5126124023
5126130126
5126136169
5126142272
5126148620
5126154235
5126159118
5126164977
5126171386
5126176269
5126183288
5126187987
5126193602
5126197936
5126203734
5126208129
5126213317
5126217894
5126224547
5126229674
5126236693
5126239867
5126247863
5126254149
5126259642
5126268737
5126273802
5126279235
5126287596
5126292052
5126298583
5126304137
5126309691
5126315795
5126324156
5126330992
5126337584
5126344176
5126349730
5126359190
5126365294
5126371642
5126376830
5126381285
5126388914
5126392332
5126400511
5126406004
5126412657
5126420348
5126427061
5126432921
5126439879
5126445921
5126450987
5126454405
5126461424
5126468260
5126473509
5126478941
5126483030
5126488646
5126494322
5126500364
5126506773
5126513060
5126518614
5126523802
5126528746
5126535765
5126541319
5126546751
5126553465
5126559507
5126567259
5126574705
5126581358
5126588682
5126597105
5126604307
5126609434
5126614866
5126620298
5126626219
5126630918
5126638181
5126642759
5126649351
5126655821
5126662107
5126666380
5126672239
5126676939
5126684019
5126690183
5126695249
5126699583
5126704832
5126710630
5126716062
5126722410
5126728574
5126733335
5126739744
5126746030
5126751340
5126757383
5126762632
5126768796
5126773191
5126779294
5126784421
5126789853
5126795774
5126799985
5126807309
5126813718
5126819638
5126824460
5126830747
5126836179
5126843198
5126846982
5126856382
5126862607
5126865781
5126873105
5126878598
5126883908
5126887021
5126895383
5126901303
5126906491
5126911496
5126917233
5126921506
5126927609
5126933530
5126938596
5126945493
5126951291
5126957272
5126962766
5126968015
5126973447
5126980954
5126986752
5126993039
5127000180
5127006100
5127010617
5127016598
5127020749
5127027219
5127033749
5127039059
5127045285
5127051144
5127056027
5127061459
5127066037
5127073605
5127079098
5127084775
5127093747
5127100766
5127106808
5127112912
5127119626
5127124997
5127130001
5127137753
5127140744
5127149899
5127156308
5127161923
5127168026
5127173336
5127179013
5127183956
5127190487
5127193661
5127200375
5127205929
5127211483
5127215939
5127221920
5127228146
5127232784
5127239437
5127244869
5127250301
5127254696
5127259579
5127264156
5127270748
5127276485
5127282528
5127288692
5127294552
5127299923
5127305538
5127311459
5127317928
5127323910
5127329952
5127335079
5127339840
5127345089
5127349544
5127357601
5127361019
5127369076
5127375362
5127381466
5127386348
5127391964
5127397762
5127403866
5127409603
5127416011
5127421566
5127426387
5127432552
5127435848
5127445491
5127453304
5127457332
5127464290
5127470211
5127476192
5127479549
5127486934
5127492916
5127498836
5127505000
5127509334
5127515865
5127519771
5127527034
5127532222
5127538814
5127544185
5127550594
5127555660
5127561214
5127566158
5127572749
5127575984
5127583247
5127586543
5127593135
5127598079
5127603267
5127609004
5127615962
5127623714
5127630061
5127638545
5127645137
5127651118
5127656123
5127663936
5127667048
5127674983
5127679561
5127684688
5127691462
5127697200
5127701655
5127707881
5127712581
5127717280
5127723872
5127727351
5127735591
5127741877
5127747065
5127751948
5127757075
5127758967
5127766474
5127773310
5127777339
5127783198
5127789363
5127795222
5127800471
5127806513
5127811579
5127817805
5127822199
5127828181
5127833186
5127838984
5127844355
5127850275
5127856440
5127861567
5127867976
5127872614
5127878779
5127885004
5127889643
5127895441
5127902827
5127909052
5127915278
5127920283
5127926691
5127933893
5127940485
5127946223
5127951716
5127957758
5127963068
5127968134
5127974787
5127978632
5127985224
5127990229
5127995905
5128001703
5128007441
5128013300
5128019220
5128025385
5128029352
5128035212
5128040888
5128045710
5128051935
5128056452
5128060907
5128068354
5128074091
5128079035
5128084040
5128091730
5128097345
5128103143
5128108820
5128114130
5128119745
5128124201
5128131281
5128140192
5128145563
5128154779
5128161188
5128169489
5128176996
5128182672
5128185968
5128193475
5128199945
5128205682
5128211664
5128216119
5128221551
5128226617
5128231866
5128237298
5128243219
5128247125
5128252618
5128258172
5128263177
5128268426
5128275323
5128278558
5128285272
5128291192
5128296991
5128302911
5128308831
5128314691
5128318719
5128326471
5128331720
5128337579
5128342034
5128348809
5128352533
5128359918
5128364862
5128370843
5128375970
5128381219
5128386834
5128392755
5128400628
5128404778
5128411370
5128416497
5128424737
5128432305
5128436700
5128443231
5128449151
5128454278
5128459649
5128464715
5128470452
5128476006
5128482598
5128487542
5128492303
5128496819
5128503594
5128509576
5128515679
5128521294
5128527215
5128533135
5128539239
5128545525
5128549981
5128556084
5128560174
5128567376
5128572503
5128579033
5128584282
5128591057
5128596550
5128600945
5128605523
5128612542
5128615776
5128622857
5128629448
5128635796
5128641167
5128646660
5128655083
5128662102
5128667961
5128673943
5128677910
5128687554
5128694756
5128703789
5128709648
5128716545
5128722283
5128726799
5128731255
5128738884
5128745110
5128751213
5128754814
5128761223
5128764397
5128771172
5128778191
5128782341
5128788506
5128792534
5128798942
5128803459
5128809013
5128813408
5128820122
5128825127
5128831962
5128838188
5128844108
5128847526
5128854301
5128859550
5128865593
5128872551
5128876823
5128882927
5128887382
5128892753
5128899467
5128904106
5128910209
5128914299
5128918693
5128925529
5128928825
5128935234
5128941520
5128951530
5128957084
5128962150
5128967216
5128972892
5128977043
5128984123
5128989738
5128994865
5128999809
5129005851
5129012931
5129018363
5129023490
5129030143
5129035941
5129041923
5129047843
5129053886
5129059745
5129065543
5129071769
5129075797
5129081412
5129086356
5129093558
5129098075
5129104789
5129109428
5129114738
5129120353
5129125297
5129129813
5129136344
5129141593
5129147452
5129153678
5129158744
5129163810
5129169120
5129175101
5129183341
5129193717
5129200370
5129208304
5129213614
5129222220
5129230826
5129236380
5129241751
5129246146
5129252127
5129257254
5129262992
5129266165
5129273856
5129279959
5129286002
5129291983
5129296500
5129302420
5129307791
5129312369
5129318228
5129323721
5129328726
5129335318
5129340628
5129346976
5129352774
5129357901
5129365530
5129372000
5129377188
5129381522
5129387564
5129392386
5129398489
5129405447
5129410940
5129416373
5129421194
5129428274
5129435293
5129441214
5129447989
5129452505
5129459036
5129463919
5129472708
5129479300
5129485464
5129491934
5129497610
5129502615
5129508047
5129513113
5129517508
5129522940
5129530386
5129536123
5129545889
5129551687
5129556082
5129561575
5129566458
5129572927
5129576284
5129583914
5129589590
5129593496
5129598745
5129603994
5129609792
5129614248
5129621450
5129625173
5129630727
5129636343
5129641714
5129646597
5129653005
5129657827
5129663320
5129666555
5129673513
5129679250
5129684438
5129690176
5129697561
5129705739
5129715810
5129721242
5129728200
5129735341
5129743398
5129749441
5129753835
5129758352
5129764150
5129769216
5129776540
5129779714
5129787465
5129793386
5129799367
5129805288
5129811269
5129817617
5129822072
5129828115
5129833669
5129838491
5129842946
5129848806
5129853505
5129859670
5129864614
5129871388
5129878102
5129883229
5129890248
5129896535
5129902333
5129908620
5129914174
5129919179
5129926015
5129931203
5129935902
5129940907
5129947743
5129952931
5129958302
5129964101
5129969960
5129976857
5129981862
5129988515
5129996693
5130002186
5130006886
5130012379
5130018361
5130023549
5130029408
5130034474
5130039906
5130043385
5130050709
5130053822
5130062733
5130066334
5130073781
5130079396
5130083424
5130089406
5130093434
5130100087
5130104298
5130109974
5130115590
5130120716
5130125416
5130131947
5130137806
5130142933
5130148304
5130155201
5130160450
5130165455
5130170826
5130176075
5130181263
5130186634
5130193775
5130198048
5130205189
5130210011
5130215809
5130224842
5130231556
5130238148
5130241810
5130252369
5130260120
5130267811
5130274586
5130280689
5130284107
5130291737
5130297596
5130303333
5130310291
5130314503
5130320972
5130327259
5130332630
5130337269
5130343799
5130349048
5130354419
5130359791
5130365955
5130371937
5130377796
5130382435
5130387989
5130393848
5130400013
5130406726
5130411792
5130418262
5130423633
5130429737
5130435108
5130441333
5130446338
5130453845
5130457080
5130463916
5130467212
5130474780
5130480274
5130486377
5130492114
5130496387
5130502490
5130508472
5130514575
5130524829
5130529834
5130536365
5130540820
5130546130
5130550952
5130558643
5130562122
5130569873
5130575305
5130581164
5130585559
5130590808
5130596423
5130601977
5130608508
5130615161
5130620410
5130625781
5130631763
5130637561
5130643542
5130647632
5130653369
5130659594
5130664843
5130671069
5130675280
5130681201
5130686389
5130692248
5130699267
5130704516
5130709765
5130714038
5130720691
5130725390
5130731555
5130738085
5130743273
5130750903
5130757861
5130766101
5130772631
5130781176
5130790026
5130796008
5130801379
5130807543
5130813220
5130817980
5130825366
5130830737
5130836108
5130842211
5130846789
5130853442
5130859240
5130866320
5130870837
5130876696
5130881152
5130886339
5130890978
5130897143
5130902331
5130909289
5130914965
5130920641
5130923876
5130930346
5130933459
5130940355
5130943590
5130951952
5130958117
5130962633
5130969713
5130974657
5130981188
5130986071
5130992235
5130996630
5131001879
5131006273
5131012865
5131015978
5131024157
5131029833
5131036669
5131043871
5131048509
5131055467
5131059191
5131066881
5131072374
5131078966
5131084947
5131090563
5131095567
5131101427
5131108629
5131112474
5131120592
5131126756
5131131090
5131137560
5131142992
5131149339
5131155321
5131161058
5131166917
5131172288
5131177965
5131182359
5131190111
5131194871
5131201097
5131206712
5131212633
5131220262
5131224412
5131231920
5131239305
5131244737
5131250779
5131256212
5131264879
5131271409
5131278917
5131287278
5131295091
5131300279
5131307664
5131316331
5131321092
5131329087
5131337083
5131343003
5131349717
5131355699
5131362474
5131369554
5131374925
5131380296
5131386216
5131392259
5131398057
5131401414
5131409348
5131416795
5131421006
5131428330
5131432847
5131439622
5131444444
5131450852
5131454087
5131462083
5131467881
5131473069
5131478562
5131484116
5131489182
5131494919
5131502488
5131507126
5131514084
5131519333
5131525498
5131529954
5131536728
5131544053
5131548386
5131555466
5131560044
5131566269
5131570542
5131578782
5131585129
5131590439
5131596543
5131601548
5131607102
5131612717
5131618332
5131622727
5131630295
5131633713
5131641770
5131646958
5131652146
5131657334
5131662705
5131669785
5131675827
5131682053
5131686386
5131692368
5131697189
5131702377
5131707687
5131714035
5131719650
5131724960
5131730087
5131735153
5131741196
5131746994
5131753647
5131757065
5131765060
5131770126
5131775192
5131780319
5131785446
5131792465
5131798263
5131804916
5131812057
5131817306
5131823349
5131829208
5131836471
5131841720
5131849289
5131855575
5131861496
5131866806
5131872665
5131880233
5131885238
5131892074
5131896713
5131903549
5131909774
5131915512
5131922103
5131928207
5131933456
5131939437
5131945297
5131949935
5131956283
5131963912
5131969833
5131974899
5131980758
5131986556
5131990157
5131997482
5132004928
5132010848
5132016341
5132020919
5132027511
5132030929
5132038314
5132044479
5132050277
5132055709
5132060287
5132066634
5132072738
5132077865
5132085189
5132089950
5132097640
5132101485
5132109908
5132114852
5132120711
5132126815
5132132308
5132138289
5132144454
5132149459
5132155990
5132160201
5132167342
5132171981
5132178756
5132184310
5132189559
5132195845
5132201705
5132208236
5132211776
5132218306
5132224044
5132229232
5132234969
5132239424
5132247176
5132252242
5132257552
5132263899
5132268660
5132273848
5132277937
5132286971
5132291731
5132297774
5132303267
5132308455
5132315474
5132322188
5132329146
5132336470
5132341902
5132349165
5132354536
5132362776
5132368330
5132374007
5132380720
5132386092
5132391463
5132397261
5132403548
5132409590
5132415022
5132420271
5132425520
5132431074
5132438399
5132443220
5132450606
5132456221
5132461531
5132466353
5132472700
5132478132
5132484236
5132489546
5132494551
5132501142
5132506514
5132511579
5132518782
5132523603
5132530806
5132534346
5132541181
5132547041
5132552473
5132559004
5132563642
5132572126
5132575483
5132582807
5132588545
5132594221
5132601240
5132605024
5132613264
5132619001
5132624799
5132629438
5132635114
5132640302
5132645368
5132652631
5132655988
5132663190
5132668928
5132674543
5132680097
5132684736
5132691816
5132697675
5132702863
5132708417
5132713422
5132719160
5132724897
5132731489
5132736860
5132742170
5132747053
5132752302
5132759321
5132764447
5132772626
5132777570
5132782941
5132789411
5132793927
5132800763
5132805768
5132813703
5132819806
5132826886
5132833234
5132842511
5132849042
5132854840
5132862714
5132869977
5132876203
5132881452
5132886273
5132892926
5132900556
5132904279
5132912701
5132919476
5132926495
5132933820
5132940594
5132945233
5132953351
5132958539
5132963849
5132971112
5132975995
5132981793
5132986066
5132992779
5132997784
5133003705
5133007062
5133015484
5133021222
5133027203
5133032879
5133037152
5133042950
5133047467
5133054913
5133060406
5133065533
5133071942
5133077801
5133082745
5133088726
5133094769
5133099957
5133107098
5133112652
5133118023
5133124432
5133128338
5133135601
5133140484
5133147381
5133153729
5133159344
5133165875
5133171917
5133177532
5133184246
5133190411
5133195843
5133201580
5133207440
5133213116
5133220257
5133225018
5133230877
5133235516
5133242229
5133246563
5133253582
5133260052
5133264141
5133271160
5133275677
5133282574
5133288250
5133293377
5133299785
5133306866
5133312359
5133318584
5133323040
5133332134
5133342266
5133349834
5133355144
5133363079
5133369365
5133375713
5133381267
5133387371
5133394756
5133400066
5133405986
5133413372
5133420757
5133424968
5133432109
5133438274
5133444683
5133450542
5133457256
5133462688
5133469280
5133475139
5133479961
5133486614
5133493816
5133499980
5133505412
5133512126
5133517009
5133523113
5133528789
5133534343
5133541423
5133547099
5133552409
5133559245
5133565654
5133570903
5133577251
5133581584
5133589641
5133596110
5133602946
5133609172
5133615031
5133620463
5133626689
5133633281
5133638652
5133644389
5133649638
5133656169
5133662455
5133668376
5133674968
5133680705
5133686137
5133692424
5133697795
5133703044
5133710246
5133715983
5133721171
5133727885
5133735087
5133740153
5133748088
5133754008
5133759196
5133766215
5133771586
5133777323
5133784342
5133789652
5133796183
5133802775
5133809550
5133815165
5133822123
5133830180
5133839213
5133845744
5133852335
5133859354
5133864603
5133870951
5133876993
5133883158
5133888651
5133894083
5133900126
5133907023
5133911417
5133918253
5133924112
5133930948
5133935770
5133942240
5133947489
5133953959
5133961405
5133967264
5133972696
5133977518
5133985758
5133991556
5133996988
5134002603
5134009745
5134016336
5134022257
5134027567
5134034281
5134039957
5134046549
5134052652
5134057901
5134062479
5134070413
5134076212
5134082010
5134088114
5134094400
5134101541
5134107279
5134113626
5134118936
5134126077
5134133401
5134138895
5134145853
5134150125
5134156290
5134161844
5134166910
5134173013
5134178812
5134184183
5134191141
5134194986
5134200845
5134206094
5134211282
5134219583
5134223672
5134230203
5134234536
5134240823
5134245035
5134251382
5134257119
5134262613
5134268167
5134273233
5134279519
5134283426
5134289956
5134294046
5134302163
5134308023
5134313760
5134318093
5134323831
5134328469
5134335549
5134342019
5134348306
5134354653
5134361245
5134366555
5134372964
5134378884
5134383584
5134388833
5134392861
5134396401
5134401894
5134405984
5134410134
5134414834
5134419289
5134424294
5134427590
5134431863
5134436562
5134439675
5134445840
5134449319
5134454140
5134457558
5134462868
5134465005
5134470193
5134476357
5134481667
5134487099
5134490212
5134495522
5134497841
5134503335
5134509621
5134513589
5134518715
5134522805
5134527566
5134531228
5134537087
5134541848
5134546669
5134552041
5134556984
5134561196
5134565407
5134571267
5134577980
5134581704
5134586647
5134591469
5134595070
5134599282
5134603371
5134607949
5134614540
5134619484
5134624001
5134628273
5134632180
5134637001
5134640663
5134646889
5134651039
5134656410
5134661049
5134666298
5134670082
5134675209
5134680214
5134684303
5134689736
5134692421
5134698219
5134700661
5134707741
5134712685
5134717812
5134721901
5134726601
5134731178
5134735451
5134740273
5134744606
5134749794
5134755226
5134760353
5134766701
5134772682
5134778969
5134785560
5134791542
5134795448
5134800819
5134805885
5134810951
5134816200
5134819496
5134825538
5134830360
5134835426
5134840858
5134844948
5134850624
5134853370
5134859718
5134860939
5134866920
5134873329
5134876136
5134882850
5134886818
5134893043
5134897316
5134905677
5134915138
5134924171
5134930030
5134939918
5134945472
5134952613
5134960670
5134966346
5134975135
5134985572
5134992286
5134998939
5135005775
5135012367
5135019935
5135026710
5135034522
5135045570
5135054237
5135060950
5135068030
5135075477
5135084144
5135092261
5135098731
5135108802
5135116248
5135125159
5135133094
5135141761
5135149756
5135157447
5135165015
5135172644
5135180823
5135188941
5135198462
5135205176
5135214270
5135219153
5135228980
5135236914
5135244727
5135252478
5135261145
5135268042
5135276648
5135283911
5135290686
5135300147
5135307837
5135316016
5135320837
5135330908
5135339514
5135347388
5135355139
5135361670
5135373022
5135381567
5135392370
5135397680
5135409460
5135416784
5135425451
5135434729
5135440649
5135450598
5135457495
5135466711
5135473364
5135480322
5135487280
5135498938
5135503820
5135514257
5135522619
5135528784
5135537329
5135545996
5135554479
5135561437
5135569677
5135578344
5135586218
5135594824
5135604101
5135610387
5135625036
5135637365
5135650793
5135669713
5135683324
5135700353
5135713109
5135725377
5135741552
5135754979
5135768834
5135783849
5135791234
5135799291
5135812413
5135831700
5135847875
5135857579
5135870091
5135880406
5135891576
5135907323
5135926244
5135945897
5135964513
5135974034
5135981480
5135989598
5135997410
5136004429
5136011876
5136020237
5136027745
5136035130
5136043980
5136051854
5136058751
5136066258
5136073704
5136081639
5136088414
5136096287
5136103428
5136111424
5136117466
5136125218
5136131993
5136142613
5136149937
5136157322
5136164463
5136171726
5136177097
5136186375
5136194309
5136201817
5136210362
5136219517
5136227146
5136236912
5136246189
5136257053
5136265110
5136274326
5136285801
5136292820
5136298374
5136307346
5136313938
5136321811
5136329319
5136336765
5136344150
5136351597
5136358554
5136367588
5136374790
5136380832
5136385471
5136389133
5136393405
5136397251
5136402072
5136404941
5136411655
5136414402
5136420871
5136425632
5136430332
5136434909
5136439487
5136444797
5136449191
5136453098
5136457431
5136461582
5136466281
5136470676
5136474460
5136478366
5136481845
5136486240
5136489841
5136495456
5136499240
5136503391
5136508090
5136513339
5136515964
5136523044
5136529575
5136533481
5136537997
5136542880
5136550632
5136554660
5136559787
5136564120
5136570895
5136574801
5136579196
5136586032
5136589938
5136594516
5136599093
5136603793
5136608005
5136611972
5136616427
5136622348
5136626620
5136631137
5136635959
5136641024
5136646273
5136650912
5136655551
5136661898
5136667758
5136674166
5136679599
5136687594
5136692782
5136698947
5136702548
5136710482
5136715304
5136721896
5136726412
5136731906
5136736849
5136742770
5136750704
5136757296
5136764132
5136768405
5136772982
5136778170
5136784213
5136791537
5136797091
5136801547
5136806918
5136813021
5136817904
5136822726
5136829317
5136834505
5136839022
5136845553
5136850252
5136855257
5136859774
5136864657
5136870211
5136875521
5136879915
5136886385
5136892550
5136897555
5136902926
5136910128
5136912874
5136921175
5136926851
5136931673
5136937288
5136943087
5136945162
5136953157
5136960176
5136965792
5136971285
5136975740
5136982027
5136988069
5136993624
5136999788
5137006014
5137011019
5137015779
5137021578
5137026888
5137034090
5137043733
5137048006
5137055269
5137060823
5137066744
5137073763
5137079012
5137084627
5137089021
5137094881
5137099825
5137105013
5137113496
5137118379
5137125398
5137129793
5137137117
5137143220
5137147981
5137152925
5137158174
5137164400
5137170869
5137175874
5137181001
5137185579
5137191499
5137196565
5137202302
5137206575
5137212434
5137217317
5137223787
5137228853
5137235444
5137239961
5137245271
5137251924
5137259492
5137265535
5137267732
5137275605
5137280793
5137289033
5137292817
5137300080
5137306550
5137315766
5137319367
5137326264
5137330842
5137338349
5137343720
5137349885
5137353303
5137359712
5137363007
5137369599
5137375276
5137379731
5137384065
5137390473
5137395356
5137400666
5137407380
5137412080
5137418671
5137423676
5137430085
5137437104
5137443452
5137445710
5137454316
5137459199
5137465912
5137472626
5137478669
5137482331
5137489716
5137496247
5137502045
5137505890
5137514557
5137521088
5137528107
5137533539
5137540070
5137544037
5137553132
5137556672
5137563080
5137568146
5137574311
5137579132
5137585480
5137591461
5137597138
5137602570
5137607880
5137613251
5137619477
5137623749
5137629425
5137634918
5137641510
5137648651
5137656525
5137662384
5137669953
5137675324
5137682709
5137690155
5137697296
5137702118
5137706512
5137710785
5137715057
5137719147
5137723663
5137730438
5137735138
5137740021
5137744842
5137749725
5137755157
5137759918
5137763946
5137769806
5137774200
5137778595
5137783111
5137787689
5137792145
5137797943
5137802643
5137807281
5137811554
5137816620
5137821563
5137826629
5137830841
5137835479
5137841827
5137846649
5137853546
5137859344
5137864044
5137870758
5137875274
5137882598
5137887786
5137893646
5137899139
5137903656
5137908111
5137912872
5137917449
5137922576
5137927886
5137932830
5137938140
5137941985
5137947235
5137951019
5137955169
5137961334
5137965301
5137971343
5137973968
5137979522
5137983123
5137988921
5137993255
5137998321
5138003082
5138008147
5138012969
5138017547
5138022185
5138027190
5138032928
5138037933
5138042693
5138045928
5138050628
5138055694
5138059905
5138065948
5138070464
5138075042
5138080840
5138086394
5138091765
5138096221
5138101958
5138107024
5138112639
5138117400
5138123565
5138128020
5138133635
5138137603
5138142852
5138147307
5138153838
5138159697
5138164519
5138168425
5138173857
5138176787
5138183318
5138188933
5138194182
5138199126
5138204314
5138207732
5138212798
5138217925
5138222991
5138230559
5138235503
5138239775
5138244841
5138250823
5138254790
5138260588
5138264922
5138272124
5138277678
5138282744
5138289214
5138293547
5138299223
5138302702
5138310515
5138315215
5138323027
5138328947
5138333159
5138338164
5138345915
5138351958
5138356596
5138362211
5138370451
5138377226
5138382536
5138387053
5138392851
5138399077
5138403654
5138409819
5138415312
5138419951
5138425139
5138430876
5138435392
5138439360
5138444548
5138450529
5138456938
5138461882
5138466154
5138471708
5138477690
5138484098
5138485868
5138493986
5138500639
5138504728
5138510404
5138515043
5138520719
5138527006
5138530241
5138537931
5138545622
5138550443
5138553861
5138562101
5138565397
5138571684
5138576505
5138583097
5138588468
5138594022
5138599088
5138604765
5138610929
5138616178
5138620451
5138626676
5138633024
5138638090
5138644071
5138648771
5138652982
5138657682
5138666288
5138671415
5138678312
5138686246
5138691129
5138696805
5138701078
5138706632
5138712308
5138717130
5138723172
5138728544
5138735746
5138741483
5138745939
5138751493
5138758146
5138762906
5138768460
5138773954
5138782010
5138787503
5138791959
5138797635
5138803128
5138809781
5138811795
5138819547
5138825284
5138831815
5138836575
5138843228
5138846707
5138853848
5138859525
5138864346
5138869351
5138877713
5138883145
5138888333
5138892972
5138899197
5138905545
5138911465
5138916409
5138925748
5138931485
5138939786
5138945035
5138948209
5138957364
5138961209
5138969205
5138977688
5138983853
5138989041
5138994839
5139000393
5139006497
5139011136
5139016385
5139023526
5139029751
5139034695
5139039273
5139045315
5139050930
5139055142
5139061612
5139065884
5139072964
5139078091
5139084011
5139088162
5139095242
5139099819
5139105984
5139111233
5139119961
5139125149
5139129238
5139136501
5139140896
5139147488
5139150967
5139159573
5139163784
5139172573
5139177212
5139183254
5139188503
5139194180
5139199612
5139204617
5139210232
5139217617
5139223293
5139229275
5139233608
5139239712
5139244045
5139250454
5139257046
5139265041
5139271572
5139276699
5139282924
5139287624
5139293545
5139298427
5139304531
5139311428
5139317165
5139321987
5139328029
5139331752
5139338100
5139342922
5139349636
5139353908
5139362026
5139368129
5139374294
5139379604
5139385036
5139391078
5139396633
5139401515
5139409328
5139416713
5139422023
5139426906
5139432277
5139438442
5139443263
5139450099
5139455592
5139464870
5139468654
5139475978
5139479884
5139487941
5139493434
5139498500
5139503749
5139509731
5139515041
5139521510
5139526881
5139534389
5139539271
5139545436
5139551906
5139560084
5139566737
5139571986
5139577662
5139584926
5139589686
5139594874
5139600429
5139607081
5139612819
5139618251
5139624293
5139629054
5139637477
5139644252
5139648402
5139655848
5139660670
5139666896
5139671717
5139678248
5139683680
5139689479
5139695399
5139701258
5139706080
5139712794
5139718165
5139721705
5139729701
5139736231
5139741541
5139748316
5139755396
5139761378
5139766749
5139771082
5139777430
5139782374
5139790247
5139795374
5139803065
5139808253
5139813624
5139820216
5139824000
5139831507
5139835291
5139842249
5139847986
5139854517
5139859888
5139865687
5139870753
5139879664
5139883204
5139891077
5139896753
5139904078
5139910791
5139919031
5139923792
5139931360
5139935083
5139942713
5139947046
5139955347
5139959253
5139966394
5139972742
5139978113
5139983240
5139988977
5139994104
5140001367
5140006372
5140010279
5140019678
5140023828
5140030176
5140036585
5140042078
5140047144
5140053796
5140060022
5140065271
5140071497
5140078088
5140083154
5140087183
5140095483
5140101892
5140108728
5140114465
5140123193
5140130334
5140134058
5140143701
5140151697
5140160303
5140169275
5140173547
5140186487
5140192102
5140204553
5140210351
5140222986
5140228235
5140234033
5140246179
5140255151
5140261560
5140274377
5140277856
5140288232
5140295800
5140303002
5140309594
5140316552
5140323510
5140333825
5140342187
5140350427
5140358422
5140365685
5140368920
5140382958
5140388696
5140397485
5140404687
5140407922
5140421349
5140428918
5140435998
5140442712
5140451012
5140458642
5140463952
5140473534
5140479577
5140491417
5140499291
5140502160
5140514000
5140519188
5140527916
5140535119
5140543724
5140551232
5140557335
5140567528
5140575890
5140583641
5140590355
5140597496
5140606285
5140611412
5140619713
5140628929
5140638634
5140645836
5140652062
5140659630
5140666283
5140675926
5140682945
5140690575
5140697044
5140705040
5140714683
5140724388
5140731834
5140738731
5140746727
5140753319
5140760704
5140769310
5140776268
5140784141
5140857261
5140863975
5140869224
5140873558
5140877281
5140881492
5140886070
5140889732
5140892845
5140896079
5140899009
5140902366
5140905601
5140908958
5140912437
5140915733
5140919822
5140922996
5140925926
5140928611
5140931297
5140934287
5140937461
5140940025
5140942100
5140945396
5140948264
5140950523
5140952598
5140954612
5140956748
5140958823
5140961143
5140963279
5140965415
5140967551
5140969688
5140971824
5140974082
5140976341
5140979270
5140981834
5140984336
5140986533
5140989463
5140991599
5140993797
5140995750
5140998130
5141000449
5141002647
5141005027
5141007163
5141009360
5141011314
5141013511
5141015647
5141018638
5141020835
5141023399
5141025718
5141028525
5141030723
5141032676
5141035178
5141037253
5141039634
5141041770
5141043845
5141045920
5141048179
5141051230
5141054038
5141056724
5141058677
5141061240
5141063499
5141065574
5141067832
5141070029
5141072043
5141074485
5141076926
5141079246
5141081687
5141083518
5141085959
5141088035
5141090659
5141093345
5141095359
5141097678
5141099814
5141101951
5141104087
5141106528
5141108848
5141111533
5141114402
5141116416
5141119040
5141122153
5141124961
5141128318
5141130576
5141133139
5141135154
5141137412
5141139731
5141141867
5141144309
5141146384
5141148703
5141150901
5141153037
5141155600
5141157553
5141159751
5141162863
5141165061
5141167502
5141169760
5141172263
5141174582
5141176535
5141179099
5141181418
5141183860
5141186118
5141188437
5141190573
5141192954
5141196189
5141198630
5141201438
5141203757
5141205588
5141208029
5141210349
5141212790
5141214743
5141216818
5141219992
5141222983
5141225302
5141227316
5141229880
5141232382
5141235251
5141237570
5141239829
5141242087
5141244040
5141246176
5141248129
5141250449
5141252646
5141254477
5141256857
5141258994
5141261008
5141263632
5141266684
5141269675
5141272726
5141274802
5141276877
5141279013
5141281943
5141284018
5141286215
5141287985
5141290305
5141292624
5141294760
5141297263
5141299399
5141301413
5141304404
5141306784
5141308981
5141311240
5141313193
5141315878
5141317953
5141320334
5141322287
5141324362
5141326926
5141329184
5141331198
5141333578
5141336630
5141339255
5141341818
5141343832
5141345907
5141347861
5141349997
5141352133
5141354452
5141356650
5141358908
5141360861
5141363119
5141365378
5141367514
5141369589
5141371664
5141374350
5141376730
5141378744
5141381247
5141383383
5141385580
5141387777
5141389853
5141392111
5141394430
5141396811
5141398764
5141400900
5141403647
5141406698
5141409567
5141412252
5141414328
5141416525
5141418661
5141420919
5141423056
5141425375
5141427450
5141429586
5141431723
5141433981
5141436178
5141438192
5141440451
5141442404
5141444845
5141447531
5141449606
5141451681
5141454245
5141456503
5141458761
5141460958
5141463095
5141465231
5141467184
5141469320
5141471273
5141475912
5141478720
5141480917
5141483297
5141485494
5141487997
5141489950
5141492697
5141494650
5141496481
5141499044
5141501180
5141503256
5141505453
5141507467
5141509542
5141511923
5141514547
5141516866
5141519125
5141521261
5141523275
5141525594
5141527853
5141529989
5141532125
5141534017
5141536642
5141538778
5141541036
5141544149
5141546896
5141549642
5141552206
5141554403
5141556539
5141558981
5141560995
5141563253
5141565267
5141567587
5141569906
5141572042
5141574667
5141576803
5141578878
5141581014
5141583883
5141586568
5141589010
5141591085
5141593282
5141595602
5141597921
5141600179
5141602438
5141604452
5141606527
5141608724
5141610860
5141613424
5141616292
5141618490
5141620809
5141623006
5141625570
5141627767
5141630270
5141633199
5141636068
5141638448
5141640401
5141642782
5141645040
5141647359
5141649618
5141651693
5141654745
5141656820
5141658956
5141661092
5141663106
5141665487
5141667501
5141669759
5141672078
5141674093
5141676168
5141678060
5141680684
5141683065
5141686056
5141688619
5141690877
5141693868
5141695882
5141697774
5141699849
5141702169
5141704244
5141706502
5141708577
5141711019
5141713094
5141715352
5141717305
5141719747
5141722188
5141724447
5141726888
5141729024
5141731282
5141733602
5141735799
5141737630
5141739827
5141742025
5141744283
5141746480
5141748433
5141750508
5141753499
5141756368
5141760457
5141762776
5141764852
5141767293
5141769246
5141771810
5141773824
5141776021
5141778340
5141780538
5141782918
5141785054
5141787435
5141789571
5141791890
5141794576
5141797200
5141799825
5141802022
5141803975
5141806478
5141808614
5141810872
5141813130
5141815450
5141817891
5141820149
5141822957
5141825704
5141828511
5141831197
5141833821
5141835957
5141838399
5141840230
5141842305
5141844624
5141846578
5141848714
5141850728
5141852864
5141854939
5141857564
5141859761
5141862386
5141864827
5141867085
5141869344
5141871297
5141874348
5141876424
5141878621
5141880940
5141882893
5141885457
5141887837
5141890034
5141891927
5141894063
5141896748
5141899251
5141902058
5141904378
5141906392
5141908650
5141910908
5141913472
5141915791
5141918050
5141920125
5141922444
5141924519
5141926717
5141928975
5141931050
5141933186
5141936116
5141939046
5141941426
5141943440
5141945820
5141948079
5141950215
5141952778
5141954854
5141957173
5141959370
5141961323
5141963338
5141966145
5141968892
5141971455
5141974202
5141976399
5141978535
5141981099
5141983113
5141985066
5141987385
5141989460
5141992207
5141994282
5141996235
5141998494
5142000630
5142003010
5142005574
5142007710
5142010090
5142012654
5142014912
5142016987
5142019368
5142021626
5142023457
5142027180
5142029377
5142032063
5142034260
5142037007
5142039814
5142042683
5142045185
5142047444
5142049763
5142052021
5142054402
5142056721
5142058918
5142060688
5142062764
5142064778
5142067097
5142069172
5142071736
5142073872
5142076557
5142078938
5142080952
5142083393
5142085591
5142087971
5142090107
5142092121
5142094563
5142096882
5142099201
5142101216
5142103352
5142105488
5142108296
5142111103
5142113423
5142116047
5142118305
5142120197
5142122761
5142125019
5142127094
5142129231
5142131306
5142133625
5142136189
5142138935
5142140949
5142143635
5142145954
5142148884
5142151142
5142153278
5142155354
5142157673
5142159992
5142161884
5142163837
5142166035
5142168049
5142170551
5142172810
5142174946
5142177570
5142180378
5142183308
5142185993
5142188068
5142190510
5142192829
5142194782
5142197102
5142199177
5142201679
5142203754
5142205769
5142207722
5142210529
5142212543
5142214802
5142217487
5142219685
5142221821
5142223957
5142226581
5142228657
5142232380
5142234394
5142236591
5142239155
5142241474
5142243915
5142246113
5142248676
5142251484
5142253864
5142256855
5142259174
5142261066
5142263691
5142265766
5142268513
5142270588
5142272907
5142275104
5142277363
5142280170
5142282184
5142284321
5142286335
5142289203
5142291279
5142294208
5142296283
5142298481
5142300495
5142302570
5142304584
5142306537
5142308918
5142311786
5142314106
5142316059
5142318988
5142321979
5142324726
5142327228
5142330097
5142332050
5142334247
5142336505
5142339008
5142341083
5142343402
5142345539
5142347919
5142350055
5142351947
5142353962
5142356098
5142359027
5142361103
5142363361
5142365497
5142368183
5142370258
5142372333
5142374408
5142376483
5142378925
5142381000
5142383197
5142385150
5142387714
5142390644
5142393268
5142395954
5142398639
5142400653
5142402728
5142404865
5142407550
5142410907
5142412982
5142415241
5142417560
5142419696
5142421893
5142424091
5142426105
5142428790
5142430866
5142433063
5142435626
5142437702
5142439594
5142441913
5142443866
5142446124
5142448383
5142450519
5142452838
5142454913
5142457477
5142460284
5142462970
5142465106
5142467792
5142469867
5142471881
5142474017
5142476032
5142477924
5142480060
5142482196
5142484271
5142486530
5142488849
5142490985
5142492938
5142496905
5142499347
5142501788
5142503863
5142506061
5142508136
5142509906
5142512286
5142514667
5142516620
5142518512
5142521136
5142524371
5142526630
5142530109
5142532977
5142536029
5142538226
5142540729
5142542865
5142545001
5142547259
5142549823
5142552203
5142554400
5142556903
5142559100
5142561542
5142564105
5142566241
5142568988
5142571307
5142573504
5142575641
5142577716
5142579974
5142582171
5142584613
5142586688
5142588763
5142591082
5142593402
5142595782
5142599688
5142602496
5142605487
5142608050
5142610797
5142612933
5142615130
5142617144
5142619403
5142622821
5142625445
5142627642
5142629779
5142632281
5142634661
5142637164
5142639483
5142642169
5142644305
5142646197
5142648455
5142650592
5142652972
5142654925
5142656939
5142659014
5142661151
5142663226
5142665362
5142669085
5142671588
5142674395
5142677386
5142679766
5142682330
5142684344
5142686480
5142688738
5142690936
5142693438
5142695574
5142697894
5142700030
5142702044
5142704302
5142706256
5142709063
5142711138
5142713214
5142715350
5142717242
5142719439
5142721697
5142724017
5142726519
5142729022
5142731097
5142733050
5142735064
5142739092
5142742022
5142744708
5142746966
5142749224
5142751238
5142753314
5142755450
5142757525
5142759600
5142761736
5142763995
5142766131
5142768633
5142770708
5142773272
5142776629
5142779009
5142781084
5142783282
5142784991
5142786944
5142789202
5142791277
5142793291
5142795428
5142797381
5142799883
5142802203
5142804949
5142807879
5142810198
5142812823
5142814959
5142817278
5142819598
5142821795
5142824053
5142826006
5142828753
5142831011
5142832964
5142835406
5142837603
5142839617
5142844500
5142847185
5142849444
5142851275
5142853655
5142856157
5142858416
5142860552
5142862688
5142864885
5142867327
5142869463
5142871538
5142875750
5142878313
5142880938
5142883257
5142885210
5142887163
5142889422
5142891314
5142893450
5142895403
5142897539
5142899614
5142901873
5142904436
5142906633
5142909197
5142911455
5142914263
5142916643
5142918718
5142921221
5142923235
5142925310
5142927568
5142929522
5142931841
5142933916
5142936052
5142938250
