5499231588
5499241903
5499251058
5499260641
5499268880
5499276021
5499286825
5499296712
5499305501
5499314779
5499324666
5499333211
5499342977
5499351949
5499358724
5499369100
5499378377
5499387166
5499394734
5499403829
5499410787
5499418416
5499428365
5499435994
5499444051
5499453816
5499460591
5499470052
5499478475
5499485677
5499494099
5499500874
5499511678
5499515645
5499525777
5499534749
5499542622
5499549519
5499559163
5499567158
5499573994
5499580769
5499590230
5499598225
5499605244
5499612935
5499622456
5499630085
5499636982
5499647236
5499655842
5499664509
5499672749
5499681233
5499690327
5499698506
5499706257
5499714680
5499723530
5499731953
5499740925
5499748493
5499754841
5499764423
5499771381
5499780720
5499788166
5499798481
5499807758
5499816059
5499828144
5499841083
5499852558
5499863178
5499873249
5499883503
5499893513
5499904621
5499915851
5499926960
5499937092
5499946857
5499958149
5499968952
5499979145
5499988849
5500000812
5500011493
5500022296
5500031207
5500043720
5500054950
5500065143
5500075885
5500087177
5500097736
5500108478
5500120258
5500131854
5500141620
5500153705
5500165729
5500177264
5500190448
5500200580
5500213702
5500222918
5500234759
5500248065
5500258136
5500269793
5500277240
5500291705
5500300799
5500312945
5500324969
5500333941
5500345660
5500357317
5500366107
5500376910
5500388323
5500397540
5500410601
5500420122
5500432146
5500443926
5500455218
5500465899
5500477434
5500487871
5500498736
5500507647
5500519121
5500528643
5500534319
5500542559
5500549700
5500557207
5500565142
5500573320
5500581499
5500588640
5500594744
5500603227
5500613359
5500619402
5500627458
5500638262
5500645342
5500650652
5500659807
5500665422
5500674211
5500682390
5500689653
5500697771
5500705095
5500712602
5500720110
5500727006
5500735857
5500743059
5500750200
5500759660
5500766130
5500773393
5500779619
5500786760
5500794938
5500800798
5500809587
5500819658
5500827775
5500834733
5500841325
5500847917
5500854081
5500862870
5500869340
5500876115
5500883866
5500890153
5500898027
5500904252
5500912004
5500920548
5500926225
5500934037
5500940751
5500948380
5500954118
5500962724
5500971757
5500980485
5500987626
5500995866
5501003373
5501011796
5501019425
5501025895
5501035599
5501041581
5501050309
5501057694
5501063981
5501070450
5501078568
5501083939
5501093705
5501100785
5501109025
5501115860
5501122452
5501129776
5501137894
5501145035
5501151993
5501160294
5501169510
5501176285
5501182450
5501190872
5501196793
5501203751
5501211624
5501219803
5501225662
5501232193
5501239700
5501246231
5501252640
5501259659
5501265884
5501274551
5501282486
5501288773
5501297256
5501303360
5501309097
5501318375
5501324661
5501332107
5501340591
5501347244
5501357315
5501364029
5501371475
5501380203
5501387588
5501394424
5501401809
5501410232
5501417373
5501425064
5501432815
5501440933
5501447769
5501455215
5501461929
5501468460
5501477554
5501483596
5501496170
5501502334
5501511489
5501518569
5501527542
5501534927
5501543777
5501549514
5501559097
5501567580
5501575759
5501583144
5501589004
5501598525
5501604629
5501613845
5501620010
5501629287
5501635451
5501644790
5501650710
5501657058
5501665298
5501671584
5501680312
5501687942
5501696425
5501704238
5501713088
5501720961
5501731215
5501739821
5501749038
5501758193
5501765090
5501772780
5501777663
5501785353
5501791640
5501800246
5501808791
5501814223
5501824050
5501831069
5501837477
5501843642
5501851820
5501859023
5501865370
5501872450
5501878371
5501886794
5501893141
5501901564
5501909682
5501917189
5501924513
5501931776
5501938856
5501946669
5501953322
5501960219
5501968764
5501975722
5501982863
5501990980
5501998976
5502006422
5502014967
5502022352
5502026320
5502036940
5502045912
5502052076
5502059034
5502066114
5502074659
5502083143
5502089979
5502098402
5502104872
5502111769
5502118666
5502129164
5502137403
5502144361
5502152235
5502160352
5502168287
5502174451
5502182752
5502191663
5502198927
5502207899
5502216016
5502224622
5502232252
5502239698
5502248243
5502258008
5502263685
5502272230
5502281202
5502289930
5502298047
5502303357
5502310621
5502316114
5502321485
5502327832
5502335645
5502341871
5502348523
5502354383
5502359815
5502367139
5502374951
5502381055
5502388135
5502395886
5502402661
5502410169
5502417127
5502423474
5502429883
5502438184
5502444287
5502451062
5502457959
5502463452
5502469922
5502475049
5502483533
5502490002
5502497083
5502503125
5502508191
5502514661
5502520703
5502526562
5502530896
5502537793
5502544812
5502550427
5502555981
5502561474
5502568188
5502572888
5502579297
5502584607
5502591565
5502596997
5502601330
5502609570
5502614514
5502621228
5502626660
5502631726
5502639355
5502645092
5502650708
5502656384
5502661938
5502668957
5502673840
5502679211
5502685681
5502690747
5502697094
5502704296
5502710461
5502715832
5502721508
5502728222
5502733837
5502740673
5502747814
5502752575
5502759350
5502765148
5502769787
5502776745
5502781200
5502788952
5502795116
5502802990
5502809093
5502814281
5502820995
5502825085
5502833446
5502839123
5502845592
5502850841
5502857067
5502861950
5502868969
5502874523
5502880871
5502886486
5502893566
5502898082
5502903515
5502909923
5502917125
5502927684
5502934459
5502940502
5502947765
5502954662
5502960216
5502967479
5502974437
5502981151
5502986461
5502990734
5502998424
5503004527
5503010265
5503016734
5503022228
5503027171
5503033763
5503038951
5503045726
5503050792
5503057872
5503064708
5503070262
5503075572
5503082652
5503088023
5503093333
5503100963
5503107860
5503114146
5503118724
5503123607
5503131785
5503137096
5503143870
5503149180
5503156016
5503161693
5503168223
5503172679
5503178843
5503185557
5503190379
5503197215
5503203013
5503209727
5503215342
5503222300
5503227794
5503233958
5503238841
5503245311
5503250926
5503257579
5503262828
5503268626
5503275340
5503280894
5503286448
5503292308
5503299021
5503304087
5503310374
5503315745
5503326487
5503332408
5503338145
5503345713
5503350535
5503357005
5503363596
5503370249
5503375864
5503382883
5503388499
5503394785
5503400462
5503406504
5503412791
5503418711
5503425425
5503431284
5503437937
5503443247
5503448252
5503455454
5503459788
5503465891
5503471995
5503477610
5503483103
5503490671
5503496164
5503503733
5503509409
5503518198
5503524485
5503530344
5503535654
5503542978
5503548960
5503556467
5503564829
5503573191
5503580088
5503588755
5503597788
5503605600
5503614267
5503622446
5503630747
5503640024
5503646372
5503658151
5503668283
5503677744
5503683725
5503689401
5503695383
5503701120
5503707162
5503713571
5503722238
5503728281
5503734689
5503740182
5503746103
5503751535
5503757883
5503763803
5503769906
5503775827
5503781076
5503786996
5503791818
5503797128
5503802560
5503809762
5503815316
5503821847
5503827829
5503832101
5503838815
5503845956
5503851571
5503857492
5503862741
5503868478
5503873849
5503879098
5503886117
5503896371
5503904611
5503910592
5503914742
5503923959
5503930123
5503935738
5503941049
5503949471
5503953988
5503959359
5503966988
5503973397
5503978707
5503983956
5503991647
5503996651
5504002145
5504007333
5504013863
5504018502
5504025155
5504030038
5504036996
5504042428
5504049264
5504056466
5504062874
5504068062
5504072701
5504078438
5504087166
5504094124
5504101326
5504107796
5504113045
5504120614
5504129708
5504134774
5504140633
5504147286
5504153267
5504157357
5504164620
5504168892
5504174019
5504179512
5504184944
5504191048
5504196968
5504203133
5504208931
5504214791
5504219490
5504225289
5504230171
5504235359
5504242012
5504248055
5504254158
5504259285
5504263802
5504269417
5504275826
5504281013
5504285896
5504291573
5504296394
5504303230
5504308052
5504315193
5504320747
5504327156
5504331428
5504337715
5504342476
5504347236
5504354683
5504360054
5504365364
5504370796
5504377998
5504383003
5504388557
5504394172
5504399299
5504403694
5504409919
5504414802
5504421394
5504426948
5504432319
5504437873
5504444709
5504450141
5504455207
5504461189
5504468818
5504474067
5504479438
5504484626
5504490119
5504495429
5504500190
5504506294
5504511848
5504518989
5504524787
5504529609
5504534675
5504540534
5504545112
5504552802
5504558784
5504563606
5504569343
5504576667
5504582709
5504588935
5504594733
5504600532
5504605781
5504611762
5504616950
5504626533
5504637519
5504643500
5504650214
5504656013
5504662299
5504669867
5504677314
5504682563
5504687323
5504693549
5504698188
5504705207
5504711005
5504717658
5504722480
5504729193
5504734198
5504739753
5504745063
5504752082
5504758490
5504765387
5504769782
5504775519
5504779730
5504786078
5504792243
5504797370
5504802680
5504809149
5504813422
5504819525
5504824042
5504829962
5504834662
5504839362
5504844672
5504852545
5504857733
5504862799
5504870917
5504875739
5504880804
5504886786
5504893866
5504899054
5504904059
5504909369
5504914496
5504918768
5504925177
5504930121
5504936957
5504944708
5504950506
5504956366
5504963385
5504969549
5504975226
5504982061
5504987982
5504993414
5504999395
5505005438
5505011419
5505016974
5505022772
5505028692
5505034552
5505042791
5505048162
5505052984
5505058111
5505064825
5505070501
5505076361
5505081182
5505085943
5505092718
5505097662
5505103948
5505109319
5505115362
5505121404
5505127935
5505133611
5505139410
5505144476
5505148626
5505155096
5505164983
5505172186
5505177923
5505186224
5505192937
5505201787
5505209356
5505219915
5505226934
5505232244
5505236883
5505243596
5505249822
5505255498
5505260808
5505265935
5505271734
5505276494
5505282049
5505289312
5505294561
5505300969
5505305852
5505312383
5505318425
5505324285
5505330693
5505336675
5505343328
5505349614
5505355535
5505360845
5505367375
5505374456
5505380864
5505385076
5505391362
5505397954
5505404057
5505410649
5505417363
5505422429
5505427190
5505432683
5505437688
5505443547
5505450444
5505456914
5505462651
5505467656
5505473149
5505478398
5505483708
5505489323
5505495732
5505501408
5505507451
5505512028
5505518620
5505523747
5505529179
5505533879
5505538396
5505544804
5505551152
5505555852
5505563054
5505568974
5505574589
5505580327
5505587346
5505593632
5505598332
5505603825
5505608525
5505613713
5505620182
5505625187
5505631474
5505643498
5505650334
5505656925
5505665837
5505674504
5505681339
5505687565
5505693608
5505698673
5505704838
5505713505
5505720646
5505727970
5505733769
5505739506
5505746647
5505753300
5505759098
5505765629
5505772221
5505777653
5505781620
5505787479
5505794132
5505798466
5505803837
5505809513
5505817203
5505823185
5505831913
5505838016
5505843509
5505850590
5505855289
5505861454
5505866581
5505873356
5505878849
5505883671
5505890873
5505896915
5505902042
5505906681
5505911686
5505916996
5505922184
5505927066
5505933597
5505938846
5505943607
5505949588
5505954532
5505960269
5505966861
5505971866
5505979373
5505984561
5505989200
5505997928
5506002811
5506008182
5506013065
5506019290
5506023624
5506029971
5506035709
5506042362
5506047549
5506054324
5506060672
5506066837
5506072269
5506078128
5506083926
5506090091
5506096133
5506103213
5506108768
5506114566
5506119449
5506125613
5506129886
5506137088
5506142703
5506148013
5506153933
5506159732
5506165286
5506171328
5506176639
5506183597
5506188907
5506194400
5506200503
5506205386
5506211001
5506217715
5506221804
5506229129
5506234805
5506242800
5506251406
5506258059
5506267642
5506274600
5506283023
5506290591
5506300112
5506306765
5506312075
5506319155
5506325198
5506330752
5506335940
5506341494
5506346865
5506355654
5506361269
5506367678
5506372500
5506379336
5506385134
5506390017
5506394961
5506401675
5506408999
5506413515
5506421511
5506426943
5506433962
5506439944
5506446657
5506452273
5506458498
5506463869
5506469607
5506476626
5506481752
5506488222
5506493410
5506500429
5506505190
5506510927
5506517702
5506522341
5506528933
5506534304
5506540041
5506546022
5506552553
5506557680
5506562258
5506567446
5506573183
5506580812
5506587404
5506592531
5506597353
5506602297
5506607057
5506613161
5506619142
5506624941
5506631593
5506636720
5506642091
5506647768
5506651979
5506658510
5506663515
5506668581
5506673891
5506680299
5506685487
5506690309
5506695619
5506701234
5506708253
5506713808
5506718996
5506723329
5506729555
5506734437
5506740419
5506745607
5506751405
5506759462
5506765504
5506773012
5506777284
5506783754
5506791078
5506796571
5506805238
5506813722
5506819764
5506826295
5506832215
5506839845
5506845826
5506851991
5506857667
5506863465
5506869386
5506875245
5506882447
5506887818
5506892701
5506900269
5506906556
5506912538
5506918763
5506924561
5506930177
5506935304
5506941163
5506946595
5506952699
5506959290
5506964906
5506972169
5506977906
5506982484
5506988160
5506992188
5506999512
5507004639
5507011109
5507015870
5507022889
5507027405
5507033936
5507039063
5507043824
5507049195
5507054932
5507061585
5507068177
5507073182
5507078187
5507083436
5507088929
5507094544
5507100464
5507107605
5507112854
5507118592
5507123658
5507130066
5507135254
5507140869
5507146241
5507151245
5507158753
5507163574
5507168946
5507175171
5507182434
5507188355
5507194031
5507198609
5507203919
5507209290
5507214356
5507220032
5507225342
5507230591
5507237732
5507242615
5507250061
5507255859
5507262451
5507267273
5507272156
5507278076
5507283142
5507288940
5507294006
5507299927
5507306396
5507311828
5507318725
5507328552
5507337097
5507345520
5507355285
5507362426
5507373718
5507379028
5507384460
5507391113
5507397766
5507402404
5507407653
5507413513
5507418945
5507424804
5507430786
5507436401
5507444152
5507449218
5507455261
5507459960
5507465148
5507471313
5507479247
5507482910
5507488586
5507494567
5507499572
5507506652
5507513732
5507519836
5507525817
5507532653
5507536803
5507543761
5507549621
5507555175
5507561217
5507568114
5507573302
5507579467
5507583678
5507589538
5507598510
5507603149
5507608337
5507614318
5507619384
5507624694
5507631957
5507637328
5507644042
5507648498
5507654845
5507659423
5507665893
5507670531
5507676818
5507682067
5507686339
5507692992
5507697142
5507705138
5507710570
5507717528
5507721801
5507728820
5507734130
5507738829
5507744384
5507749572
5507754454
5507760985
5507766356
5507773314
5507777892
5507785094
5507790709
5507797484
5507803038
5507808287
5507814147
5507820738
5507826292
5507831786
5507837218
5507843871
5507849242
5507854430
5507861632
5507867308
5507876463
5507884093
5507889464
5507894713
5507904295
5507910277
5507916746
5507923216
5507928831
5507935362
5507942076
5507947325
5507953856
5507958128
5507963987
5507970518
5507976378
5507981749
5507987120
5507992186
5507997740
5508002928
5508007933
5508015013
5508020384
5508025145
5508030333
5508035215
5508040525
5508047178
5508052488
5508062193
5508068907
5508073423
5508080503
5508084837
5508090940
5508095518
5508102232
5508108640
5508114195
5508119627
5508125120
5508130186
5508135130
5508142637
5508146726
5508152830
5508157468
5508164304
5508171201
5508175962
5508180906
5508187803
5508193601
5508199155
5508203428
5508209836
5508214109
5508219114
5508225889
5508230710
5508235898
5508241269
5508248044
5508253537
5508257688
5508266172
5508271482
5508277890
5508283872
5508289670
5508295163
5508301206
5508307370
5508313230
5508318418
5508324582
5508328977
5508335935
5508342221
5508348386
5508353513
5508358762
5508364682
5508371396
5508375852
5508382749
5508387265
5508393613
5508400388
5508406735
5508414121
5508420346
5508428098
5508434018
5508441525
5508447202
5508454648
5508459286
5508466244
5508470517
5508477475
5508483700
5508489682
5508495480
5508500546
5508506650
5508512265
5508516781
5508523190
5508527768
5508534848
5508539609
5508544980
5508551144
5508558285
5508563839
5508571469
5508577633
5508581418
5508587704
5508594235
5508599789
5508605709
5508612851
5508618893
5508624142
5508630246
5508636227
5508641903
5508647274
5508653988
5508658322
5508664852
5508670407
5508677120
5508682247
5508688107
5508694210
5508699276
5508705196
5508710323
5508716366
5508720211
5508726437
5508732906
5508737423
5508744198
5508749264
5508754452
5508759823
5508765743
5508770870
5508777340
5508782772
5508789303
5508794247
5508799984
5508805965
5508811642
5508818294
5508824642
5508829037
5508836178
5508840999
5508849117
5508856624
5508861629
5508867000
5508873958
5508880123
5508884395
5508892391
5508899044
5508903682
5508910030
5508915706
5508921382
5508927364
5508937129
5508944637
5508950740
5508956294
5508962154
5508970394
5508975765
5508981136
5508986080
5508993831
5508998164
5509004817
5509010616
5509015987
5509022151
5509028194
5509032893
5509039485
5509044307
5509050105
5509056026
5509062312
5509067378
5509072993
5509079524
5509085139
5509091243
5509096248
5509102962
5509109370
5509114131
5509120296
5509125361
5509130244
5509136409
5509142146
5509148921
5509153193
5509160029
5509166194
5509171077
5509176692
5509182307
5509187556
5509193721
5509198848
5509203913
5509210566
5509216975
5509222041
5509228389
5509235285
5509240473
5509244868
5509250788
5509256220
5509261531
5509268000
5509274958
5509279414
5509285761
5509291987
5509296748
5509304377
5509310175
5509314936
5509321223
5509324946
5509332209
5509337336
5509344172
5509350520
5509356806
5509362849
5509367731
5509373652
5509379938
5509385310
5509390497
5509396296
5509400995
5509405573
5509413141
5509418513
5509423395
5509429804
5509435358
5509442194
5509447504
5509454828
5509462641
5509467951
5509473871
5509479670
5509487726
5509492853
5509497431
5509503046
5509509333
5509515009
5509521051
5509527216
5509531732
5509537348
5509544184
5509551081
5509556391
5509561457
5509569147
5509574579
5509580560
5509586481
5509593317
5509598016
5509603815
5509609003
5509616083
5509622736
5509626032
5509632623
5509639337
5509645319
5509650446
5509656000
5509662042
5509669122
5509673822
5509680475
5509685968
5509692010
5509696527
5509701410
5509709100
5509716485
5509721856
5509727533
5509732293
5509738153
5509744378
5509750177
5509755914
5509760797
5509767083
5509772210
5509778009
5509783319
5509789178
5509794610
5509801202
5509806085
5509811517
5509816644
5509823114
5509829644
5509835809
5509840875
5509846673
5509852044
5509857842
5509864678
5509870538
5509875726
5509880120
5509886346
5509892877
5509899590
5509904229
5509911309
5509916436
5509921502
5509926934
5509932732
5509940240
5509946465
5509951409
5509958672
5509963555
5509972649
5509978142
5509985650
5509991021
5509997002
5510002007
5510008416
5510014397
5510019829
5510025323
5510031670
5510036736
5510042779
5510048638
5510054986
5510059563
5510064202
5510070794
5510075737
5510082451
5510089470
5510094902
5510099968
5510104607
5510111748
5510117791
5510122002
5510130120
5510135735
5510141167
5510147331
5510153923
5510160393
5510166985
5510173515
5510178032
5510185417
5510191399
5510198845
5510203972
5510209648
5510215447
5510221123
5510227898
5510235161
5510240410
5510246574
5510251579
5510257500
5510264091
5510270927
5510276787
5510282585
5510288078
5510294731
5510301201
5510307609
5510312980
5510317253
5510322807
5510328972
5510334648
5510340996
5510346550
5510351616
5510359123
5510365898
5510371330
5510378471
5510384025
5510389885
5510395073
5510400749
5510405632
5510412345
5510419914
5510426078
5510434013
5510440727
5510449821
5510460319
5510467704
5510473503
5510480155
5510487418
5510493644
5510499931
5510504813
5510511466
5510517997
5510524528
5510530936
5510536308
5510543204
5510548881
5510554496
5510559623
5510566276
5510572623
5510579642
5510585563
5510591849
5510597465
5510604484
5510609916
5510615165
5510622184
5510627555
5510633658
5510638785
5510644034
5510649283
5510656485
5510662406
5510667106
5510673941
5510679801
5510685599
5510691031
5510696402
5510701041
5510706046
5510711478
5510716666
5510722586
5510728751
5510734366
5510741019
5510746817
5510752066
5510758170
5510764578
5510769950
5510774466
5510781241
5510786917
5510791983
5510797598
5510802786
5510807669
5510813345
5510819632
5510825308
5510830679
5510837271
5510842276
5510846915
5510851004
5510858145
5510862234
5510868338
5510873465
5510878470
5510884329
5510890249
5510896780
5510902334
5510907706
5510912771
5510917898
5510922781
5510929068
5510933890
5510940054
5510944998
5510952383
5510957876
5510964407
5510968679
5510976675
5510984304
5510992178
5511000235
5511008413
5511014944
5511022940
5511030325
5511035208
5511040762
5511047842
5511053457
5511058035
5511064443
5511069937
5511076223
5511083608
5511088735
5511093801
5511098989
5511105032
5511110708
5511116933
5511122976
5511129202
5511134023
5511139761
5511144521
5511150014
5511156972
5511162954
5511167898
5511173879
5511178823
5511186513
5511191091
5511198354
5511203237
5511209829
5511215627
5511221181
5511226674
5511232595
5511239187
5511244985
5511251027
5511255666
5511260061
5511265798
5511270498
5511276540
5511283681
5511289052
5511294118
5511299672
5511305715
5511312001
5511317617
5511322744
5511328786
5511333180
5511339345
5511343862
5511350209
5511355214
5511360463
5511367238
5511372792
5511377980
5511384633
5511389760
5511395924
5511401784
5511408315
5511414418
5511420033
5511425404
5511429677
5511434743
5511440358
5511445546
5511451283
5511457875
5511464223
5511469472
5511475636
5511481740
5511485585
5511491566
5511497182
5511504262
5511509450
5511516102
5511523243
5511528676
5511539967
5511545826
5511555470
5511564564
5511570973
5511577748
5511582997
5511589161
5511595509
5511600453
5511606312
5511610585
5511616932
5511623402
5511629627
5511635914
5511641285
5511645436
5511651600
5511655812
5511662220
5511668812
5511675648
5511681202
5511689015
5511694447
5511698719
5511705616
5511711109
5511718617
5511725819
5511730640
5511736744
5511741627
5511747425
5511753712
5511759388
5511765125
5511771290
5511778004
5511784595
5511789600
5511794910
5511801502
5511807789
5511813953
5511820789
5511825916
5511831531
5511837208
5511844410
5511850208
5511857227
5511861988
5511868152
5511874317
5511880359
5511885852
5511891956
5511897876
5511904041
5511909412
5511916004
5511921314
5511927417
5511932727
5511939441
5511944507
5511949817
5511956531
5511961963
5511968555
5511974414
5511979907
5511988696
5511993640
5512002002
5512007922
5512013660
5512020129
5512025867
5512031238
5512038501
5512044360
5512050525
5512056018
5512061084
5512067493
5512075671
5512081592
5512090198
5512097766
5512103198
5512110766
5512117541
5512124255
5512130786
5512138781
5512144153
5512149890
5512156237
5512160449
5512167163
5512173388
5512179309
5512184741
5512192981
5512200366
5512207629
5512218310
5512226733
5512236132
5512241076
5512249926
5512258288
5512264453
5512272326
5512277575
5512285082
5512289599
5512296984
5512303881
5512309496
5512315539
5512320910
5512326220
5512332995
5512337756
5512344653
5512349657
5512357287
5512363024
5512367846
5512374071
5512381335
5512387072
5512391833
5512399462
5512402819
5512411120
5512415758
5512422167
5512426684
5512434130
5512440477
5512445360
5512451220
5512455919
5512461046
5512466356
5512475023
5512480150
5512485277
5512490892
5512496630
5512502184
5512507616
5512513048
5512518785
5512523912
5512531298
5512537096
5512543077
5512546678
5512553026
5512557970
5512565294
5512571275
5512577501
5512583238
5512589159
5512594225
5512599657
5512604662
5512610521
5512615404
5512622179
5512627733
5512633836
5512640306
5512645494
5512649583
5512656908
5512662950
5512670701
5512675767
5512683946
5512689989
5512696885
5512701463
5512708238
5512712999
5512719163
5512726304
5512731309
5512736253
5512742173
5512747422
5512752366
5512758104
5512764817
5512771287
5512777513
5512782273
5512787278
5512793565
5512798814
5512803270
5512808763
5512815721
5512824510
5512830369
5512837205
5512842942
5512849351
5512856187
5512862534
5512868089
5512874070
5512879929
5512885117
5512890855
5512896531
5512903062
5512908494
5512913987
5512920274
5512924363
5512930894
5512937363
5512943589
5512947800
5512954148
5512960435
5512964341
5512971116
5512976304
5512981919
5512987961
5512994431
5513000168
5513006211
5513011948
5513016587
5513021470
5513029526
5513034653
5513040024
5513045029
5513051133
5513056504
5513062485
5513070176
5513075119
5513081040
5513086777
5513091294
5513096482
5513102219
5513108567
5513114365
5513119797
5513125412
5513131943
5513135910
5513141953
5513146225
5513153000
5513158981
5513164658
5513170517
5513174423
5513181320
5513185654
5513193832
5513203293
5513212021
5513222153
5513227158
5513234360
5513241074
5513247360
5513253342
5513257309
5513262924
5513267013
5513276474
5513282028
5513288803
5513294113
5513301071
5513305893
5513313339
5513319504
5513324875
5513334274
5513339401
5513346298
5513351608
5513357345
5513361923
5513369064
5513376022
5513381454
5513386947
5513392379
5513397384
5513403427
5513409286
5513413864
5513420028
5513426010
5513431137
5513436508
5513442306
5513448104
5513452560
5513459884
5513462936
5513474471
5513481124
5513487289
5513492355
5513498885
5513503768
5513509872
5513514327
5513521407
5513525802
5513532455
5513538497
5513543990
5513550826
5513556197
5513561874
5513567855
5513572616
5513578109
5513588363
5513593734
5513597762
5513604842
5513610824
5513617110
5513622542
5513628158
5513635116
5513640365
5513645491
5513651290
5513656051
5513662276
5513669417
5513673507
5513679915
5513686690
5513692733
5513699141
5513704512
5513709212
5513715926
5513721724
5513727461
5513734053
5513739668
5513747908
5513753096
5513759139
5513766829
5513773421
5513778426
5513785323
5513791731
5513796980
5513803267
5513809554
5513815169
5513821089
5513826582
5513832198
5513837263
5513843550
5513851363
5513856489
5513862532
5513868452
5513874556
5513881026
5513886214
5513892378
5513898604
5513904768
5513909163
5513914778
5513919233
5513924971
5513931624
5513937666
5513944319
5513949690
5513954634
5513959822
5513964766
5513970930
5513978193
5513982588
5513988386
5513993757
5513999983
5514005354
5514011579
5514017012
5514022810
5514030012
5514035810
5514042036
5514046980
5514051985
5514058393
5514063215
5514069074
5514075666
5514082319
5514087629
5514092512
5514098676
5514104414
5514109968
5514116010
5514121076
5514126875
5514131208
5514137311
5514142744
5514151533
5514160139
5514165571
5514172529
5514178266
5514183149
5514191450
5514197187
5514202314
5514207563
5514212812
5514218732
5514224592
5514229474
5514237043
5514242414
5514247113
5514252607
5514259076
5514264203
5514268232
5514274823
5514282636
5514290692
5514296002
5514303815
5514309735
5514316632
5514322003
5514328961
5514335614
5514341596
5514346845
5514352460
5514357648
5514363324
5514368817
5514375226
5514382001
5514387677
5514393109
5514397626
5514403790
5514411298
5514416302
5514423260
5514427960
5514432965
5514438702
5514444012
5514449750
5514456647
5514462933
5514468304
5514475079
5514480694
5514486310
5514492657
5514498822
5514504376
5514510174
5514516644
5514522625
5514528546
5514533856
5514538372
5514543866
5514549603
5514556866
5514562176
5514568646
5514572857
5514579266
5514586468
5514590985
5514596722
5514602276
5514607464
5514612896
5514619793
5514624920
5514633404
5514638531
5514645001
5514649029
5514654949
5514661358
5514666302
5514672711
5514680828
5514686016
5514692059
5514698833
5514703716
5514709637
5514714519
5514720867
5514727764
5514732708
5514739849
5514745037
5514750164
5514755413
5514763836
5514769817
5514774700
5514781109
5514786724
5514792766
5514797710
5514803203
5514809673
5514815044
5514821148
5514827190
5514833477
5514840862
5514846294
5514854900
5514860088
5514865215
5514873149
5514879741
5514885662
5514892253
5514898601
5514903911
5514909893
5514916423
5514922893
5514927104
5514932903
5514937724
5514944133
5514950969
5514956401
5514962138
5514968242
5514973186
5514978313
5514985271
5514990825
5514997417
5515002544
5515007060
5515013652
5515017863
5515024272
5515028911
5515036235
5515042094
5515047099
5515053081
5515058330
5515062907
5515071147
5515076762
5515082194
5515088542
5515093181
5515098796
5515105327
5515111857
5515116130
5515122111
5515128459
5515134440
5515141093
5515146769
5515152690
5515157817
5515162333
5515168803
5515173991
5515180766
5515186259
5515191813
5515198222
5515203654
5515209941
5515217021
5515222148
5515227458
5515232585
5515238444
5515244242
5515250468
5515255778
5515260661
5515267008
5515272379
5515277873
5515284525
5515290080
5515295939
5515301920
5515307597
5515312907
5515317973
5515322855
5515330302
5515335612
5515341593
5515346537
5515353251
5515357584
5515364298
5515369364
5515376871
5515383707
5515389506
5515395853
5515402750
5515409342
5515415079
5515422648
5515428690
5515435160
5515441874
5515446817
5515453104
5515458841
5515463907
5515470987
5515476786
5515482462
5515487467
5515492166
5515500955
5515506754
5515513162
5515517801
5515524942
5515530557
5515534769
5515541666
5515545938
5515553446
5515558145
5515564676
5515569986
5515575540
5515582315
5515587808
5515595743
5515601236
5515606912
5515612466
5515618509
5515623697
5515629190
5515635538
5515642251
5515647501
5515654275
5515660257
5515665201
5515670328
5515676858
5515682290
5515687478
5515693277
5515700174
5515706155
5515712076
5515717569
5515722879
5515728250
5515733377
5515739297
5515743875
5515749978
5515755166
5515761819
5515770425
5515775735
5515782022
5515786904
5515793374
5515798074
5515805154
5515810952
5515815591
5515820230
5515826394
5515831277
5515837380
5515842568
5515848062
5515854592
5515861245
5515866555
5515872353
5515877053
5515882485
5515889077
5515895974
5515901528
5515907082
5515914468
5515919961
5515926430
5515932778
5515939736
5515946206
5515953530
5515959145
5515967141
5515971291
5515979165
5515985879
5515993569
5515998879
5516005959
5516011452
5516018166
5516023659
5516029763
5516034646
5516041176
5516047036
5516051308
5516057595
5516062783
5516067971
5516073037
5516080483
5516085121
5516092018
5516097084
5516103615
5516108864
5516115212
5516121071
5516126076
5516131386
5516138405
5516144081
5516149819
5516154945
5516160133
5516166237
5516172585
5516178261
5516183998
5516189247
5516193886
5516200111
5516205544
5516211098
5516216896
5516223488
5516229103
5516234108
5516239662
5516246193
5516251076
5516257851
5516263405
5516269691
5516274879
5516280189
5516285377
5516291115
5516297218
5516302406
5516309242
5516314613
5516319557
5516324745
5516330543
5516335914
5516341041
5516348121
5516354408
5516359535
5516364723
5516371742
5516377479
5516383216
5516387733
5516392860
5516398536
5516403785
5516409217
5516416175
5516422523
5516427650
5516432777
5516438941
5516444373
5516448646
5516455909
5516461707
5516467872
5516474159
5516479896
5516485755
5516493507
5516499305
5516506690
5516511939
5516518714
5516525916
5516530128
5516536475
5516542884
5516548560
5516554114
5516561194
5516565833
5516571448
5516577064
5516582435
5516588782
5516593848
5516599402
5516606238
5516611670
5516616797
5516623450
5516627539
5516634864
5516639075
5516646521
5516652381
5516657874
5516662146
5516668433
5516672950
5516679846
5516685645
5516690345
5516695349
5516700476
5516706702
5516714026
5516719580
5516725684
5516731421
5516738074
5516743933
5516749121
5516754736
5516760046
5516766333
5516771277
5516777991
5516783362
5516789709
5516794775
5516799719
5516806799
5516811072
5516820166
5516825964
5516831396
5516837134
5516842444
5516848425
5516855444
5516859656
5516866614
5516871679
5516877966
5516884741
5516888891
5516894201
5516901709
5516907446
5516913733
5516918676
5516923620
5516929846
5516935217
5516940100
5516946081
5516952429
5516957617
5516964270
5516969519
5516975439
5516981542
5516987280
5516994177
5516998388
5517004675
5517010351
5517015234
5517021826
5517028662
5517034033
5517041540
5517047277
5517053930
5517059240
5517065221
5517071935
5517077123
5517084081
5517089147
5517093847
5517100439
5517105749
5517112279
5517117651
5517124670
5517128820
5517135229
5517141759
5517147558
5517152563
5517158849
5517163793
5517172155
5517176671
5517184789
5517190282
5517196630
5517201818
5517207921
5517213659
5517218358
5517224767
5517228978
5517235509
5517239660
5517246434
5517252843
5517258031
5517263341
5517269384
5517274449
5517279210
5517284154
5517290196
5517296849
5517303441
5517308507
5517313573
5517318822
5517325292
5517331090
5517336827
5517342748
5517347875
5517354222
5517358556
5517364964
5517370213
5517375340
5517381322
5517388097
5517394566
5517399144
5517404027
5517411290
5517417149
5517423009
5517430760
5517435094
5517441319
5517446446
5517453099
5517458653
5517463170
5517469273
5517474095
5517481785
5517487217
5517492161
5517497532
5517502537
5517507786
5517514561
5517519383
5517526829
5517532872
5517537327
5517542881
5517547459
5517552952
5517559605
5517567051
5517572972
5517578770
5517585179
5517592686
5517597142
5517605259
5517609715
5517617832
5517622044
5517627964
5517634190
5517640354
5517646458
5517652500
5517657871
5517664097
5517669956
5517676365
5517681492
5517687046
5517693333
5517698521
5517703648
5517711216
5517715794
5517722019
5517728367
5517734959
5517740879
5517746006
5517750950
5517756077
5517760898
5517766269
5517771885
5517778171
5517787082
5517792026
5517799289
5517805759
5517811130
5517816013
5517822727
5517827427
5517833469
5517839817
5517844944
5517850620
5517856479
5517861728
5517867038
5517872592
5517879611
5517886264
5517892063
5517897190
5517902072
5517908359
5517913608
5517919223
5517925632
5517931247
5517936923
5517944003
5517951083
5517956516
5517962375
5517967319
5517972507
5517978244
5517982883
5517989047
5517994540
5517998996
5518006564
5518013644
5518019321
5518024081
5518029391
5518034762
5518041232
5518045383
5518051608
5518055514
5518062045
5518066501
5518072909
5518078769
5518084323
5518091525
5518096103
5518102389
5518110446
5518117465
5518125644
5518132479
5518138888
5518146640
5518151889
5518158236
5518164706
5518170809
5518176364
5518181979
5518188082
5518193514
5518199008
5518204135
5518208590
5518216158
5518221713
5518228365
5518233859
5518238863
5518244540
5518249178
5518257113
5518262301
5518267611
5518273653
5518278841
5518284213
5518289523
5518294161
5518300326
5518306673
5518312350
5518318819
5518323885
5518329500
5518334383
5518340487
5518347323
5518352694
5518357455
5518365999
5518371737
5518377047
5518381685
5518387118
5518392244
5518399325
5518404512
5518411287
5518417086
5518422030
5518426912
5518433382
5518438082
5518444307
5518449190
5518454134
5518462007
5518467501
5518473482
5518479158
5518484285
5518488619
5518495088
5518500215
5518505159
5518512117
5518517732
5518523103
5518529512
5518535310
5518539461
5518544710
5518551485
5518557100
5518562715
5518568391
5518574190
5518580110
5518585786
5518591341
5518598787
5518604158
5518610384
5518616121
5518621614
5518626802
5518632478
5518639253
5518644441
5518649507
5518657197
5518662324
5518668428
5518674653
5518682771
5518689241
5518694185
5518700410
5518705659
5518711396
5518717866
5518723420
5518730378
5518736482
5518741304
5518746553
5518752473
5518757600
5518763215
5518768830
5518774568
5518780488
5518787202
5518792390
5518797639
5518803742
5518807954
5518813874
5518820039
5518824677
5518830598
5518838532
5518844087
5518848908
5518854279
5518859589
5518865022
5518871125
5518876374
5518880952
5518887360
5518892121
5518896943
5518903291
5518910248
5518915498
5518919648
5518925629
5518932404
5518938141
5518943940
5518949494
5518955353
5518960480
5518967072
5518972504
5518978303
5518983246
5518988801
5518995331
5518999970
5519006379
5519011567
5519018036
5519023041
5519027253
5519035920
5519041718
5519047028
5519052643
5519057343
5519062897
5519067780
5519073456
5519080353
5519085419
5519090302
5519096161
5519102814
5519110016
5519113190
5519120758
5519125031
5519132599
5519137482
5519142792
5519149017
5519154938
5519161774
5519166901
5519172089
5519178986
5519185272
5519189972
5519196259
5519204254
5519210541
5519217987
5519224457
5519231048
5519238434
5519243316
5519250824
5519257110
5519263336
5519269317
5519275543
5519281219
5519286407
5519292022
5519297088
5519304351
5519310089
5519315277
5519321685
5519326568
5519331878
5519336944
5519343048
5519348602
5519353424
5519357879
5519362274
5519366546
5519371612
5519376129
5519381500
5519385345
5519388763
5519394378
5519399200
5519403167
5519405120
5519412628
5519416473
5519420684
5519424896
5519428497
5519432647
5519436126
5519440154
5519444976
5519449737
5519453704
5519457366
5519461517
5519465301
5519469695
5519474395
5519478973
5519483245
5519487518
5519492095
5519496368
5519500579
5519503997
5519510528
5519514495
5519519988
5519524383
5519528533
5519533355
5519537566
5519543365
5519547332
5519552032
5519556304
5519560943
5519565215
5519571380
5519575042
5519582244
5519585662
5519592070
5519596953
5519601653
5519606780
5519611541
5519615264
5519622283
5519627532
5519636077
5519642119
5519647612
5519652251
5519656035
5519663604
5519668791
5519675261
5519680449
5519686125
5519691313
5519697600
5519702849
5519708464
5519713408
5519718840
5519723479
5519729277
5519732756
5519738188
5519743010
5519747588
5519753203
5519757292
5519762663
5519766325
5519771696
5519775175
5519780302
5519785612
5519789641
5519793730
5519799467
5519803923
5519808073
5519815337
5519819060
5519824736
5519829314
5519833769
5519838652
5519843168
5519847075
5519854155
5519857817
5519861845
5519865324
5519870268
5519874540
5519878264
5519881926
5519887541
5519891935
5519897612
5519901884
5519907866
5519912321
5519916899
5519921598
5519927763
5519932524
5519936857
5519941496
5519947111
5519951078
5519956999
5519961698
5519968229
5519971525
5519975492
5519980253
5519985807
5519991178
5519995939
5520001005
5520007536
5520010710
5520016874
5520021940
5520027067
5520032743
5520037077
5520041959
5520046903
5520051908
5520056486
5520060758
5520068143
5520073270
5520077787
5520082365
5520088834
5520093412
5520098173
5520102750
5520108121
5520113676
5520118314
5520124601
5520131864
5520138151
5520144010
5520148466
5520154020
5520157316
5520163968
5520169767
5520175199
5520183561
5520187833
5520194486
5520201139
5520206571
5520212796
5520218534
5520225248
5520229276
5520235318
5520239347
5520244657
5520249662
5520256559
5520261685
5520267728
5520272916
5520278897
5520283963
5520290494
5520295804
5520301053
5520307523
5520312894
5520320706
5520326444
5520331510
5520335721
5520341153
5520346951
5520352200
5520355985
5520363431
5520368558
5520374112
5520379666
5520385525
5520391385
5520396878
5520402798
5520410001
5520413296
5520420071
5520426175
5520432278
5520436673
5520442898
5520447415
5520454068
5520462491
5520467434
5520473965
5520478787
5520485745
5520489712
5520495327
5520500027
5520507840
5520513760
5520519925
5520525662
5520531094
5520536587
5520540737
5520545193
5520554592
5520559719
5520565701
5520571072
5520577114
5520582485
5520589749
5520594204
5520600918
5520605801
5520611538
5520618435
5520623196
5520628262
5520634060
5520639614
5520646450
5520652248
5520658291
5520663845
5520670132
5520676174
5520682705
5520688930
5520695156
5520701626
5520707729
5520714321
5520720486
5520726467
5520731533
5520737758
5520743557
5520750881
5520757534
5520765102
5520771633
5520778286
5520784877
5520791897
5520799404
5520805263
5520811123
5520820095
5520825893
5520831508
5520838100
5520843532
5520849453
5520854335
5520860012
5520865810
5520871486
5520876735
5520882289
5520887477
5520892848
5520898036
5520903652
5520908656
5520912929
5520918178
5520922817
5520928371
5520934963
5520939662
5520944545
5520949977
5520956630
5520962672
5520968471
5520975185
5520981532
5520988795
5520994350
5520999721
5521006251
5521012172
5521015651
5521021876
5521027064
5521031764
5521037196
5521042811
5521048732
5521055690
5521061610
5521067714
5521075770
5521081324
5521085414
5521092555
5521096827
5521103236
5521108973
5521113429
5521120631
5521126673
5521131129
5521139369
5521144496
5521150599
5521157252
5521163111
5521168788
5521174891
5521178980
5521186488
5521190760
5521196986
5521203394
5521207972
5521213160
5521219264
5521224513
5521230433
5521235987
5521242091
5521248255
5521253748
5521258509
5521264918
5521271082
5521277186
5521281092
5521287073
5521293299
5521297205
5521304102
5521311182
5521315882
5521322657
5521327845
5521333277
5521338526
5521346277
5521352564
5521364649
5521370325
5521379480
5521385645
5521391077
5521396692
5521402735
5521408716
5521414454
5521419886
5521425684
5521430750
5521435999
5521440760
5521446985
5521452845
5521459192
5521464197
5521470484
5521476892
5521480676
5521488367
5521492273
5521498865
5521504724
5521510462
5521516687
5521522608
5521528711
5521534021
5521539697
5521545618
5521551294
5521557214
5521562280
5521571863
5521578577
5521586389
5521590967
5521597559
5521604517
5521610681
5521614343
5521622461
5521627405
5521634424
5521640100
5521645837
5521652856
5521658716
5521665002
5521672265
5521677759
5521682946
5521689172
5521695459
5521701684
5521705285
5521713525
5521719140
5521725732
5521730432
5521737573
5521743066
5521754907
5521762109
5521768884
5521773583
5521778832
5521786035
5521791711
5521797204
5521802148
5521810021
5521815637
5521822411
5521831994
5521838525
5521845055
5521851159
5521856347
5521862817
5521869164
5521875268
5521878564
5521887536
5521892358
5521898095
5521903466
5521910485
5521916711
5521924340
5521929345
5521936242
5521941979
5521947167
5521953942
5521961205
5521967736
5521972802
5521980492
5521987023
5521994774
5522001488
5522008690
5522016564
5522024132
5522028160
5522037438
5522044762
5522049340
5522055321
5522063744
5522069542
5522075829
5522081627
5522086937
5522092369
5522098900
5522104271
5522110191
5522115257
5522120934
5522127403
5522133873
5522139061
5522144676
5522149925
5522155785
5522161461
5522166954
5522172264
5522177452
5522183739
5522189842
5522194603
5522200096
5522203148
5522210228
5522216637
5522222740
5522227012
5522232261
5522237510
5522243492
5522249412
5522256004
5522262108
5522269310
5522274070
5522280174
5522285301
5522290855
5522295677
5522300926
5522305748
5522311668
5522318138
5522323265
5522330162
5522336448
5522342308
5522348228
5522351585
5522359458
5522364768
5522371543
5522377159
5522383079
5522388755
5522395835
5522400962
5522409934
5522413657
5522422386
5522428489
5522432212
5522438071
5522444663
5522450340
5522457175
5522463035
5522468162
5522474387
5522480247
5522486289
5522491538
5522496970
5522502708
5522508262
5522513877
5522519492
5522525718
5522530723
5522535972
5522542075
5522548789
5522557090
5522561667
5522568503
5522574485
5522579612
5522588950
5522595847
5522603415
5522610801
5522617331
5522625327
5522633994
5522641928
5522646750
5522651755
5522658042
5522663901
5522666770
5522675192
5522681479
5522687827
5522694174
5522700339
5522707480
5522712668
5522719260
5522725302
5522730856
5522738425
5522743369
5522749289
5522756003
5522761984
5522765280
5522773276
5522780295
5522787680
5522792074
5522798605
5522805441
5522810263
5522816000
5522821249
5522826254
5522832419
5522837912
5522844992
5522849447
5522855124
5522861532
5522868429
5522874594
5522879538
5522885702
5522890585
5522896505
5522902975
5522908834
5522914083
5522919394
5522927145
5522932333
5522938742
5522944601
5522950277
5522955465
5522961996
5522967672
5522974569
5522980856
5522985433
5522991293
5522996847
5523004171
5523009298
5523015341
5523018453
5523027364
5523032064
5523038534
5523043356
5523049642
5523055013
5523060873
5523066732
5523071920
5523078207
5523083395
5523089437
5523095479
5523102254
5523107686
5523112020
5523118001
5523126729
5523129598
5523137960
5523148702
5523154867
5523162374
5523168844
5523172384
5523180562
5523186116
5523200887
5523211995
5523220723
5523226216
5523235677
5523242208
5523248372
5523258687
5523268209
5523274678
5523282796
5523290181
5523298726
5523305379
5523312703
5523320210
5523330342
5523337361
5523345052
5523352742
5523361775
5523369710
5523377095
5523384602
5523396443
5523403401
5523410603
5523417805
5523426533
5523435139
5523442647
5523450459
5523459858
5523467183
5523474141
5523482441
5523490376
5523497151
5523505391
5523513020
5523521382
5523528462
5523537007
5523544087
5523552815
5523560566
5523568867
5523574909
5523584919
5523592121
5523599934
5523607624
5523615009
5523623921
5523631611
5523638752
5523646442
5523654133
5523662128
5523670246
5523678242
5523687214
5523696125
5523702473
5523712360
5523720112
5523726337
5523733539
5523740619
5523750141
5523759662
5523767536
5523775043
5523782612
5523789936
5523797504
5523804950
5523814899
5523823627
5523831623
5523840290
5523848346
5523855731
5523865436
5523874103
5523881671
5523890094
5523897846
5523906635
5523916705
5523924640
5523932391
5523944843
5523956012
5523964618
5523972186
5523979205
5523987994
5523998859
5524008075
5524017291
5524024188
5524030841
5524038348
5524045367
5524051959
5524059466
5524068194
5524075030
5524081256
5524088946
5524095965
5524103106
5524110369
5524117388
5524126727
5524133929
5524142291
5524150164
5524156390
5524165972
5524173541
5524180194
5524190569
5524198626
5524206072
5524213397
5524223223
5524229205
5524238604
5524245013
5524254717
5524260882
5524268145
5524275408
5524284563
5524290850
5524300249
5524308855
5524315691
5524323870
5524330767
5524339556
5524346331
5524353533
5524362322
5524371111
5524377031
5524385088
5524392412
5524404070
5524408098
5524420061
5524426531
5524436479
5524444597
5524451677
5524459429
5524468584
5524476091
5524482988
5524491106
5524500566
5524506365
5524511308
5524516191
5524520647
5524524980
5524529009
5524537492
5524541216
5524545183
5524550676
5524556230
5524561601
5524566606
5524573076
5524577775
5524583147
5524588579
5524592729
5524596269
5524601274
5524606828
5524610917
5524615800
5524622636
5524628679
5524634538
5524640642
5524645158
5524650834
5524657304
5524665544
5524670121
5524675493
5524680131
5524686967
5524693132
5524698075
5524702775
5524707963
5524712419
5524718156
5524723893
5524728837
5524735307
5524739091
5524743424
5524747636
5524753556
5524757279
5524764115
5524769486
5524774674
5524780168
5524784562
5524788957
5524793534
5524797929
5524802384
5524806352
5524812211
5524816178
5524820695
5524824662
5524831071
5524836198
5524841142
5524847306
5524852738
5524858842
5524864457
5524869279
5524874650
5524879899
5524885575
5524891617
5524896561
5524903092
5524907181
5524912858
5524917252
5524922013
5524930192
5524934586
5524941788
5524947648
5524952164
5524959733
5524963395
5524970047
5524974320
5524980240
5524984330
5524991776
5524996048
5525002579
5525007462
5525014298
5525019913
5525026505
5525031571
5525037308
5525042923
5525049942
5525053238
5525061417
5525068192
5525073441
5525081436
5525087723
5525093948
5525098587
5525105057
5525109024
5525115006
5525124100
5525129471
5525135330
5525141129
5525147110
5525153641
5525159683
5525165909
5525174087
5525181168
5525187576
5525194168
5525200271
5525205887
5525212234
5525218277
5525224136
5525229996
5525234695
5525241714
5525247085
5525252029
5525256851
5525263199
5525269668
5525274856
5525279861
5525285354
5525289932
5525294204
5525300979
5525305618
5525311111
5525317398
5525322830
5525327224
5525335220
5525340530
5525345901
5525350234
5525356765
5525361160
5525367874
5525372390
5525379348
5525385818
5525390579
5525396072
5525402908
5525408462
5525414932
5525420486
5525425613
5525432082
5525437576
5525442458
5525447646
5525453933
5525457961
5525463821
5525470901
5525475478
5525481948
5525485488
5525492141
5525499587
5525503432
5525510085
5525517104
5525522719
5525528762
5525533156
5525540236
5525544753
5525551894
5525557753
5525566909
5525575209
5525582412
5525587233
5525593642
5525598586
5525604934
5525608535
5525619338
5525624953
5525630934
5525635512
5525640517
5525648085
5525652663
5525658034
5525663405
5525670973
5525676344
5525682265
5525688002
5525692946
5525699355
5525705580
5525708754
5525716078
5525721205
5525727797
5525734877
5525741957
5525748854
5525755873
5525761977
5525768751
5525775404
5525780714
5525789198
5525794386
5525800307
5525804396
5525811354
5525815993
5525823195
5525829420
5525833571
5525838942
5525845167
5525851088
5525854933
5525860792
5525868544
5525873976
5525879530
5525884779
5525891066
5525897352
5525901503
5525907301
5525913588
5525920362
5525927565
5525933912
5525939039
5525944898
5525950392
5525955458
5525960096
5525969007
5525972669
5525981214
5525986463
5525992262
5525997144
5526003004
5526008314
5526014234
5526019544
5526024854
5526031202
5526036024
5526042005
5526048414
5526054822
5526058851
5526065076
5526070386
5526076734
5526081373
5526086378
5526094129
5526098951
5526104200
5526111097
5526117017
5526123365
5526129407
5526134717
5526140760
5526146497
5526150770
5526156202
5526164563
5526169812
5526174207
5526181348
5526186475
5526193677
5526198438
5526204175
5526211743
5526216870
5526222913
5526228711
5526233289
5526239392
5526245313
5526251843
5526256421
5526262586
5526267896
5526274243
5526279859
5526285840
5526290540
5526296521
5526302258
5526309277
5526315137
5526321545
5526327771
5526334729
5526340100
5526345837
5526352307
5526358655
5526364819
5526370251
5526377331
5526385327
5526392346
5526398450
5526405224
5526410901
5526419995
5526425244
5526430554
5526438366
5526443921
5526449353
5526454419
5526461438
5526466320
5526471997
5526478161
5526484875
5526489758
5526495922
5526501110
5526507885
5526512829
5526519787
5526526989
5526533337
5526539135
5526545239
5526550793
5526555554
5526563610
5526569103
5526575817
5526581005
5526587170
5526592968
5526599560
5526604504
5526610058
5526617748
5526624584
5526630260
5526636608
5526643932
5526649548
5526655956
5526661449
5526668102
5526675182
5526682567
5526688976
5526693798
5526698498
5526706432
5526711620
5526719005
5526724743
5526731273
5526737377
5526742260
5526747387
5526753490
5526758983
5526763561
5526769115
5526775890
5526782726
5526788463
5526795116
5526801158
5526805675
5526810192
5526818004
5526822765
5526831676
5526837169
5526843517
5526848949
5526854503
5526861461
5526865856
5526872875
5526879283
5526884593
5526890880
5526896190
5526902110
5526907604
5526913097
5526917247
5526922679
5526930858
5526934276
5526941417
5526946483
5526952464
5526958934
5526964549
5526969066
5526976268
5526982249
5526988048
5526996226
5527003062
5527011729
5527017650
5527024913
5527030833
5527036387
5527044505
5527048961
5527057261
5527061778
5527067149
5527074229
5527080394
5527087718
5527092723
5527099009
5527103892
5527110362
5527114756
5527122569
5527128733
5527135508
5527139781
5527146800
5527152232
5527157359
5527161814
5527167796
5527173594
5527183177
5527187449
5527193552
5527199290
5527204783
5527209177
5527216074
5527221568
5527230845
5527236521
5527241953
5527246409
5527250864
5527257883
5527262644
5527267710
5527272959
5527280955
5527286204
5527292002
5527297861
5527303660
5527308176
5527313791
5527319895
5527326914
5527332651
5527338877
5527345041
5527350657
5527355173
5527360117
5527367014
5527372263
5527377695
5527383371
5527389902
5527393930
5527401499
5527405771
5527411386
5527417063
5527422983
5527428232
5527434336
5527439707
5527445322
5527451425
5527457407
5527462412
5527468881
5527476022
5527479562
5527487131
5527490549
5527497141
5527502451
5527508005
5527514475
5527519968
5527526254
5527532175
5527536752
5527542429
5527547678
5527554391
5527560617
5527567270
5527571847
5527578317
5527581613
5527588937
5527594675
5527600900
5527607370
5527616525
5527624399
5527632028
5527638803
5527648080
5527654550
5527659494
5527665719
5527673410
5527678964
5527684457
5527690805
5527696969
5527699899
5527706246
5527711495
5527718453
5527726205
5527732125
5527736398
5527741097
5527747750
5527753854
5527758920
5527766427
5527771737
5527778146
5527785043
5527790536
5527796090
5527801461
5527807137
5527813302
5527821114
5527826424
5527831979
5527836983
5527843026
5527848519
5527854012
5527859872
5527867562
5527873665
5527878304
5527882760
5527889779
5527895028
5527901009
5527906075
5527913949
5527919503
5527924813
5527931771
5527937142
5527942025
5527947152
5527952950
5527959114
5527964913
5527971749
5527977303
5527982674
5527988533
5527993538
5527999153
5528004586
5528011483
5528018257
5528024117
5528029122
5528034737
5528039437
5528044930
5528051399
5528057442
5528063362
5528070870
5528076058
5528082649
5528088142
5528093391
5528099617
5528108406
5528113838
5528123909
5528132881
5528141975
5528149605
5528156563
5528164131
5528169136
5528175056
5528181587
5528187019
5528192268
5528198189
5528204292
5528211067
5528215584
5528220833
5528226387
5528232918
5528239143
5528244514
5528250374
5528256904
5528263313
5528268257
5528273689
5528280220
5528284675
5528289375
5528295661
5528299629
5528304939
5528308540
5528313850
5528317756
5528323249
5528326911
5528332649
5528336860
5528341133
5528345161
5528349555
5528354560
5528359565
5528362556
5528369941
5528375190
5528380744
5528386421
5528392097
5528396919
5528401923
5528407783
5528414802
5528419929
5528425483
5528430854
5528434577
5528440864
5528446967
5528453803
5528460395
5528466987
5528473151
5528478705
5528484748
5528490973
5528497565
5528503913
5528507880
5528513251
5528518805
5528525092
5528530341
5528536872
5528541571
5528546576
5528552558
5528559882
5528563727
5528570868
5528575873
5528581244
5528587043
5528592841
5528596259
5528605597
5528611273
5528616706
5528621161
5528626715
5528632270
5528638739
5528645270
5528651312
5528656867
5528661627
5528667426
5528673712
5528679327
5528684149
5528689703
5528696356
5528702521
5528708746
5528714545
5528720038
5528723639
5528728949
5528735846
5528740790
5528749884
5528755194
5528760199
5528767584
5528773810
5528779120
5528785223
5528790961
5528799811
5528806585
5528816473
5528823370
5528829474
5528836615
5528841314
5528845709
5528856756
5528862799
5528868048
5528873785
5528879339
5528884954
5528890814
5528895697
5528901739
5528906317
5528912054
5528917974
5528922064
5528928228
5528933904
5528939825
5528946478
5528951788
5528960272
5528965521
5528971075
5528976263
5528982855
5528987920
5528993475
5528997747
5529003179
5529007208
5529012762
5529017644
5529024725
5529029302
5529035894
5529041326
5529046575
5529050787
5529057256
5529061407
5529072149
5529078069
5529083562
5529091375
5529098150
5529103826
5529109624
5529115728
5529121465
5529127019
5529132634
5529137944
5529143560
5529146611
5529153386
5529159551
5529165288
5529172002
5529177617
5529181890
5529187566
5529193730
5529199224
5529204656
5529210515
5529216497
5529222051
5529228154
5529232121
5529237981
5529244573
5529249700
5529256597
5529260869
5529267705
5529273015
5529278630
5529284551
5529290227
5529295171
5529302251
5529308354
5529313786
5529318120
5529324406
5529329716
5529336003
5529341435
5529348637
5529353825
5529359257
5529364445
5529373540
5529381108
5529386967
5529394780
5529404362
5529410039
5529415593
5529422917
5529429448
5529434880
5529439702
5529445500
5529451542
5529457158
5529463993
5529469670
5529474797
5529480351
5529486271
5529492314
5529498051
5529503544
5529506718
5529514408
5529518742
5529525700
5529530094
5529537235
5529540653
5529547856
5529552799
5529557499
5529564213
5529569767
5529574650
5529580998
5529586491
5529592899
5529598576
5529603092
5529608585
5529614872
5529620731
5529626896
5529633915
5529639896
5529645328
5529652042
5529658024
5529663456
5529667301
5529672733
5529680851
5529685551
5529692508
5529698368
5529704227
5529710087
5529716129
5529722477
5529727421
5529733585
5529736698
5529745609
5529750675
5529756595
5529761905
5529767704
5529773502
5529778812
5529785770
5529791385
5529797184
5529803836
5529810001
5529814640
5529820438
5529826541
5529832950
5529838931
5529843448
5529849735
5529854740
5529859866
5529867313
5529872073
5529878543
5529883731
5529889591
5529895023
5529900455
5529906680
5529912845
5529920291
5529925662
5529932376
5529936404
5529945193
5529950503
5529956058
