5272370657
5272376761
5272382132
5272387198
5272392264
5272397879
5272403067
5272407523
5272412344
5272418265
5272424002
5272428763
5272434134
5272440970
5272445731
5272451590
5272458304
5272463492
5272469046
5272476797
5272482657
5272487539
5272494681
5272501639
5272511770
5272519095
5272528799
5272537649
5272544668
5272550650
5272557241
5272563040
5272571218
5272577810
5272585257
5272592642
5272597952
5272606802
5272612356
5272619680
5272627004
5272633779
5272639517
5272645315
5272654897
5272662283
5272668997
5272675771
5272680715
5272689932
5272697012
5272703909
5272711599
5272718374
5272728139
5272733572
5272741140
5272748586
5272756216
5272763418
5272770071
5272777029
5272786916
5272793752
5272802114
5272807912
5272815297
5272822194
5272829030
5272836904
5272844777
5272853078
5272859914
5272867971
5272872853
5272882436
5272889699
5272897817
5272905019
5272913137
5272918996
5272924977
5272932790
5272940053
5272950246
5272959584
5272965016
5272973317
5272979848
5272988271
5272994923
5273002187
5273007130
5273018544
5273022572
5273031911
5273039235
5273046559
5273054066
5273061757
5273072011
5273080006
5273086049
5273093800
5273102040
5273111378
5273121083
5273134083
5273141652
5273151967
5273161244
5273168690
5273179737
5273188771
5273196034
5273202870
5273210682
5273218128
5273225453
5273236683
5273246144
5273255543
5273263172
5273271351
5273280689
5273289539
5273295948
5273306812
5273311634
5273321461
5273329090
5273335804
5273343128
5273352589
5273360401
5273368458
5273373157
5273383167
5273387623
5273400135
5273405994
5273413196
5273420704
5273426075
5273430530
5273441700
5273449817
5273457874
5273468738
5273477222
5273484912
5273492481
5273498218
5273506031
5273513965
5273521167
5273527698
5273537219
5273541553
5273551196
5273560047
5273568469
5273576404
5273583118
5273592090
5273598926
5273607776
5273614673
5273622790
5273629810
5273638415
5273643115
5273652820
5273657275
5273667041
5273674304
5273682361
5273690356
5273697558
5273702868
5273710071
5273717090
5273724048
5273730883
5273736926
5273745959
5273751941
5273762072
5273770068
5273777819
5273784899
5273794299
5273803027
5273810839
5273821276
5273828845
5273840624
5273855273
5273863574
5273871569
5273879565
5273886645
5273896838
5273904406
5273910998
5273921679
5273928576
5273935168
5273940478
5273947314
5273954088
5273961657
5273970873
5273977282
5273982531
5273989977
5273997545
5274007982
5274015734
5274024340
5274033068
5274038927
5274047289
5274055285
5274061693
5274067919
5274074816
5274082628
5274090258
5274097093
5274104051
5274108263
5274117357
5274121691
5274130358
5274140489
5274148485
5274155565
5274163377
5274174120
5274184618
5274192552
5274198412
5274206956
5274214037
5274221300
5274226671
5274233507
5274241869
5274249620
5274258043
5274265367
5274272020
5274278978
5274285203
5274294053
5274301195
5274307359
5274312791
5274320176
5274326280
5274334214
5274340989
5274349168
5274356431
5274364549
5274371263
5274379258
5274386644
5274393846
5274402146
5274410691
5274418687
5274427598
5274436021
5274443711
5274452256
5274459519
5274468919
5274476487
5274484483
5274492173
5274499436
5274506394
5274513901
5274522019
5274529221
5274537095
5274544663
5274551438
5274557786
5274564438
5274571213
5274578293
5274584214
5274593125
5274601792
5274608994
5274615036
5274622056
5274628586
5274637925
5274645737
5274653428
5274658005
5274667038
5274675217
5274683152
5274690903
5274698227
5274704758
5274712631
5274720017
5274727402
5274734055
5274741806
5274751145
5274756882
5274766464
5274772934
5274778915
5274785751
5274792282
5274799789
5274806137
5274812485
5274819076
5274824020
5274832992
5274840439
5274847580
5274854294
5274859604
5274867966
5274875168
5274882370
5274888107
5274894455
5274902145
5274909347
5274915146
5274921371
5274927841
5274935287
5274942245
5274948227
5274953964
5274958541
5274967514
5274974044
5274979904
5274987350
5274992965
5274998703
5275005111
5275009933
5275018356
5275022750
5275029891
5275035507
5275040023
5275046798
5275054305
5275059799
5275067123
5275070297
5275076949
5275083724
5275090255
5275096847
5275101852
5275108016
5275115035
5275120162
5275128707
5275137191
5275143111
5275151534
5275156844
5275164168
5275170882
5275176742
5275183516
5275189803
5275194564
5275200667
5275206832
5275211898
5275219893
5275225264
5275230636
5275236617
5275242843
5275249800
5275255477
5275262313
5275269149
5275275008
5275281050
5275287032
5275292830
5275297652
5275304671
5275309310
5275316451
5275319686
5275328902
5275334212
5275339705
5275345625
5275352461
5275358870
5275363814
5275371748
5275378157
5275384383
5275390852
5275395247
5275402266
5275408430
5275413863
5275420027
5275426741
5275432112
5275438399
5275441695
5275449751
5275456465
5275462752
5275468001
5275473860
5275480147
5275485823
5275492781
5275499373
5275505110
5275510847
5275516401
5275522200
5275528608
5275535566
5275540754
5275547407
5275553022
5275558577
5275566023
5275571455
5275579328
5275584455
5275591902
5275597273
5275603865
5275609419
5275615888
5275620100
5275626631
5275632429
5275637739
5275642256
5275649336
5275655683
5275661909
5275670088
5275675031
5275682966
5275688215
5275696943
5275702924
5275709211
5275716779
5275722394
5275728254
5275734235
5275739545
5275745527
5275751264
5275756086
5275763532
5275766706
5275776166
5275781843
5275788740
5275794172
5275800092
5275806867
5275812726
5275819623
5275825422
5275832807
5275838239
5275843671
5275849530
5275855390
5275860822
5275867047
5275873700
5275879193
5275886029
5275891095
5275896771
5275903363
5275909223
5275914655
5275921124
5275926984
5275932416
5275940228
5275946088
5275951642
5275958539
5275964337
5275970136
5275976178
5275981488
5275987653
5275994000
5275998639
5276006451
5276012067
5276017560
5276023846
5276028241
5276035809
5276040021
5276047162
5276051861
5276058148
5276064740
5276070538
5276076214
5276082135
5276089093
5276095807
5276102337
5276109173
5276114666
5276119915
5276125531
5276131939
5276137677
5276144268
5276150189
5276155682
5276162030
5276168194
5276172833
5276179364
5276187115
5276192791
5276198590
5276204022
5276209637
5276216534
5276222820
5276229351
5276236309
5276240093
5276249554
5276255352
5276261700
5276268780
5276274944
5276280376
5276286236
5276293072
5276298687
5276305035
5276311138
5276316692
5276323467
5276329510
5276334637
5276340618
5276347454
5276352154
5276360271
5276365948
5276371685
5276378704
5276383587
5276391460
5276396953
5276403850
5276409099
5276417034
5276423076
5276428508
5276434307
5276439922
5276446819
5276451580
5276457378
5276463359
5276469951
5276473369
5276483013
5276488384
5276496623
5276503093
5276507854
5276514812
5276520122
5276525859
5276529155
5276538493
5276544292
5276549907
5276555644
5276561626
5276567668
5276572368
5276579448
5276584392
5276590800
5276597575
5276603374
5276609721
5276615581
5276620708
5276627055
5276633220
5276637981
5276645366
5276651408
5276656901
5276663554
5276669536
5276674540
5276680522
5276685893
5276692180
5276699077
5276704448
5276711955
5276718181
5276724040
5276730204
5276736064
5276741191
5276747477
5276754008
5276759623
5276766825
5276772196
5276778788
5276786051
5276790629
5276798564
5276804789
5276812296
5276817729
5276823649
5276830851
5276836527
5276842387
5276848490
5276854899
5276859477
5276866679
5276871867
5276878397
5276884806
5276890482
5276897623
5276903605
5276908671
5276915568
5276920939
5276927958
5276934122
5276940470
5276946329
5276952250
5276958353
5276963724
5276969767
5276975382
5276980326
5276988077
5276993570
5277000406
5277005472
5277011271
5277018534
5277022989
5277032022
5277039286
5277045877
5277051126
5277056986
5277063394
5277070475
5277076273
5277081766
5277088602
5277093546
5277099222
5277105936
5277112650
5277119547
5277124429
5277131021
5277136392
5277143472
5277149576
5277155313
5277160562
5277166483
5277172708
5277178568
5277184671
5277191385
5277197855
5277201456
5277210001
5277215494
5277221048
5277226724
5277232828
5277239053
5277243814
5277251810
5277257669
5277263223
5277268899
5277274515
5277281473
5277287820
5277293680
5277299600
5277304910
5277312051
5277316690
5277324258
5277332193
5277338357
5277345010
5277351236
5277358682
5277366861
5277374063
5277378884
5277386697
5277392495
5277398171
5277404336
5277409890
5277416726
5277423867
5277429727
5277435342
5277441018
5277448281
5277454568
5277460427
5277466836
5277473611
5277478188
5277484780
5277489419
5277495705
5277502602
5277508828
5277514321
5277519753
5277525796
5277531655
5277538552
5277544472
5277550332
5277555153
5277562050
5277567360
5277574257
5277579506
5277585366
5277592446
5277599404
5277605202
5277611733
5277617714
5277623330
5277628945
5277634621
5277641396
5277646950
5277652565
5277659157
5277665078
5277670632
5277675270
5277682472
5277688088
5277694069
5277699684
5277706764
5277712380
5277717873
5277723671
5277730202
5277737160
5277742409
5277748695
5277754372
5277761208
5277766457
5277772194
5277779335
5277784218
5277790627
5277796913
5277802345
5277807960
5277813942
5277820290
5277826637
5277831947
5277838661
5277843788
5277849647
5277855385
5277861976
5277868873
5277875221
5277880836
5277886635
5277893959
5277903114
5277910804
5277916359
5277922340
5277928260
5277933998
5277940895
5277947486
5277952735
5277957496
5277965736
5277970558
5277976173
5277982154
5277987892
5277994850
5278001014
5278006080
5278012000
5278017555
5278022560
5278031715
5278037696
5278043617
5278049171
5278054664
5278061317
5278066077
5278073463
5278078223
5278085242
5278091163
5278096595
5278102149
5278108009
5278114112
5278120338
5278127235
5278132911
5278140479
5278146644
5278152564
5278158240
5278163672
5278170752
5278177100
5278182593
5278188514
5278194922
5278200110
5278206824
5278210486
5278218116
5278225013
5278229163
5278236548
5278242896
5278249488
5278254370
5278261084
5278267005
5278272498
5278279212
5278284949
5278290320
5278296485
5278303259
5278308447
5278315222
5278320288
5278325659
5278332312
5278337439
5278343787
5278348364
5278356116
5278362402
5278368445
5278375159
5278382178
5278387488
5278393896
5278399573
5278405737
5278411902
5278418921
5278426428
5278432287
5278438391
5278444739
5278450903
5278457861
5278464758
5278469580
5278476172
5278481726
5278488623
5278493689
5278499548
5278506872
5278511755
5278518591
5278525488
5278530920
5278536535
5278542395
5278548193
5278553747
5278560766
5278567053
5278572851
5278577490
5278584143
5278588842
5278596472
5278602758
5278608190
5278615087
5278619665
5278625890
5278631933
5278638403
5278643652
5278650671
5278656286
5278663122
5278668554
5278678320
5278684362
5278691076
5278697118
5278703710
5278708837
5278716039
5278720678
5278727941
5278734838
5278740270
5278746068
5278751745
5278757543
5278763524
5278769628
5278776464
5278781896
5278786718
5278794103
5278799718
5278805211
5278810949
5278818883
5278824315
5278828954
5278836461
5278841222
5278848241
5278854283
5278859044
5278865941
5278870885
5278877233
5278881749
5278888402
5278894383
5278900243
5278907018
5278912877
5278919835
5278924230
5278930333
5278938634
5278944676
5278951268
5278957127
5278966222
5278973241
5278979710
5278986363
5278993687
5279001134
5279005528
5279012791
5279019261
5279025487
5279031590
5279038426
5279044469
5279049840
5279056065
5279061131
5279066868
5279071446
5279078038
5279083836
5279089329
5279094883
5279101048
5279105626
5279110936
5279115574
5279121800
5279128880
5279133519
5279139927
5279143956
5279149632
5279155369
5279160618
5279165989
5279173313
5279179600
5279185459
5279188938
5279196568
5279200413
5279208286
5279213719
5279221043
5279229221
5279234654
5279240513
5279246006
5279252171
5279257664
5279262730
5279268528
5279275303
5279282322
5279285679
5279294163
5279299168
5279304478
5279309788
5279313877
5279319431
5279325352
5279333347
5279336826
5279344578
5279350193
5279356418
5279359897
5279367710
5279374119
5279379307
5279383518
5279388889
5279394138
5279399509
5279404575
5279410129
5279416172
5279422824
5279428440
5279433384
5279439975
5279443271
5279453403
5279459079
5279464817
5279469516
5279474948
5279480747
5279486667
5279492160
5279502597
5279509677
5279517734
5279524082
5279531284
5279538120
5279545871
5279551120
5279556430
5279561618
5279567599
5279573398
5279577853
5279585056
5279590915
5279597568
5279602756
5279609347
5279615268
5279620883
5279626498
5279634067
5279640658
5279647250
5279655978
5279663852
5279668246
5279674350
5279679721
5279686252
5279690829
5279696933
5279702975
5279708468
5279712741
5279718112
5279725253
5279730197
5279737338
5279741976
5279749057
5279753756
5279761203
5279767428
5279772555
5279777621
5279783053
5279788363
5279794345
5279799410
5279804720
5279809969
5279815646
5279822054
5279827914
5279833041
5279837618
5279844149
5279850375
5279854952
5279860079
5279865817
5279871188
5279876620
5279881441
5279887484
5279892733
5279896761
5279902560
5279908236
5279914828
5279919832
5279926852
5279931978
5279937655
5279942171
5279948519
5279951876
5279958590
5279964205
5279971346
5279978670
5279982821
5279988192
5279994844
5280001009
5280005404
5280011751
5280017611
5280023043
5280032137
5280039949
5280047762
5280053194
5280062471
5280072237
5280077364
5280084566
5280090425
5280096834
5280101839
5280107210
5280112276
5280117464
5280122652
5280128450
5280135164
5280140474
5280147249
5280152193
5280157808
5280163423
5280168367
5280172884
5280179231
5280185518
5280191011
5280194551
5280202180
5280208528
5280214509
5280219514
5280225801
5280232149
5280236238
5280242280
5280246248
5280252534
5280256624
5280263032
5280268159
5280274507
5280283723
5280288545
5280295625
5280299592
5280307954
5280313203
5280319062
5280324678
5280330476
5280335237
5280339326
5280346162
5280350495
5280356416
5280360932
5280367158
5280373567
5280379731
5280384858
5280390412
5280396272
5280401032
5280408784
5280413423
5280419587
5280425202
5280430024
5280435395
5280442658
5280448274
5280453828
5280459321
5280463349
5280469697
5280475739
5280480744
5280485932
5280492585
5280497163
5280503144
5280507844
5280515961
5280521210
5280527070
5280533417
5280537751
5280543549
5280549347
5280559113
5280566742
5280574128
5280578522
5280587067
5280596466
5280601044
5280606598
5280612458
5280618683
5280625397
5280630280
5280638092
5280642853
5280648285
5280652985
5280658478
5280665436
5280671234
5280677155
5280683563
5280689789
5280695770
5280702484
5280706085
5280712250
5280716828
5280724640
5280729950
5280735687
5280741180
5280746307
5280750824
5280756073
5280761627
5280769073
5280773895
5280779755
5280785492
5280790619
5280796661
5280806488
5280811310
5280818573
5280823578
5280830353
5280835541
5280840851
5280846649
5280853546
5280858917
5280864471
5280870392
5280875457
5280882660
5280887787
5280894622
5280899444
5280906341
5280912323
5280918487
5280922149
5280929962
5280936248
5280941741
5280947479
5280953643
5280959991
5280964385
5280971649
5280977691
5280982879
5280988006
5280994842
5281000518
5281006622
5281012542
5281018768
5281022430
5281031463
5281036285
5281042205
5281047881
5281054412
5281060210
5281066863
5281073333
5281079192
5281085113
5281092132
5281100677
5281108001
5281111358
5281122283
5281131194
5281139312
5281144561
5281149993
5281158538
5281165618
5281175994
5281181487
5281190703
5281197539
5281203521
5281211455
5281217498
5281227629
5281236541
5281247710
5281256926
5281265776
5281273955
5281281951
5281290984
5281298918
5281307951
5281316618
5281325163
5281334319
5281343718
5281352385
5281359465
5281367278
5281374968
5281382414
5281391081
5281399199
5281406462
5281415190
5281423369
5281431181
5281438505
5281446623
5281454863
5281462248
5281469633
5281477812
5281481962
5281492765
5281501677
5281509306
5281516630
5281524870
5281532072
5281540068
5281548735
5281556364
5281564176
5281572172
5281580412
5281588102
5281596342
5281605070
5281609586
5281621549
5281629118
5281636808
5281643522
5281650907
5281659879
5281666349
5281675138
5281681364
5281689359
5281696867
5281706754
5281714689
5281720182
5281728666
5281737272
5281745084
5281751798
5281759672
5281765836
5281775480
5281779935
5281792752
5281801480
5281807401
5281817411
5281824308
5281832181
5281858426
5281866056
5281874112
5281883328
5281890714
5281896939
5281906644
5281914578
5281921475
5281928067
5281934720
5281940762
5281947720
5281956143
5281962857
5281970120
5281983243
5281992154
5282001553
5282010159
5282042386
5282060940
5282079983
5282097927
5282118069
5282136746
5282158535
5282178127
5282198330
5282216580
5282240932
5282253384
5282262966
5282273403
5282283474
5282301052
5282315273
5282329372
5282344509
5282358242
5282367824
5282376064
5282383938
5282394008
5282401638
5282409206
5282415615
5282424037
5282431484
5282438930
5282446315
5282454921
5282462734
5282469997
5282477504
5282484035
5282491908
5282499172
5282505275
5282515163
5282522670
5282530177
5282539088
5282545863
5282555812
5282561061
5282571864
5282577724
5282587550
5282595119
5282603236
5282612330
5282619777
5282629298
5282637050
5282647609
5282658107
5282663417
5282668116
5282672511
5282679286
5282685267
5282688868
5282694300
5282699000
5282704127
5282707728
5282712794
5282718287
5282726039
5282730433
5282734889
5282739405
5282744044
5282748255
5282754481
5282759608
5282764674
5282769618
5282773829
5282779200
5282783351
5282789515
5282792262
5282798670
5282802027
5282807765
5282812464
5282817042
5282819483
5282828089
5282833949
5282838892
5282842799
5282847498
5282852442
5282857142
5282860682
5282866236
5282871058
5282875269
5282881678
5282886133
5282892542
5282895533
5282902247
5282908777
5282913355
5282917505
5282922083
5282925989
5282930445
5282935145
5282941614
5282946009
5282950892
5282955958
5282960108
5282964930
5282970057
5282975061
5282979700
5282985804
5282988550
5282995020
5282999720
5283003626
5283006311
5283013575
5283018457
5283023889
5283028894
5283033899
5283038782
5283042261
5283047693
5283053491
5283059229
5283063684
5283068628
5283074549
5283079614
5283083704
5283088526
5283093836
5283100610
5283103723
5283111719
5283115015
5283122583
5283126611
5283135278
5283143457
5283148645
5283154993
5283160913
5283165979
5283171411
5283176721
5283184534
5283190027
5283194177
5283199792
5283205652
5283211023
5283215539
5283220727
5283228052
5283233606
5283237573
5283242151
5283247400
5283252588
5283257654
5283263269
5283268091
5283274621
5283280847
5283285791
5283290368
5283295007
5283300805
5283305139
5283311425
5283316308
5283320336
5283326013
5283331811
5283336755
5283342431
5283347802
5283354882
5283359643
5283365502
5283371301
5283376611
5283381860
5283387170
5283392968
5283399316
5283403039
5283411462
5283416772
5283422936
5283427819
5283432214
5283438622
5283444482
5283450829
5283455346
5283461022
5283466698
5283472008
5283477624
5283479455
5283488305
5283491723
5283499352
5283502465
5283509728
5283514855
5283519189
5283523949
5283530663
5283536706
5283544030
5283547753
5283554894
5283559777
5283565209
5283569970
5283576317
5283583519
5283588707
5283592980
5283599877
5283604821
5283609887
5283615807
5283621605
5283627648
5283631127
5283640709
5283646324
5283651085
5283654503
5283662071
5283666832
5283673790
5283677391
5283685326
5283690819
5283696800
5283703026
5283708397
5283714745
5283720421
5283726585
5283734398
5283739037
5283746361
5283750999
5283757713
5283762291
5283767174
5283773094
5283778709
5283783836
5283788902
5283794273
5283798973
5283804527
5283810203
5283817955
5283825340
5283830711
5283835289
5283841636
5283845970
5283851768
5283856224
5283863487
5283869774
5283876121
5283881431
5283885826
5283889244
5283896690
5283899986
5283908775
5283915428
5283921226
5283924583
5283932640
5283935874
5283943260
5283948265
5283954978
5283961509
5283968345
5283973594
5283979698
5283984947
5283991599
5283995567
5284001975
5284008140
5284014671
5284019859
5284024558
5284030418
5284035606
5284040000
5284045921
5284053916
5284059653
5284063926
5284068076
5284076438
5284081260
5284087058
5284090720
5284099326
5284102805
5284110190
5284115623
5284120749
5284126121
5284132834
5284137717
5284142417
5284150474
5284156455
5284161216
5284167746
5284172507
5284177939
5284183921
5284188987
5284195700
5284202353
5284206687
5284213279
5284217612
5284221884
5284229331
5284234702
5284241294
5284247153
5284253317
5284255149
5284264487
5284268942
5284274558
5284277731
5284286093
5284290854
5284298178
5284304465
5284312949
5284314658
5284323569
5284327292
5284336020
5284339926
5284349387
5284352988
5284359885
5284363058
5284369284
5284373679
5284379782
5284385031
5284391440
5284395834
5284401755
5284406210
5284411398
5284416220
5284423483
5284428793
5284435141
5284440390
5284446615
5284452780
5284457480
5284461935
5284467978
5284477255
5284484152
5284488668
5284494711
5284499655
5284504843
5284510580
5284514608
5284521505
5284528585
5284533529
5284536825
5284544210
5284549764
5284555868
5284561361
5284572164
5284579000
5284585775
5284589071
5284595236
5284600118
5284606893
5284611776
5284619405
5284627401
5284635152
5284640401
5284645589
5284650045
5284655538
5284661825
5284667989
5284672872
5284676717
5284684347
5284687887
5284695821
5284699422
5284706869
5284710287
5284717611
5284722860
5284728841
5284733602
5284740316
5284745076
5284750692
5284757650
5284759908
5284768758
5284774617
5284781575
5284786397
5284792684
5284798970
5284803914
5284810079
5284814778
5284820699
5284828755
5284832234
5284839315
5284844380
5284849996
5284854390
5284863912
5284870259
5284877644
5284884358
5284890401
5284898885
5284904195
5284910115
5284917439
5284924275
5284930379
5284935262
5284941975
5284946675
5284953755
5284959920
5284966023
5284973103
5284980000
5284986409
5284992573
5284997334
5285004902
5285013508
5285021199
5285025960
5285032002
5285036152
5285042561
5285047017
5285052388
5285056782
5285063191
5285069783
5285074177
5285077412
5285084492
5285087666
5285095478
5285099141
5285106465
5285109944
5285118306
5285121846
5285129170
5285135090
5285139546
5285144245
5285150227
5285155964
5285163044
5285167988
5285173481
5285181049
5285186970
5285191548
5285198383
5285203693
5285210590
5285215412
5285222187
5285227680
5285233112
5285237812
5285243732
5285249531
5285255939
5285260395
5285265217
5285275104
5285281391
5285285847
5285296528
5285300312
5285307026
5285311970
5285317585
5285322346
5285328022
5285333576
5285339130
5285346088
5285351398
5285357258
5285361896
5285365863
5285371479
5285377460
5285382526
5285388507
5285394977
5285403034
5285409442
5285416095
5285424762
5285429218
5285435565
5285440204
5285447528
5285452106
5285458942
5285464557
5285469623
5285472736
5285481830
5285488422
5285495014
5285501727
5285507159
5285513263
5285520404
5285525470
5285532428
5285536945
5285542560
5285546527
5285551410
5285555743
5285562091
5285569903
5285574969
5285579486
5285584979
5285590716
5285598895
5285605731
5285612384
5285614581
5285621417
5285627459
5285632098
5285639789
5285644854
5285651202
5285656451
5285662555
5285667376
5285673114
5285677569
5285683978
5285690570
5285696673
5285701007
5285707476
5285712970
5285716143
5285724810
5285729144
5285733355
5285738787
5285746478
5285750628
5285758196
5285763506
5285769427
5285775469
5285781451
5285786028
5285792376
5285798907
5285806048
5285812090
5285817461
5285823260
5285829241
5285833758
5285837847
5285846026
5285852496
5285857867
5285863421
5285868304
5285873492
5285878618
5285884356
5285891497
5285896807
5285902178
5285907854
5285912859
5285919268
5285921343
5285928484
5285934343
5285940203
5285946978
5285952471
5285960772
5285967608
5285972673
5285979448
5285984697
5285990618
5285996294
5286002153
5286007646
5286014604
5286020525
5286025774
5286029985
5286036455
5286041216
5286046892
5286051409
5286056902
5286064287
5286068743
5286075762
5286082781
5286088945
5286095659
5286103227
5286109026
5286114336
5286121904
5286126299
5286131548
5286137224
5286143083
5286149614
5286153520
5286158342
5286165971
5286170854
5286175065
5286180925
5286184953
5286189470
5286196672
5286201127
5286206865
5286211015
5286216630
5286222062
5286228654
5286234514
5286237993
5286243913
5286247392
5286253984
5286258500
5286264360
5286270280
5286276384
5286281388
5286286271
5286290788
5286297502
5286302446
5286309220
5286314103
5286319596
5286326493
5286331681
5286336808
5286343095
5286350114
5286355485
5286363114
5286366776
5286373063
5286379105
5286384904
5286391190
5286395890
5286400529
5286407914
5286413468
5286419938
5286424455
5286431168
5286436356
5286442765
5286447404
5286454423
5286460709
5286466691
5286471268
5286476212
5286481949
5286487992
5286493790
5286498490
5286504838
5286510758
5286516312
5286522538
5286527054
5286534073
5286537919
5286545060
5286548783
5286557206
5286562821
5286567093
5286571610
5286578690
5286583817
5286591141
5286595963
5286602127
5286607682
5286614334
5286620072
5286625931
5286630448
5286635941
5286642349
5286647598
5286653702
5286659073
5286665848
5286672135
5286679520
5286684342
5286691910
5286698074
5286704117
5286711136
5286719193
5286723709
5286730240
5286735001
5286741531
5286746841
5286753128
5286757584
5286762894
5286768143
5286771622
5286777908
5286783890
5286790298
5286795303
5286802322
5286808731
5286813003
5286818863
5286825638
5286831497
5286836319
5286841995
5286845779
5286855606
5286861648
5286866287
5286869888
5286877884
5286881973
5286889602
5286893203
5286900344
5286906753
5286913406
5286918411
5286923965
5286928848
5286936599
5286942275
5286948379
5286953689
5286962844
5286968093
5286973708
5286979080
5286983047
5286990859
5286997024
5287002334
5287006179
5287013686
5287017715
5287025344
5287030654
5287035598
5287040542
5287047988
5287054031
5287061233
5287066115
5287071181
5287076491
5287083938
5287088698
5287092483
5287100173
5287105971
5287111770
5287116713
5287121840
5287129409
5287134108
5287138869
5287145888
5287152785
5287156997
5287163161
5287167922
5287173293
5287180129
5287184890
5287190505
5287197280
5287201735
5287208632
5287212844
5287221450
5287225356
5287231154
5287236708
5287243178
5287252516
5287257948
5287263930
5287270766
5287279616
5287286818
5287293227
5287299147
5287309889
5287317763
5287324477
5287330397
5287335524
5287343214
5287349745
5287353468
5287360487
5287366591
5287372999
5287378676
5287383192
5287387953
5287395521
5287400282
5287406325
5287414259
5287419386
5287425123
5287430250
5287436354
5287443007
5287447950
5287453505
5287460829
5287465956
5287471693
5287477003
5287482313
5287487379
5287495436
5287500074
5287506727
5287511305
5287517408
5287522779
5287527967
5287534010
5287540296
5287545423
5287551466
5287556715
5287560865
5287568434
5287573927
5287579542
5287585767
5287597547
5287602918
5287616102
5287628614
5287636976
5287643446
5287648328
5287652357
5287660840
5287664381
5287671216
5287675855
5287682020
5287685316
5287691541
5287696119
5287702649
5287707227
5287712903
5287720044
5287726453
5287731763
5287736219
5287741529
5287747144
5287751416
5287758619
5287765577
5287772535
5287777478
5287782056
5287787427
5287792920
5287798841
5287802625
5287811963
5287817273
5287822034
5287827893
5287831983
5287837049
5287843579
5287848401
5287854138
5287858899
5287864758
5287869641
5287874768
5287879529
5287884900
5287888989
5287895398
5287900647
5287908521
5287913831
5287922253
5287927747
5287936047
5287940564
5287951916
5287959180
5287963391
5287969739
5287973889
5287979138
5287984570
5287989697
5287996472
5288002820
5288007886
5288017529
5288023388
5288025525
5288034070
5288038342
5288045544
5288048718
5288056042
5288062207
5288068493
5288073803
5288080517
5288085461
5288091687
5288099255
5288104626
5288111096
5288115673
5288123364
5288128124
5288133373
5288137890
5288142712
5288148449
5288154614
5288160290
5288164379
5288169811
5288176464
5288181896
5288188854
5288194897
5288196789
5288206066
5288209606
5288216808
5288220043
5288226513
5288230053
5288237621
5288241405
5288248974
5288253673
5288258678
5288263317
5288269909
5288276867
5288283459
5288288524
5288292797
5288298351
5288303051
5288310192
5288315929
5288320507
5288324108
5288332470
5288336376
5288343944
5288349254
5288354625
5288359325
5288365001
5288370555
5288377575
5288384777
5288389415
5288395397
5288401134
5288406932
5288412914
5288419506
5288425182
5288431346
5288436412
5288442943
5288449230
5288454723
5288459178
5288465831
5288471141
5288478832
5288484325
5288489513
5288495616
5288503001
5288509227
5288516551
5288521617
5288557323
5288562266
5288566295
5288570994
5288576793
5288581309
5288585582
5288591136
5288595042
5288600413
5288605967
5288610545
5288615245
5288619822
5288624156
5288629466
5288635020
5288640635
5288646373
5288650523
5288656749
5288661143
5288667369
5288671824
5288678477
5288681102
5288688487
5288693736
5288699351
5288703440
5288708811
5288714366
5288719676
5288724986
5288730601
5288736033
5288741770
5288746897
5288753001
5288757945
5288762095
5288768626
5288772959
5288778269
5288784129
5288789195
5288794688
5288798411
5288803416
5288807200
5288812144
5288816477
5288820505
5288825755
5288830210
5288835764
5288841135
5288845591
5288850718
5288857249
5288860422
5288869456
5288874888
5288883249
5288887888
5288895334
5288898813
5288907663
5288913828
5288919199
5288924326
5288928782
5288935618
5288940683
5288947153
5288951670
5288958261
5288963999
5288968760
5288974741
5288979135
5288985544
5288990427
5288996469
5289002573
5289008554
5289014597
5289021067
5289025400
5289031870
5289038461
5289043344
5289048105
5289054331
5289064462
5289068247
5289076669
5289082224
5289087839
5289092355
5289098520
5289103220
5289108469
5289113535
5289119516
5289124216
5289129770
5289134164
5289141305
5289148019
5289153024
5289158090
5289164377
5289168649
5289174203
5289179941
5289185922
5289191965
5289198129
5289203683
5289209421
5289214608
5289219308
5289224923
5289229562
5289234933
5289241220
5289246225
5289252938
5289257760
5289263742
5289269906
5289274911
5289283395
5289289804
5289293466
5289301034
5289307687
5289311349
5289315927
5289323007
5289327645
5289333505
5289338449
5289344552
5289350167
5289355355
5289361337
5289367074
5289372079
5289377572
5289383248
5289389047
5289393502
5289396981
5289404794
5289411080
5289416940
5289420602
5289427377
5289430978
5289437936
5289443978
5289450020
5289454476
5289460274
5289465768
5289473641
5289478158
5289484261
5289489449
5289492867
5289501900
5289505440
5289512948
5289516671
5289525704
5289529732
5289537240
5289541695
5289549080
5289554573
5289561165
5289567513
5289573128
5289578621
5289584664
5289591133
5289597786
5289603218
5289607369
5289617562
5289624336
5289628304
5289631355
5289639046
5289642281
5289651619
5289655464
5289664192
5289669075
5289676766
5289680183
5289687019
5289691902
5289698189
5289702583
5289708748
5289715828
5289721565
5289726021
5289731636
5289736030
5289742744
5289747139
5289752693
5289759163
5289763923
5289769417
5289774910
5289780647
5289785774
5289791450
5289796760
5289804939
5289810249
5289816108
5289821907
5289826362
5289829780
5289837471
5289843452
5289848457
5289853889
5289861335
5289867012
5289872627
5289877937
5289885932
5289891975
5289897163
5289903388
5289910041
5289914253
5289920478
5289925117
5289931648
5289936347
5289943183
5289950324
5289956855
5289963264
5289969001
5289973274
5289978095
5289984138
5289989326
5289995429
5290001777
5290006782
5290012275
5290018989
5290023017
5290029365
5290034675
5290042304
5290046516
5290052924
5290058051
5290065742
5290071052
5290077033
5290083747
5290090156
5290095221
5290100837
5290105597
5290111152
5290116645
5290124030
5290128974
5290134345
5290139472
5290146491
5290152350
5290158698
5290164252
5290170905
5290176520
5290182990
5290189093
5290193976
5290200568
5290208136
5290213629
5290218390
5290225592
5290231330
5290237189
5290243537
5290251044
5290256781
5290263617
5290271063
5290275580
5290281256
5290286383
5290295050
5290301703
5290306219
5290309698
5290315985
5290319220
5290328192
5290331549
5290338141
5290343817
5290351202
5290355231
5290361944
5290367254
5290372992
5290377752
5290383612
5290391363
5290397467
5290402655
5290406561
5290413092
5290420294
5290425116
5290430304
5290436590
5290442755
5290448248
5290454229
5290459722
5290464422
5290470709
5290476324
5290481756
5290490240
5290496160
5290501287
5290508489
5290515142
5290520941
5290527532
5290534490
5290541448
5290548162
5290552740
5290558782
5290565069
5290568914
5290577276
5290582220
5290589483
5290595403
5290603033
5290609441
5290614385
5290621221
5290626958
5290634344
5290636724
5290648015
5290652227
5290660284
5290664617
5290672307
5290676153
5290685003
5290689824
5290698980
5290706060
5290712713
5290717595
5290722478
5290727788
5290734563
5290739812
5290746160
5290751226
5290755437
5290763433
5290771855
5290778691
5290784795
5290789861
5290798589
5290804326
5290809636
5290817021
5290822820
5290829411
5290834294
5290842412
5290847112
5290856145
5290863530
5290870000
5290873845
5290880742
5290885930
5290893376
5290898991
5290907719
5290911565
5290918828
5290922368
5290929936
5290935063
5290940922
5290945805
5290952824
5290958073
5290964482
5290969426
5290975041
5290979497
5290986760
5290991337
5290997746
5291005009
5291009343
5291014958
5291020817
5291025822
5291031987
5291036381
5291039860
5291048588
5291055241
5291059574
5291065068
5291070805
5291074711
5291081974
5291086857
5291093083
5291098698
5291106022
5291111454
5291116398
5291123417
5291128849
5291135807
5291141483
5291146671
5291153385
5291157780
5291164066
5291168400
5291174870
5291180973
5291185368
5291192997
5291199100
5291203495
5291206913
5291215153
5291218571
5291225712
5291231205
5291237308
5291243168
5291249576
5291253116
5291260258
5291265079
5291270878
5291275760
5291281009
5291287479
5291293339
5291297977
5291304691
5291308963
5291314518
5291320255
5291326175
5291333439
5291339054
5291345584
5291349491
5291357181
5291361087
5291367740
5291373294
5291379093
5291384159
5291391117
5291396060
5291401920
5291407047
5291413761
5291418460
5291424991
5291432437
5291438358
5291445438
5291450321
5291457340
5291463382
5291467777
5291474429
5291481631
5291487186
5291494815
5291502444
5291509463
5291516910
5291522159
5291528323
5291536319
5291542666
5291547366
5291552066
5291558536
5291564151
5291568362
5291573916
5291580325
5291585086
5291591067
5291596866
5291602786
5291609073
5291614627
5291616641
5291625430
5291631839
5291636294
5291642337
5291648135
5291651675
5291657717
5291663089
5291670840
5291677615
5291682559
5291687869
5291693301
5291698184
5291703555
5291709719
5291715151
5291720217
5291726687
5291733645
5291739871
5291744326
5291752444
5291758975
5291767153
5291770937
5291779787
5291783389
5291791384
5291794741
5291801577
5291807009
5291813174
5291819643
5291824953
5291829836
5291836855
5291842776
5291847841
5291854128
5291860293
5291868044
5291875490
5291880556
5291886843
5291891176
5291897402
5291902285
5291907839
5291915651
5291919558
5291926210
5291931704
5291939028
5291944765
5291950319
5291956240
5291962587
5291969423
5291976747
5291982363
5291986879
5291993227
5291999025
5292003298
5292009340
5292015810
5292021913
5292026918
5292033754
5292037966
5292044924
5292052309
5292057680
5292065920
5292071779
5292078188
5292083986
5292089906
5292091920
5292101381
5292106630
5292116212
5292121339
5292128664
5292132875
5292138612
5292141908
5292150209
5292154237
5292161012
5292166078
5292172670
5292177614
5292183290
5292190004
5292194703
5292199098
5292205507
5292211732
5292219484
5292224183
5292231141
5292235902
5292239686
5292248292
5292252015
5292259401
5292263063
5292270265
5292275453
5292281129
5292285951
5292292909
5292298280
5292303163
5292311341
5292320436
5292325318
5292330384
5292336610
5292342164
5292348756
5292354615
5292359620
5292366578
5292371888
5292380311
5292388428
5292395570
5292400941
5292407288
5292413331
5292419434
5292424073
5292429932
5292435059
5292441346
5292447510
5292454041
5292460084
5292463624
5292472596
5292477173
5292483277
5292486878
5292493653
5292498902
5292505799
5292511719
5292516785
5292521790
5292528077
5292533631
5292539063
5292545044
5292551026
5292557129
5292563599
5292568238
5292572327
5292580445
5292584168
5292591370
5292596375
5292602600
5292607605
5292613709
5292619324
5292624268
5292630249
5292635925
5292641419
5292649658
5292657715
5292659790
5292670410
5292676758
5292681763
5292685913
5292695068
5292698853
5292707153
5292710876
5292719543
5292726379
5292731811
5292738098
5292743957
5292749267
5292755554
5292761413
5292765747
5292769104
5292778442
5292782287
5292788696
5292793640
5292801696
5292805481
5292813598
5292817260
5292823608
5292828552
5292835449
5292840332
5292846008
5292850891
5292857238
5292864074
5292869995
5292874267
5292879455
5292885314
5292887207
5292898620
5292904968
5292910705
5292915771
5292920715
5292926330
5292932556
5292937866
5292944396
5292949462
5292957092
5292962280
5292967101
5292973327
5292978088
5292982665
5292988647
5292995238
5293001647
5293005981
5293012145
5293018188
5293023070
5293028869
5293033568
5293041869
5293046874
5293052733
5293056273
5293063415
5293068236
5293074401
5293079345
5293086242
5293091796
5293097777
5293102233
5293108825
5293113219
5293119567
5293124205
5293131041
5293135741
5293143004
5293147582
5293153197
5293160338
5293166442
5293172118
5293176512
5293182677
5293187682
5293193846
5293199523
5293205199
5293211058
5293216979
5293221190
5293229979
5293235655
5293240355
5293244017
5293252135
5293258482
5293265013
5293270995
5293280333
5293289000
5293294188
5293301024
5293305418
5293311095
5293317808
5293320189
5293333372
5293339659
5293345701
5293351195
5293356993
5293360350
5293367247
5293372130
5293381468
5293385985
5293392698
5293396483
5293403746
5293407774
5293419127
5293423826
5293430418
5293435484
5293441709
5293446592
5293453794
5293459288
5293464659
5293469114
5293475950
5293482542
5293488096
5293492979
5293498289
5293502683
5293509031
5293514219
5293519529
5293525755
5293528013
5293537168
5293542356
5293549558
5293553953
5293562254
5293566221
5293577573
5293583311
5293589719
5293594907
5293600278
5293604368
5293611143
5293614255
5293621397
5293627561
5293633481
5293639524
5293645627
5293650266
5293655454
5293658628
5293667051
5293670530
5293678281
5293684385
5293688779
5293691953
5293699765
5293702817
5293711789
5293717527
5293723630
5293728330
5293733457
5293736570
5293742856
5293747617
5293755796
5293762082
5293766538
5293769651
5293777280
5293782224
5293786130
5293790708
5293797788
5293802304
5293809018
5293812619
5293818784
5293823850
5293828610
5293834226
5293838681
5293844602
5293850705
5293857602
5293866879
5293872311
5293879147
5293885373
5293890683
5293896847
5293902341
5293909909
5293915219
5293921689
5293926144
5293932187
5293937558
5293944821
5293950986
5293953244
5293961300
5293966794
5293973141
5293976925
5293984799
5293988644
5293995663
5294001339
5294007443
5294012448
5294020199
5294024899
5294033078
5294039181
5294045773
5294050351
5294056454
5294062741
5294066952
5294073361
5294079708
5294087460
5294092892
5294096737
5294104122
5294108639
5294113339
5294119076
5294126034
5294132626
5294137203
5294144711
5294150875
5294157345
5294161861
5294168331
5294173397
5294178524
5294184200
5294189999
5294196407
5294201412
5294208187
5294212948
5294218746
5294225033
5294229732
5294236263
5294241146
5294248287
5294251888
5294259640
5294263546
5294269649
5294274959
5294283321
5294287105
5294294307
5294300594
5294305660
5294310299
5294317440
5294323116
5294329219
5294334346
5294339534
5294346675
5294350338
5294357479
5294363216
5294368648
5294372554
5294380977
5294387020
5294394100
5294399898
5294407710
5294413143
5294418514
5294423702
5294430293
5294435237
5294441463
5294445979
5294452388
5294459041
5294464473
5294469600
5294473384
5294483821
5294491328
5294498103
5294502376
5294508662
5294512874
5294520503
5294526240
5294534175
5294540339
5294546748
5294552180
5294558894
5294563411
5294570186
5294574641
5294580745
5294587520
5294593562
5294599360
5294604976
5294610102
5294613337
5294622187
5294624263
5294632930
5294636836
5294643183
5294646357
5294655146
5294658442
5294665888
5294669062
5294677424
5294683467
5294689204
5294695185
5294701289
5294706782
5294712336
5294717219
5294723994
5294732172
5294737360
5294742182
5294748286
5294752680
5294757014
5294765192
5294770625
5294778315
5294784907
5294789912
5294793207
5294801142
5294804499
5294812617
5294818232
5294824946
5294832026
5294837946
5294842646
5294848444
5294852778
5294860468
5294865717
5294870661
5294875971
5294882135
5294886835
5294894526
5294900019
5294906672
5294911493
5294915400
5294923700
5294928095
5294933954
5294938166
5294947687
5294951776
5294960016
5294963800
5294969965
5294975641
5294982721
5294987970
5294992426
5294999140
5295005731
5295010492
5295015192
5295022943
5295027582
5295034967
5295038751
5295045892
5295051080
5295056635
5295062311
5295069208
5295074518
5295079706
5295086237
5295094781
5295099725
5295106805
5295113580
5295115594
5295126764
5295130426
5295138544
5295142633
5295151239
5295158197
5295164544
5295169977
5295178155
5295183648
5295189203
5295194574
5295200433
5295205743
5295213311
5295218438
5295220636
5295231866
5295236200
5295244012
5295247796
5295256585
5295262139
5295269219
5295275811
5295282159
5295287896
5295293756
5295299981
5295304925
5295311578
5295316888
5295321343
5295327020
5295334039
5295336724
5295346001
5295353814
5295358453
5295362359
5295369134
5295372613
5295382561
5295388360
5295395013
5295401849
5295407098
5295411004
5295417962
5295423821
5295431206
5295437981
5295443596
5295448906
5295454949
5295459466
5295466424
5295471001
5295479485
5295484734
5295490960
5295496697
5295501946
5295507866
5295512383
5295518242
5295524590
5295532524
5295538384
5295543022
5295546379
5295554009
5295559746
5295565483
5295570244
5295576103
5295582695
5295588799
5295593682
5295599236
5295603630
5295609490
5295615349
5295621147
5295628349
5295633965
5295638725
5295643486
5295650444
5295653923
5295661430
5295665276
5295673515
5295679924
5295686150
5295692009
5295699882
5295705315
5295712028
5295721123
5295729057
5295736076
5295742912
5295753471
5295759147
5295768425
5295776298
5295785270
5295793205
5295800590
5295811149
5295818595
5295827995
5295834648
5295837394
5295851127
5295856681
5295865470
5295873466
5295876762
5295891715
5295904411
5295911918
5295917533
5295927360
5295934623
5295937553
5295949332
5295957023
5295967033
5295974479
5295984794
5295991691
5295999320
5296005607
5296013358
5296022147
5296029044
5296032096
5296044608
5296050284
5296060416
5296067801
5296075675
5296082145
5296085074
5296094474
5296102774
5296112479
5296120169
5296130545
5296137686
5296142997
5296152884
5296160147
5296169852
5296179740
5296189200
5296196890
5296205740
5296212576
5296218558
5296229422
5296233878
5296240958
5296251700
5296259024
5296266470
5296274710
5296281302
5296287772
5296296622
5296303091
5296308890
5296317557
5296324698
5296334402
5296340933
5296349234
5296355337
5296363272
5296369497
5296376333
5296382925
5296389273
5296392080
5296405630
5296408743
5296419607
5296426565
5296433889
5296440054
5296448538
5296454763
5296459829
5296471487
5296476858
5296485952
5296493337
5296496816
5296508047
5296511343
5296522817
5296527822
5296539724
5296548086
5296551626
5296563528
5296572744
5296581472
5296586904
5296593130
5296605337
5296611684
5296621938
5296630483
5296634084
5296646474
5296654897
5296662587
5296671499
5296682424
5296690725
5296697316
5296703847
5296710866
5296716970
5296727529
5296734914
5296743459
5296749623
5296757924
5296765187
5296773610
5296784108
5296787160
5296798085
5296805898
5296813527
5296821217
5296828053
5296835255
5296840260
5296849904
5296857228
5296865346
5296872670
5296879384
5296886281
5296893544
5296900441
5296905263
5296915394
5296922475
5296931996
5296939381
5296945912
5296954274
5296962208
5296967885
5296976002
5296981801
5296995778
5297001698
5297009327
5297015736
5297025746
5297032460
5297037709
5297046070
5297052479
5297063587
5297072315
5297081227
5297088123
5297093128
5297103626
5297110523
5297118153
5297124867
5297127735
5297141163
5297147205
5297157886
5297162891
5297173695
5297180530
5297183643
5297195118
5297202991
5297211658
5297219349
5297228321
5297235401
5297244861
5297252430
5297256885
5297266468
5297272815
5297280811
5297288623
5297296985
5297304065
5297310596
5297317188
5297323352
5297328357
5297337696
5297345508
5297353992
5297361743
5297368152
5297376575
5297383594
5297389697
5297398425
5297405811
5297410632
5297422473
5297430042
5297437854
5297445483
5297452319
5297461291
5297470142
5297477710
5297484790
5297491443
5297501941
5297512256
5297518542
5297525989
5297536914
5297543078
5297548449
5297557177
5297565905
5297577441
5297585009
5297594714
5297599719
5297607592
5297613940
5297622241
5297628710
5297634814
5297648608
5297653918
5297662585
5297669665
5297677661
5297682910
5297687548
5297692370
5297702136
5297707263
5297714831
5297721056
5297727343
5297731310
5297737963
5297742724
5297749499
5297756335
5297762072
5297766711
5297773302
5297777697
5297780871
5297789172
5297792650
5297800463
5297804369
5297811877
5297815478
5297822924
5297827624
5297833605
5297838793
5297844835
5297851610
5297857042
5297861986
5297868578
5297874437
5297880846
5297886400
5297892382
5297898851
5297904833
5297910509
5297916552
5297921190
5297927721
5297933214
5297936754
5297944811
5297949877
5297956346
5297961412
5297967272
5297973497
5297978319
5297982897
5297989122
5297997057
5298002977
5298007616
5298011583
5298020189
5298024156
5298030992
5298034959
5298045946
5298050157
5298057664
5298061510
5298067613
5298074876
5298080064
5298084703
5298091417
5298096300
5298102952
5298109483
5298111864
5298119676
5298126756
5298132066
5298135789
5298143236
5298147264
5298155443
5298160936
5298165696
5298170640
5298178025
5298183213
5298190110
5298195298
5298201036
5298206041
5298213731
5298221666
5298228318
5298233750
5298239976
5298245835
5298251451
5298259141
5298264817
5298270555
5298276536
5298283372
5298288133
5298295335
5298302354
5298304490
5298313950
5298320664
5298325669
5298333604
5298338487
5298342271
5298351060
5298354844
5298362351
5298367722
5298375474
5298381333
5298386033
5298392991
5298402024
5298406602
5298413499
5298418320
5298426011
5298430955
5298437302
5298443589
5298448166
5298455613
5298460984
5298468552
5298474656
5298481186
5298486618
5298491440
5298499253
5298504624
5298511887
5298518540
5298523850
5298529221
5298538376
5298543686
5298548569
5298552292
5298562302
5298566269
5298573410
5298579025
5298586228
5298591843
5298598679
5298604538
5298611435
5298616562
5298622788
5298627182
5298633713
5298639694
5298641586
5298650375
5298654465
5298661240
5298665146
5298673752
5298677658
5298684616
5298690658
5298695175
5298700058
5298707565
5298713425
5298719467
5298726608
5298733993
5298739975
5298748764
5298755295
5298764206
5298770065
5298775619
5298781356
5298787765
5298793075
5298799667
5298804000
5298811386
5298817855
5298822921
5298827316
5298834274
5298840927
5298846359
5298851242
5298856796
5298868820
5298875778
5298884078
5298889816
5298895736
5298900985
5298906234
5298914047
5298921493
5298927596
5298933456
5298938827
5298944076
5298949264
5298955672
5298959029
5298967086
5298972762
5298978622
5298981917
5298988753
5298994613
5298999679
5299004622
5299012191
5299017867
5299025252
5299030318
5299035689
5299040450
5299046981
5299051680
5299056929
5299063399
5299068953
5299073348
5299079573
5299085921
5299090865
5299096602
5299101668
5299109786
5299114363
5299121321
5299124922
5299132735
5299137007
5299144698
5299154402
5299160933
5299166365
5299170821
5299176497
5299182723
5299188643
5299194380
5299196333
5299205306
5299212080
5299216780
5299220320
5299228987
5299232710
5299240828
5299245955
5299255293
5299259322
5299266890
5299272200
5299278242
5299285078
5299289839
5299295088
5299302656
5299307783
5299314009
5299319685
5299324873
5299331282
5299336409
5299341536
5299347029
5299354292
5299358320
5299366560
5299372114
5299379011
5299384993
5299391096
5299395857
5299401960
5299408796
5299413679
5299418074
5299427107
5299429853
5299439070
5299443037
5299450605
5299457319
5299462507
5299467451
5299476850
5299481916
5299489851
5299496076
5299503095
5299509321
5299515608
5299520979
5299527937
5299536237
5299539106
5299548322
5299552961
5299562299
5299566267
5299573347
5299579755
5299585981
5299590986
5299597089
5299603193
5299609662
5299614179
5299619794
5299624982
5299632184
5299636823
5299640424
5299648969
5299651166
5299660932
5299665143
5299671796
5299675641
5299683759
5299688764
5299693891
5299698041
5299703656
5299708783
5299714765
5299720136
5299726667
5299731061
5299737531
5299741986
5299747785
5299756391
5299762494
5299769269
5299776776
5299785199
5299791608
5299798016
5299803632
5299808331
5299814191
5299821210
5299826825
5299832684
5299837872
5299843488
5299847150
5299855633
5299861737
5299866925
5299871258
5299878400
5299883526
5299890973
5299896344
5299903912
5299909100
5299913678
5299920331
5299927228
5299932599
5299936566
5299944012
5299949811
5299960186
5299964154
5299970746
5299976605
5299982525
5299987713
5299994244
5299999981
5300004193
5300012371
5300014386
5300023907
5300027874
5300035260
5300039410
5300047222
5300052349
5300060223
5300064373
5300071942
5300078838
5300086163
5300092083
5300100689
5300107830
5300112042
5300127117
5300133404
5300145245
5300154827
5300163616
5300171429
5300178448
5300187847
5300198345
5300206341
5300217266
5300221416
5300235576
5300241802
5300250591
5300257854
5300267864
5300275798
5300282940
5300291362
5300299480
5300306499
5300314434
5300320293
5300330547
5300339763
5300348613
5300355510
5300358623
5300372112
5300377971
5300385967
5300392925
5300402141
5300409099
5300414958
5300424968
5300430705
5300440898
5300448283
5300450969
5300462260
5300467876
5300480815
5300486003
5300494670
5300501140
5300511027
5300519145
5300522441
5300534404
5300543315
5300554484
5300562480
5300566142
5300577739
5300587870
5300600138
5300608500
5300611918
5300624369
5300633341
5300641276
5300650004
5300653483
5300664897
5300673197
5300680522
5300688456
5300696391
5300703837
5300709635
5300721415
5300726054
5300734171
5300741801
5300747233
5300757975
5300765909
5300774027
5300780985
5300789713
5300796427
5300801554
5300812113
5300819925
5300829325
5300837259
5300842630
5300851908
5300858255
5300865763
5300873270
5300880838
5300888163
5300898111
5300905497
5300910929
5300921549
5300926309
5300936624
5300943338
5300950174
5300959940
5300965494
5300974527
5300981302
5300991068
5300998270
5301003702
5301011942
5301019754
5301026956
5301034097
5301041177
5301051309
5301056985
5301067178
5301072671
5301083108
5301092386
5301103921
5301112161
5301122171
5301132058
5301139139
5301147256
5301154519
5301160379
5301170327
5301177530
5301187112
5301194619
5301204873
5301211038
5301218789
5301225137
5301231729
5301238381
5301244180
5301250955
5301256326
5301262124
5301268594
5301274453
5301279946
5301286050
5301293130
5301299966
5301305581
5301311807
5301317849
5301324258
5301329202
5301334573
5301341470
5301346291
5301352700
5301359231
5301365945
5301373147
5301378884
5301384255
5301391701
5301397011
5301403603
5301410988
5301415017
5301423745
5301429482
5301435219
5301440224
5301448159
5301453774
5301458718
5301463173
5301471047
5301476418
5301482582
5301488076
5301493080
5301500222
5301506081
5301510964
5301514809
5301525246
5301529213
5301537697
5301541298
5301549294
5301555458
5301561135
5301565956
5301574074
5301579384
5301584755
5301589882
5301597084
5301601296
5301607338
5301613503
5301615700
5301626869
5301634499
5301639381
5301645058
5301649513
5301654518
5301661598
5301667274
5301673805
5301679542
5301685890
5301692360
5301699379
5301704567
5301711647
5301717262
5301722938
5301729347
5301736366
5301742286
5301748207
5301755897
5301761146
5301766883
5301775856
5301782875
5301791053
5301796913
5301803627
5301808387
5301816505
5301822303
5301830848
5301836646
5301844825
5301850257
5301856056
5301862220
5301868934
5301873512
5301881141
5301886451
5301892921
5301899452
5301904578
5301910377
5301912330
5301921302
5301926551
5301936256
5301940162
5301949195
5301952674
5301960670
5301964271
5301971900
5301978248
5301987220
5301992896
5301998816
5302004310
5302010230
5302015601
5302021705
5302026709
5302034644
5302043128
5302047950
5302055152
5302059974
5302066382
5302071631
5302075476
5302085669
5302088172
5302096411
5302100135
5302108374
5302111487
5302118323
5302121741
5302128821
5302132300
5302139319
5302145423
5302150672
5302155737
5302162940
5302167761
5302174963
5302180151
5302187293
5302192236
5302198706
5302203345
5302209876
5302214148
5302220801
5302227087
5302233923
5302238623
5302244788
5302251135
5302255652
5302261877
5302265356
5302273108
5302279333
5302283606
5302288611
5302295263
5302301794
5302309240
5302319067
5302327795
5302335791
5302344397
5302349035
5302357336
5302360693
5302367590
5302371984
5302379370
5302383764
5302389502
5302394873
5302400854
5302404150
5302414526
5302420812
5302426184
5302431433
5302435095
5302443029
5302448278
5302454382
5302458593
5302465124
5302470861
5302476232
5302480688
5302486181
5302490698
5302496374
5302501012
5302508764
5302514806
5302520483
5302524694
5302530431
5302536352
5302542150
5302546300
5302553258
5302557409
5302564123
5302568151
5302573949
5302579931
5302584691
5302589940
5302595434
5302601720
5302606969
5302612707
5302616247
5302623266
5302629430
5302635228
5302640050
5302647313
5302652623
5302659581
5302665990
5302672704
5302676915
5302684056
5302689489
5302695470
5302700658
5302706273
5302710790
5302717931
5302722814
5302729528
5302733983
5302740087
5302746190
5302751988
5302756444
5302759862
5302768224
5302774022
5302778539
5302783605
5302789403
5302795384
5302801793
5302806859
5302812535
5302817723
5302825108
5302830174
5302837010
5302843053
5302847325
5302855321
5302859166
5302865819
5302869969
5302877782
5302882969
5302891026
5302897069
5302902379
5302908482
5302914525
5302919285
5302925023
5302931492
5302933506
5302943272
5302948765
5302953648
5302957188
5302965306
5302971348
5302977757
5302982884
5302992344
5303000584
5303006565
5303013279
5303018467
5303024693
5303031040
5303037876
5303043431
5303048802
5303056614
5303060703
5303068028
5303071812
5303079075
5303085056
5303090794
5303096104
5303102207
5303109531
5303113560
5303118504
5303125095
5303131809
5303137546
5303142124
5303145725
5303154758
5303158543
5303166233
5303170322
5303178257
5303182102
5303190586
5303195896
5303201145
5303206150
5303213596
5303219028
5303224399
5303230442
5303236911
5303242832
5303246311
5303255161
5303261570
5303268344
5303272373
5303279941
5303285617
5303295261
5303300693
5303307346
5303312778
5303318088
5303324497
5303330905
5303335666
5303342136
5303349094
5303354648
5303361057
5303365695
5303373447
5303377475
5303385227
5303390659
5303397434
5303403354
5303408664
5303415683
5303420322
5303427280
5303433505
5303438449
5303442111
5303450961
5303456943
5303461703
5303468722
5303473666
5303479098
5303485690
5303491672
5303497409
5303504306
5303509860
5303515231
5303522433
5303527316
5303532687
5303539401
5303543002
5303553744
5303559237
5303564059
5303569552
5303576510
5303582553
5303587924
5303592868
5303600253
5303607028
5303612887
5303617770
5303624972
5303631075
5303637301
5303645480
5303653048
5303659030
5303664279
5303669650
5303675875
5303683077
5303690524
5303697482
5303703402
5303708102
5303713168
5303719759
5303725924
5303732088
5303737704
5303742586
5303746432
5303756319
5303759981
5303766817
5303772494
5303777987
5303782870
