5435089052
5435095583
5435101686
5435106569
5435111086
5435116579
5435122011
5435126466
5435131532
5435136781
5435140810
5435145998
5435151674
5435156129
5435160768
5435166322
5435172365
5435177614
5435182130
5435186891
5435191408
5435196535
5435201845
5435207338
5435212037
5435219056
5435224916
5435230043
5435235780
5435241212
5435246522
5435254457
5435260194
5435267457
5435273988
5435280519
5435287782
5435293641
5435301332
5435309327
5435316468
5435322572
5435329347
5435336244
5435342286
5435350160
5435356935
5435365296
5435371400
5435381837
5435393922
5435402161
5435409913
5435418702
5435425538
5435433228
5435440980
5435449891
5435455750
5435463624
5435472291
5435480653
5435489686
5435495972
5435505433
5435512024
5435517640
5435527527
5435533875
5435540711
5435547852
5435555054
5435563416
5435572205
5435579651
5435586792
5435594178
5435600220
5435607910
5435616089
5435624451
5435630921
5435639405
5435645691
5435654480
5435660645
5435669739
5435678406
5435685120
5435692627
5435699524
5435705689
5435715759
5435722168
5435728821
5435737305
5435743530
5435751953
5435757996
5435769714
5435776611
5435787231
5435793457
5435802002
5435809082
5435815491
5435824524
5435831360
5435837402
5435848449
5435856140
5435864746
5435871704
5435875549
5435884338
5435892273
5435899231
5435906921
5435914550
5435925354
5435934387
5435939514
5435949706
5435957824
5435963745
5435974182
5435981689
5435990478
5435997619
5436006103
5436012389
5436023132
5436030883
5436037963
5436045654
5436052734
5436060485
5436068542
5436076476
5436086242
5436097472
5436107238
5436115417
5436126769
5436135863
5436145018
5436152221
5436159423
5436167724
5436174559
5436182189
5436195006
5436201842
5436210204
5436218016
5436226561
5436233885
5436239257
5436249632
5436258360
5436265318
5436272215
5436280943
5436287474
5436296263
5436302550
5436311278
5436318846
5436326231
5436332823
5436338133
5436345091
5436353026
5436359984
5436366026
5436373778
5436379271
5436387450
5436392882
5436400633
5436410704
5436420286
5436427122
5436435423
5436439818
5436447874
5436456602
5436462889
5436469725
5436479246
5436487120
5436495176
5436502134
5436508604
5436515257
5436522398
5436531492
5436536680
5436546079
5436552000
5436558958
5436564878
5436573545
5436580259
5436588377
5436594480
5436603574
5436612119
5436619871
5436627927
5436635313
5436642698
5436651304
5436658018
5436664976
5436671751
5436679563
5436687131
5436693296
5436701353
5436708494
5436715146
5436722104
5436729001
5436734922
5436743039
5436749082
5436757749
5436764341
5436772763
5436779111
5436790464
5436802671
5436812375
5436820554
5436831357
5436838986
5436845761
5436854245
5436862546
5436870969
5436877805
5436885312
5436902402
5436909848
5436919370
5436924435
5436933347
5436940060
5436948483
5436956113
5436964047
5436971860
5436978757
5436987912
5436997433
5437007809
5437015011
5437023984
5437031857
5437039364
5437044552
5437053036
5437060421
5437068478
5437075375
5437083676
5437091732
5437098385
5437105404
5437110836
5437118771
5437125485
5437132321
5437139034
5437145931
5437153073
5437160153
5437167050
5437173947
5437180660
5437189449
5437196652
5437203610
5437211239
5437219051
5437227108
5437233211
5437239864
5437248531
5437256039
5437262630
5437270138
5437277767
5437285580
5437291988
5437301754
5437308040
5437315792
5437325374
5437331234
5437340267
5437345943
5437355465
5437365352
5437372371
5437379757
5437388607
5437398922
5437406429
5437413753
5437422237
5437430049
5437438106
5437445857
5437452999
5437458858
5437468990
5437479488
5437486080
5437494075
5437501643
5437508479
5437515681
5437522884
5437529903
5437535274
5437541011
5437548457
5437554317
5437561580
5437568050
5437581599
5437586848
5437594539
5437599910
5437607539
5437613704
5437621882
5437627925
5437633479
5437640132
5437646968
5437651423
5437658381
5437665767
5437670283
5437677607
5437681941
5437689631
5437695430
5437701106
5437706233
5437713069
5437719660
5437724543
5437730403
5437736811
5437742854
5437747981
5437754817
5437760493
5437766230
5437770197
5437778559
5437785273
5437790217
5437796442
5437804316
5437811274
5437818659
5437823908
5437829829
5437835200
5437841425
5437847895
5437853754
5437860468
5437865717
5437871516
5437877558
5437883845
5437890375
5437896906
5437902888
5437908014
5437913996
5437920038
5437926264
5437931208
5437938776
5437943903
5437950373
5437955683
5437962275
5437966608
5437975214
5437980341
5437985712
5437992182
5437997309
5438003168
5438009699
5438014276
5438021723
5438028009
5438032648
5438040094
5438045587
5438052301
5438059381
5438067255
5438071649
5438079645
5438085382
5438091547
5438097711
5438104303
5438109979
5438115533
5438121637
5438126947
5438136835
5438142694
5438148370
5438153741
5438160455
5438166986
5438173517
5438178888
5438183710
5438190301
5438196893
5438201776
5438207879
5438214349
5438218622
5438225519
5438231927
5438237664
5438243951
5438250604
5438257013
5438262017
5438269647
5438275262
5438280633
5438286981
5438294000
5438299127
5438306451
5438312249
5438317620
5438322198
5438328851
5438335565
5438340386
5438346795
5438352166
5438358758
5438365289
5438371392
5438377435
5438383050
5438387505
5438394769
5438401482
5438406976
5438412164
5438419305
5438424310
5438430901
5438436455
5438441277
5438446648
5438452813
5438458428
5438464837
5438469964
5438476494
5438482964
5438488518
5438493828
5438499810
5438506463
5438512139
5438517815
5438524651
5438529900
5438536004
5438542107
5438547783
5438554436
5438560173
5438566033
5438571892
5438576165
5438582085
5438587761
5438592827
5438601128
5438606987
5438615227
5438621453
5438629387
5438636772
5438643364
5438648979
5438655022
5438661430
5438667168
5438671806
5438676872
5438684074
5438691826
5438699638
5438705864
5438711967
5438718437
5438724113
5438731316
5438737175
5438742241
5438747307
5438753166
5438757805
5438763725
5438768608
5438774528
5438781242
5438786735
5438793327
5438798576
5438802543
5438809990
5438815483
5438820610
5438825248
5438830375
5438836052
5438841362
5438848259
5438854057
5438860160
5438864677
5438869743
5438875541
5438879814
5438885673
5438890312
5438897880
5438902702
5438909049
5438915702
5438922233
5438927787
5438932182
5438938957
5438945121
5438950736
5438957939
5438962516
5438967399
5438973319
5438979301
5438985343
5438991203
5438996879
5439002250
5439007194
5439013419
5439017509
5439024100
5439030204
5439035819
5439042045
5439047416
5439052970
5439059074
5439064445
5439068534
5439075065
5439079276
5439085380
5439089652
5439096854
5439103202
5439108390
5439114737
5439120719
5439127494
5439133292
5439140128
5439150443
5439157828
5439163321
5439168021
5439177237
5439182181
5439187979
5439194266
5439200064
5439205191
5439211356
5439217826
5439225516
5439233145
5439238883
5439245719
5439251822
5439257926
5439263358
5439269034
5439274039
5439279898
5439286307
5439292044
5439297415
5439303641
5439309561
5439315237
5439320364
5439326834
5439333243
5439338431
5439343558
5439349295
5439354544
5439360342
5439365713
5439371634
5439376578
5439381399
5439387747
5439392142
5439399161
5439404287
5439410940
5439416311
5439421866
5439427481
5439434134
5439441092
5439446890
5439452749
5439458853
5439463980
5439469656
5439474966
5439481436
5439486929
5439493521
5439498892
5439504263
5439508963
5439514883
5439521170
5439526480
5439531790
5439536794
5439543264
5439549063
5439555593
5439561514
5439566580
5439572134
5439577505
5439584036
5439590505
5439595693
5439600637
5439606557
5439612844
5439618948
5439624563
5439630239
5439635549
5439641531
5439647451
5439653554
5439659170
5439664236
5439669607
5439678090
5439686880
5439693105
5439701101
5439708608
5439716054
5439721303
5439726186
5439733327
5439739919
5439744802
5439750844
5439758229
5439765248
5439774160
5439781484
5439787648
5439792470
5439797963
5439804433
5439811330
5439815969
5439822438
5439828603
5439834096
5439840566
5439846364
5439853261
5439858632
5439863698
5439870412
5439875050
5439881642
5439887074
5439893666
5439898976
5439905019
5439909779
5439915944
5439922902
5439927052
5439933949
5439939687
5439944997
5439949147
5439957631
5439963307
5439968678
5439975270
5439980153
5439986561
5439992787
5439997853
5440004445
5440009877
5440016346
5440022633
5440029347
5440034657
5440038868
5440046437
5440051381
5440058155
5440063465
5440071034
5440076649
5440081654
5440087574
5440093739
5440098744
5440105458
5440111622
5440117481
5440123585
5440127857
5440135060
5440139576
5440147144
5440152516
5440158009
5440165150
5440170277
5440176441
5440182789
5440187489
5440193470
5440199268
5440206104
5440212757
5440216969
5440223682
5440228016
5440237476
5440244434
5440251087
5440256519
5440264271
5440270191
5440277271
5440283436
5440289661
5440294117
5440301929
5440306629
5440313160
5440320423
5440328296
5440335376
5440343189
5440348743
5440355213
5440360706
5440366932
5440373218
5440378589
5440383655
5440391040
5440395313
5440402881
5440408374
5440414295
5440420032
5440427112
5440431873
5440438342
5440444629
5440451099
5440456287
5440461780
5440469287
5440474658
5440480884
5440488635
5440492908
5440498767
5440502795
5440511279
5440516894
5440523242
5440528613
5440534900
5440541003
5440545215
5440553210
5440558520
5440565539
5440571582
5440577991
5440584826
5440589953
5440596728
5440602893
5440609363
5440614367
5440620410
5440627368
5440632190
5440638720
5440644763
5440651599
5440656298
5440663684
5440669177
5440674426
5440681018
5440684314
5440692492
5440697375
5440703784
5440709216
5440716967
5440722338
5440729296
5440736132
5440740405
5440746447
5440752062
5440758410
5440762866
5440771655
5440777270
5440786791
5440791491
5440800219
5440807482
5440814684
5440820544
5440826403
5440833178
5440838549
5440845019
5440850817
5440855822
5440862963
5440871020
5440877306
5440883471
5440889025
5440895861
5440902086
5440908129
5440914538
5440919725
5440926073
5440931383
5440937548
5440944933
5440952196
5440957201
5440962999
5440969164
5440973741
5440979967
5440987169
5440992418
5440998766
5441003832
5441009752
5441014818
5441020189
5441026537
5441033556
5441038927
5441043810
5441050340
5441055589
5441063097
5441069383
5441074571
5441081163
5441088365
5441094835
5441099596
5441105638
5441113145
5441118700
5441124010
5441129869
5441136339
5441142503
5441148668
5441154222
5441161119
5441167894
5441173082
5441178087
5441183275
5441189866
5441195421
5441201951
5441208543
5441215074
5441220323
5441225938
5441232347
5441237779
5441244554
5441250718
5441256517
5441261705
5441267869
5441273240
5441279771
5441286241
5441291612
5441297715
5441303636
5441310777
5441316697
5441322801
5441331040
5441337205
5441344285
5441353501
5441359055
5441365586
5441373521
5441379319
5441386399
5441392258
5441398301
5441405442
5441410691
5441417649
5441425339
5441430405
5441435288
5441442124
5441447495
5441453660
5441458542
5441466294
5441471787
5441478623
5441483933
5441489243
5441495835
5441500596
5441506699
5441513352
5441519883
5441525193
5441530747
5441537278
5441542893
5441550095
5441557541
5441561875
5441569321
5441574143
5441580612
5441586228
5441592758
5441599533
5441606247
5441611740
5441617722
5441625717
5441632004
5441639694
5441644638
5441652817
5441658859
5441663010
5441670578
5441675827
5441681442
5441687302
5441694199
5441700973
5441705917
5441712387
5441718552
5441724533
5441730575
5441736496
5441742721
5441748093
5441754135
5441760116
5441767074
5441774643
5441781296
5441787521
5441792038
5441798629
5441805099
5441810898
5441817184
5441823898
5441829757
5441835373
5441841964
5441846176
5441852951
5441858871
5441865646
5441870956
5441878036
5441885543
5441893234
5441899948
5441905624
5441912277
5441919052
5441923385
5441930892
5441935226
5441943527
5441948043
5441954757
5441960922
5441967635
5441976058
5441982772
5441987655
5441994064
5441999068
5442007674
5442013229
5442017440
5442024154
5442028487
5442037398
5442043014
5442048385
5442054427
5442061019
5442066756
5442071883
5442077743
5442084334
5442088973
5442095809
5442102340
5442106307
5442111251
5442117232
5442123702
5442129927
5442136153
5442141829
5442146895
5442151107
5442157515
5442162032
5442169417
5442175460
5442182296
5442186568
5442192671
5442198409
5442202437
5442208663
5442214278
5442220320
5442226668
5442232039
5442237044
5442242293
5442248580
5442253829
5442259627
5442267012
5442271834
5442277876
5442283980
5442288435
5442294661
5442299178
5442304671
5442311507
5442317488
5442323164
5442329878
5442334883
5442341170
5442346907
5442353804
5442359175
5442364546
5442369795
5442374129
5442380903
5442385237
5442394270
5442398909
5442406172
5442411238
5442418135
5442423506
5442431196
5442439680
5442448530
5442454939
5442460981
5442467390
5442471235
5442478254
5442484358
5442491194
5442496504
5442503218
5442509321
5442514631
5442525984
5442531294
5442538007
5442544538
5442549238
5442554426
5442560651
5442566938
5442572126
5442578352
5442583356
5442588117
5442593732
5442599592
5442605268
5442610151
5442616376
5442620832
5442627790
5442633405
5442638532
5442644330
5442649946
5442654706
5442662092
5442668378
5442674787
5442681135
5442686567
5442692243
5442698102
5442703718
5442708722
5442714643
5442721723
5442727155
5442731855
5442738202
5442743695
5442750409
5442756757
5442762921
5442768476
5442772687
5442779584
5442784711
5442790570
5442796979
5442801801
5442806745
5442813825
5442819867
5442825116
5442830060
5442835797
5442840253
5442846661
5442852704
5442859418
5442866071
5442873700
5442878339
5442884747
5442890179
5442895062
5442901227
5442906659
5442914716
5442920148
5442925580
5442932416
5442937665
5442942425
5442947735
5442953961
5442960614
5442968609
5442974957
5442982892
5442987591
5442999127
5443004254
5443010174
5443016522
5443020306
5443026471
5443030865
5443039410
5443045208
5443050274
5443059429
5443064068
5443070538
5443076092
5443083782
5443089520
5443094647
5443101849
5443107403
5443113812
5443120526
5443126995
5443132366
5443137921
5443145001
5443150128
5443157085
5443164654
5443171429
5443177044
5443184673
5443190105
5443195965
5443201824
5443209209
5443214764
5443220440
5443225933
5443232586
5443239361
5443244976
5443251079
5443257549
5443263897
5443269268
5443275799
5443281109
5443287029
5443292583
5443298320
5443304973
5443311748
5443317058
5443324993
5443329326
5443335857
5443341777
5443347515
5443354045
5443361614
5443365886
5443373699
5443379863
5443385601
5443390483
5443396221
5443403362
5443408550
5443415019
5443421123
5443426738
5443433757
5443439739
5443446513
5443451946
5443458049
5443465373
5443473064
5443480693
5443487102
5443494182
5443499675
5443505901
5443511638
5443517680
5443523418
5443531047
5443537456
5443544353
5443551433
5443558024
5443564128
5443569377
5443575725
5443581645
5443587687
5443594890
5443599833
5443606364
5443612223
5443618266
5443624919
5443630290
5443635356
5443641948
5443647563
5443653056
5443659037
5443665324
5443671488
5443678935
5443682963
5443689006
5443695841
5443702128
5443708109
5443714640
5443720011
5443726176
5443730998
5443737223
5443743571
5443750041
5443756693
5443761576
5443768107
5443773295
5443779520
5443785136
5443791483
5443796366
5443802836
5443807963
5443815226
5443821513
5443829447
5443834696
5443841166
5443846293
5443854532
5443861429
5443866800
5443872782
5443880533
5443886026
5443892252
5443897684
5443903910
5443911356
5443917398
5443923136
5443930582
5443937174
5443944742
5443949930
5443957071
5443962259
5443968424
5443977762
5443983621
5443989847
5443993631
5444000406
5444006449
5444012857
5444020853
5444028848
5444033975
5444040872
5444046610
5444054605
5444061014
5444066263
5444071695
5444077310
5444083353
5444087869
5444094522
5444099771
5444104654
5444109476
5444116067
5444121500
5444128152
5444132974
5444139871
5444144144
5444150308
5444156900
5444162820
5444168435
5444175454
5444184427
5444193643
5444202005
5444210122
5444218423
5444226236
5444235208
5444243020
5444252725
5444263833
5444272988
5444280862
5444288369
5444298379
5444307046
5444316079
5444326211
5444334695
5444343057
5444351601
5444360329
5444369546
5444378030
5444386941
5444396950
5444408059
5444417275
5444425942
5444434914
5444443032
5444452248
5444460854
5444469460
5444478066
5444486306
5444492165
5444505043
5444513405
5444521401
5444531105
5444539284
5444548867
5444554909
5444564125
5444573464
5444583046
5444590920
5444598915
5444610512
5444619240
5444628273
5444636757
5444645241
5444655312
5444664223
5444673561
5444684120
5444691261
5444701393
5444707863
5444718605
5444726845
5444737099
5444746864
5444755836
5444763954
5444774574
5444782387
5444790077
5444799537
5444810341
5444818397
5444826698
5444835548
5444843910
5444851722
5444862098
5444868812
5444878395
5444885658
5444894935
5444904090
5444910682
5444919959
5444928626
5444936683
5444946143
5444954261
5444961524
5444970496
5444978675
5444987403
5444993934
5445004737
5445014197
5445024390
5445036170
5445043677
5445053199
5445061622
5445069678
5445080298
5445088660
5445098304
5445107337
5445117347
5445126502
5445134436
5445143347
5445154761
5445163794
5445173133
5445181433
5445190772
5445200110
5445208716
5445215064
5445225562
5445234168
5445242407
5445251746
5445258215
5445270300
5445278662
5445288672
5445298010
5445308081
5445318518
5445327124
5445335425
5445344275
5445355017
5445364599
5445374182
5445382422
5445395117
5445405432
5445417456
5445430273
5445439001
5445450048
5445458776
5445466833
5445473852
5445484167
5445493505
5445502600
5445516943
5445530431
5445539587
5445546972
5445558813
5445571508
5445579870
5445586278
5445592260
5445597326
5445602514
5445610631
5445617528
5445622655
5445628393
5445634008
5445639989
5445646459
5445652929
5445658056
5445662511
5445668676
5445673559
5445680089
5445684972
5445692235
5445698827
5445704320
5445710057
5445715612
5445721349
5445726354
5445733251
5445738439
5445743566
5445749913
5445753759
5445760411
5445765355
5445771886
5445778478
5445782872
5445788793
5445794408
5445800633
5445806920
5445813207
5445818395
5445823949
5445828954
5445833836
5445841771
5445845433
5445851598
5445858067
5445863683
5445868565
5445873936
5445880223
5445884862
5445892064
5445898839
5445902745
5445909642
5445914769
5445921361
5445925450
5445932896
5445937718
5445943577
5445950963
5445957676
5445964573
5445971165
5445979222
5445985814
5445993565
5445998326
5446006749
5446012486
5446019383
5446025669
5446031773
5446037999
5446042576
5446051060
5446056675
5446065525
5446072178
5446078587
5446084141
5446090428
5446097508
5446102268
5446108921
5446114964
5446121861
5446126560
5446133457
5446139683
5446144810
5446150547
5446157261
5446163486
5446168980
5446174351
5446180515
5446185886
5446192295
5446198154
5446204807
5446210056
5446215366
5446221165
5446225986
5446231785
5446236790
5446244175
5446250828
5446256931
5446261753
5446267368
5446273594
5446277683
5446286533
5446291904
5446297519
5446303318
5446309421
5446314304
5446319858
5446325168
5446333164
5446339328
5446343723
5446351291
5446359409
5446363315
5446370395
5446377231
5446382114
5446388156
5446393894
5446398898
5446405124
5446409641
5446417087
5446422397
5446428989
5446434238
5446439060
5446445285
5446450107
5446456943
5446462314
5446468661
5446473300
5446479037
5446485568
5446491122
5446496860
5446502475
5446509128
5446515292
5446521945
5446529513
5446535068
5446541354
5446548312
5446555881
5446560397
5446566256
5446572543
5446577975
5446582553
5446591342
5446597079
5446603732
5446612216
5446619418
5446624423
5446632113
5446638034
5446643832
5446647921
5446654147
5446658847
5446664584
5446671725
5446676486
5446683932
5446686495
5446694552
5446699557
5446705782
5446710970
5446717501
5446722628
5446730196
5446735751
5446741549
5446748263
5446754488
5446760714
5446766573
5446772799
5446778292
5446784884
5446790133
5446794771
5446802096
5446808443
5446814608
5446819796
5446825777
5446831759
5446837191
5446842379
5446848482
5446854830
5446859408
5446867403
5446872835
5446878389
5446885164
5446890719
5446897799
5446903963
5446908113
5446913973
5446918245
5446924044
5446930880
5446937532
5446942903
5446947786
5446954256
5446958956
5446963961
5446970125
5446975130
5446980562
5446988375
5446993929
5447001192
5447006807
5447012850
5447019624
5447024629
5447030916
5447036165
5447042513
5447048982
5447055025
5447062349
5447069002
5447076753
5447084871
5447088838
5447097993
5447100679
5447110139
5447116182
5447122163
5447127595
5447134736
5447140230
5447146211
5447154512
5447159822
5447166414
5447171663
5447178438
5447183503
5447189729
5447194978
5447202485
5447208833
5447213044
5447220613
5447224946
5447231721
5447237336
5447244477
5447249726
5447256318
5447261079
5447266816
5447271516
5447277192
5447281404
5447289887
5447295258
5447301179
5447306245
5447311921
5447319062
5447324128
5447330842
5447336091
5447341828
5447347504
5447352876
5447359101
5447367402
5447373139
5447380952
5447387421
5447391511
5447397309
5447403840
5447409333
5447414948
5447421052
5447426484
5447432099
5447438752
5447444550
5447449311
5447455353
5447462616
5447468537
5447473908
5447479035
5447484955
5447490998
5447496247
5447503388
5447509797
5447514923
5447520905
5447526642
5447531769
5447536957
5447543244
5447549958
5447555390
5447560822
5447566071
5447571808
5447578034
5447583893
5447589691
5447595123
5447601166
5447606110
5447615265
5447621674
5447631867
5447640350
5447647308
5447653412
5447657562
5447663300
5447669159
5447676178
5447681671
5447691193
5447697784
5447707672
5447714996
5447721649
5447728668
5447737518
5447743561
5447749237
5447756195
5447762237
5447767669
5447775299
5447781097
5447786346
5447793243
5447799835
5447806610
5447812408
5447819549
5447825409
5447831634
5447838043
5447842376
5447849151
5447853424
5447860992
5447867156
5447872772
5447878814
5447883575
5447889312
5447895233
5447900604
5447907195
5447913421
5447917327
5447924285
5447929656
5447934600
5447940521
5447945770
5447951751
5447957732
5447962737
5447968963
5447973846
5447980071
5447986358
5447993682
5447998870
5448004058
5448009124
5448014922
5448019866
5448025725
5448031402
5448037566
5448043914
5448050384
5448054656
5448060759
5448065947
5448072112
5448079192
5448084624
5448089019
5448095549
5448100798
5448106353
5448113005
5448120269
5448126738
5448131133
5448137725
5448144133
5448149626
5448156157
5448163237
5448170500
5448174895
5448183745
5448189971
5448195036
5448200408
5448208403
5448215178
5448219511
5448225249
5448229399
5448237883
5448245634
5448253630
5448258574
5448264555
5448269865
5448274565
5448281767
5448287016
5448294401
5448298918
5448307097
5448313383
5448321501
5448326262
5448332487
5448338347
5448344572
5448350920
5448355131
5448360991
5448366545
5448372648
5448378508
5448384611
5448389738
5448394377
5448400297
5448406034
5448411711
5448416899
5448423674
5448428801
5448434904
5448439054
5448445524
5448450773
5448457304
5448461820
5448468473
5448474027
5448478056
5448484281
5448488371
5448494901
5448500395
5448506986
5448511991
5448519132
5448523649
5448530546
5448535490
5448541349
5448547269
5448552091
5448558012
5448564786
5448571012
5448576810
5448582120
5448586881
5448592435
5448598539
5448604154
5448609220
5448615690
5448621061
5448627042
5448632963
5448639799
5448645414
5448650235
5448655301
5448661283
5448666776
5448674344
5448683683
5448687650
5448694425
5448701261
5448710721
5448717374
5448725064
5448729825
5448737699
5448743070
5448749295
5448754666
5448761258
5448767240
5448775113
5448782865
5448790189
5448797330
5448802823
5448808072
5448814908
5448820340
5448826505
5448832913
5448838590
5448845059
5448849698
5448857144
5448862637
5448868069
5448873318
5448879971
5448885831
5448891446
5448898587
5448905362
5448910916
5448916958
5448921292
5448927517
5448932644
5448938931
5448945462
5448951199
5448957730
5448962613
5448969510
5448973843
5448979947
5448985379
5448992276
5448998867
5449004727
5449009793
5449016018
5449022122
5449027432
5449034451
5449041165
5449047268
5449052334
5449058743
5449063626
5449069668
5449076748
5449083218
5449088955
5449095730
5449100491
5449106899
5449111721
5449118435
5449125637
5449129971
5449137356
5449142849
5449148037
5449154690
5449161221
5449167141
5449173061
5449178249
5449183559
5449190456
5449196316
5449203274
5449209560
5449215542
5449220669
5449225673
5449232082
5449238552
5449244350
5449250942
5449258083
5449264797
5449271328
5449277187
5449283413
5449289455
5449295925
5449302639
5449307643
5449314540
5449319606
5449325832
5449331935
5449338283
5449345546
5449352260
5449358608
5449362819
5449370204
5449374477
5449381435
5449387355
5449394374
5449400478
5449406337
5449412074
5449417568
5449423244
5449430568
5449435634
5449441798
5449446620
5449452846
5449458766
5449465297
5449471889
5449478175
5449483424
5449487758
5449496242
5449502223
5449508082
5449513515
5449520656
5449525294
5449532008
5449537929
5449544520
5449549281
5449555507
5449560695
5449567225
5449574183
5449580714
5449586512
5449590907
5449598292
5449603114
5449610438
5449617213
5449621974
5449627406
5449633692
5449638819
5449645350
5449651942
5449658595
5449663844
5449670497
5449676661
5449681605
5449688075
5449694361
5449700892
5449706019
5449711634
5449718348
5449723597
5449729578
5449735743
5449741480
5449748133
5449753504
5449759974
5449765101
5449771021
5449776270
5449782923
5449789393
5449795801
5449802515
5449807825
5449815516
5449820521
5449829615
5449836878
5449842981
5449850123
5449855066
5449861963
5449867456
5449872828
5449879236
5449885401
5449891993
5449900049
5449907007
5449912683
5449918055
5449924280
5449930078
5449936792
5449942530
5449947962
5449954553
5449957361
5449966638
5449971948
5449978723
5449984949
5449989771
5449996057
5450002222
5450008753
5450014856
5450021021
5450027368
5450032861
5450039148
5450044946
5450050745
5450057581
5450063074
5450069299
5450074487
5450080835
5450086145
5450092920
5450098657
5450105310
5450111291
5450116907
5450123926
5450128686
5450135583
5450141504
5450149133
5450153711
5450160486
5450166040
5450172326
5450176782
5450184350
5450190088
5450194604
5450201745
5450208398
5450213830
5450219873
5450225244
5450229577
5450238183
5450243371
5450250390
5450256494
5450261315
5450267419
5450274133
5450280847
5450287560
5450293176
5450298608
5450305261
5450309960
5450316430
5450321618
5450329125
5450336205
5450341882
5450347314
5450353905
5450359460
5450365868
5450372155
5450377465
5450385338
5450392052
5450398888
5450404503
5450411706
5450416161
5450422631
5450429833
5450434166
5450441979
5450446312
5450452782
5450459496
5450466088
5450472313
5450480370
5450485924
5450492577
5450498253
5450503624
5450510643
5450516991
5450521141
5450527428
5450533043
5450539940
5450545983
5450552147
5450559349
5450563744
5450571434
5450576256
5450583092
5450588097
5450594566
5450599876
5450606590
5450611900
5450618675
5450623680
5450631126
5450636620
5450640831
5450648460
5450652977
5450660973
5450666405
5450672203
5450678001
5450684654
5450689537
5450697044
5450702232
5450708458
5450713402
5450721397
5450727318
5450733177
5450739403
5450743919
5450751793
5450756065
5450762779
5450767662
5450774437
5450779930
5450787010
5450794212
5450798301
5450806114
5450810874
5450817527
5450822959
5450829124
5450833580
5450839805
5450846092
5450852683
5450857810
5450862937
5450870323
5450877708
5450881675
5450888999
5450894798
5450899986
5450906394
5450913108
5450918662
5450925132
5450929038
5450936423
5450942832
5450949973
5450956687
5450965476
5450970664
5450976768
5450982871
5450988059
5450994163
5451000571
5451006614
5451012839
5451017234
5451025474
5451033896
5451039817
5451045310
5451052878
5451058921
5451064963
5451071372
5451077048
5451081382
5451087363
5451094016
5451098655
5451105429
5451111777
5451117148
5451123374
5451128684
5451133689
5451140463
5451146750
5451151755
5451157981
5451164572
5451170310
5451176413
5451182822
5451189169
5451194541
5451200461
5451207175
5451212119
5451217551
5451223593
5451230551
5451236349
5451242209
5451248251
5451252890
5451260031
5451265341
5451272604
5451277914
5451284079
5451289816
5451295553
5451300741
5451307272
5451314169
5451319662
5451326132
5451331869
5451336691
5451344137
5451349020
5451355856
5451362509
5451367209
5451373800
5451379171
5451384481
5451388693
5451396872
5451402243
5451408712
5451414572
5451420858
5451426718
5451432150
5451438925
5451444235
5451450582
5451456442
5451462667
5451468099
5451473470
5451479940
5451486593
5451492330
5451498800
5451507467
5451511984
5451519064
5451527120
5451535238
5451542196
5451547323
5451552633
5451559652
5451564718
5451571554
5451580099
5451585592
5451592000
5451598409
5451604391
5451609823
5451614034
5451622823
5451628621
5451635640
5451641683
5451646993
5451652425
5451659017
5451664510
5451670980
5451676351
5451682943
5451688070
5451694722
5451701314
5451707296
5451714070
5451720174
5451725484
5451731832
5451738484
5451743489
5451750142
5451755147
5451761678
5451766744
5451773213
5451780171
5451786702
5451792317
5451798238
5451805562
5451811482
5451817342
5451822469
5451829182
5451834126
5451840718
5451846333
5451852559
5451857686
5451863911
5451869771
5451875630
5451881489
5451887532
5451895283
5451899861
5451906758
5451912434
5451918416
5451922810
5451929280
5451935933
5451939900
5451947896
5451953450
5451959858
5451965107
5451971516
5451978108
5451984517
5451991108
5451995991
5452002461
5452007405
5452013447
5452020222
5452026142
5452031330
5452037312
5452044270
5452052509
5452059345
5452065815
5452074055
5452080586
5452086384
5452093098
5452098469
5452104389
5452110676
5452117207
5452123859
5452136616
5452143940
5452151325
5452156757
5452163044
5452168171
5452174457
5452179584
5452186237
5452192585
5452199482
5452205097
5452210651
5452216022
5452222492
5452228290
5452232685
5452240986
5452245624
5452252155
5452258014
5452262836
5452268695
5452274860
5452279560
5452286335
5452291767
5452298481
5452303852
5452310138
5452315448
5452321125
5452327167
5452333759
5452339191
5452345539
5452351154
5452356525
5452362934
5452368121
5452375263
5452380634
5452387225
5452392535
5452396991
5452401263
5452407123
5452412372
5452419818
5452425800
5452430316
5452437396
5452441791
5452449664
5452454181
5452460590
5452466937
5452472613
5452478534
5452484393
5452488177
5452494037
5452498370
5452505694
5452511615
5452518573
5452524493
5452529437
5452536395
5452541156
5452547747
5452552081
5452558795
5452564471
5452569049
5452573504
5452579791
5452584552
5452593890
5452599566
5452607989
5452615374
5452620928
5452628192
5452634967
5452641253
5452646746
5452651812
5452657122
5452662249
5452666705
5452676714
5452682757
5452689654
5452695208
5452699480
5452708453
5452711199
5452719988
5452726336
5452731585
5452737017
5452742693
5452746966
5452752947
5452759478
5452764117
5452770464
5452776385
5452782244
5452788592
5452794207
5452800188
5452808062
5452813738
5452817949
5452823687
5452829546
5452836321
5452842547
5452848955
5452855181
5452860674
5452865984
5452872271
5452878191
5452885332
5452891069
5452897600
5452904375
5452910051
5452914751
5452920000
5452926226
5452930803
5452938005
5452943010
5452949114
5452954790
5452958940
5452964861
5452971269
5452976396
5452982500
5452989641
5452994768
5453001054
5453006426
5453010942
5453017412
5453025896
5453032915
5453039445
5453045915
5453052751
5453057329
5453065629
5453070878
5453077043
5453081010
5453087541
5453093034
5453099199
5453107011
5453112626
5453119340
5453124711
5453132829
5453141191
5453148637
5453156938
5453163102
5453170304
5453174272
5453181535
5453185929
5453192521
5453199174
5453205583
5453214799
5453221574
5453228959
5453233903
5453240800
5453246415
5453251847
5453256974
5453261125
5453267716
5453274613
5453281205
5453286210
5453292191
5453297379
5453304032
5453310380
5453316422
5453335343
5453341325
5453346024
5453350968
5453357865
5453364030
5453369340
5453375565
5453379655
5453386551
5453391007
5453397660
5453402909
5453408951
5453415177
5453421036
5453426285
5453432572
5453437455
5453443436
5453448746
5453454239
5453459610
5453465592
5453471024
5453477311
5453482437
5453487748
5453492874
5453498123
5453504959
5453510758
5453517472
5453522354
5453527054
5453533402
5453538895
5453545731
5453550614
5453557144
5453561478
5453568375
5453574356
5453579727
5453586441
5453592117
5453596085
5453602188
5453609024
5453615189
5453621963
5453627823
5453633499
5453639236
5453644302
5453650040
5453654800
5453659439
5453669205
5453677444
5453683792
5453689407
5453697098
5453704239
5453710830
5453716629
5453720962
5453727371
5453732986
5453738296
5453746048
5453752456
5453761367
5453767898
5453774307
5453780227
5453784622
5453793472
5453799331
5453804946
5453810256
5453817153
5453821792
5453828628
5453834243
5453840408
5453847061
5453853286
5453858840
5453863784
5453871658
5453876540
5453883743
5453889663
5453896743
5453902297
5453908706
5453915542
5453920669
5453927261
5453934402
5453938796
5453945693
5453949721
5453957839
5453963698
5453970534
5453976638
5453981826
5453988173
5453994643
5454000136
5454007216
5454013930
5454020522
5454025100
5454031997
5454038100
5454043410
5454048842
5454055800
5454060927
5454067153
5454074843
5454079970
5454087844
5454093520
5454103469
5454109084
5454115309
5454122573
5454127822
5454134413
5454139845
5454146498
5454153151
5454157424
5454164870
5454169264
5454179396
5454184523
5454191420
5454196974
5454203017
5454208266
5454217116
5454229872
5454236342
5454243544
5454251112
5454256239
5454261549
5454267226
5454274794
5454279494
5454286146
5454292860
5454300429
5454308180
5454313490
5454320265
5454325758
5454332533
5454338209
5454342543
5454348707
5454353224
5454361158
5454366468
5454374403
5454382338
5454387770
5454394483
5454401319
5454406874
5454414686
5454420729
5454428114
5454433790
5454440260
5454447035
5454453199
5454460157
5454465162
5454472181
5454479444
5454484022
5454490308
5454497205
5454504041
5454510755
5454517347
5454523389
5454529615
5454535413
5454542005
5454548963
5454553785
5454560682
5454566114
5454572462
5454579236
5454585401
5454591565
5454595777
5454603284
5454609510
5454616102
5454621229
5454630018
5454635328
5454641126
5454647718
5454652478
5454659436
5454665357
5454671765
5454677869
5454684461
5454690992
5454695264
5454701612
5454707532
5454714307
5454720471
5454727124
5454732617
5454736951
5454745252
5454751416
5454757703
5454765210
5454772107
5454778272
5454784375
5454792737
5454800122
5454806226
5454813062
5454819104
5454824475
5454829114
5454835889
5454843274
5454855481
5454860730
5454867261
5454874951
5454880444
5454888135
5454894116
5454900464
5454905102
5454911511
5454916699
5454922863
5454930554
5454937207
5454942944
5454947583
5454955639
5454960522
5454966870
5454974072
5454980358
5454985730
5454992810
5454999218
5455003796
5455010021
5455017040
5455022595
5455029370
5455034252
5455040905
5455046154
5455052502
5455059521
5455063976
5455072033
5455078320
5455084484
5455089855
5455096447
5455103893
5455109936
5455115551
5455121166
5455126415
5455132397
5455137279
5455141613
5455146557
5455151012
5455156078
5455161144
5455165783
5455169933
5455174816
5455180858
5455184521
5455189281
5455192882
5455197826
5455201183
5455205944
5455211742
5455217174
5455221813
5455226818
5455231212
5455235058
5455239086
5455244274
5455249157
5455253856
5455259044
5455262157
5455266796
5455271434
5455277111
5455282299
5455286388
5455292797
5455296947
5455302806
5455306468
5455310680
5455315319
5455321361
5455325694
5455331615
5455335765
5455342357
5455349498
5455354747
5455360118
5455366893
5455371715
5455376109
5455382457
5455386607
5455392589
5455397105
5455403697
5455408153
5455413097
5455418285
5455423167
5455427440
5455432384
5455437083
5455442577
5455446849
5455452342
5455455943
5455461436
5455465587
5455471995
5455477183
5455481822
5455486094
5455491588
5455495372
5455499400
5455503367
5455508433
5455513255
5455518260
5455523021
5455528392
5455532908
5455538157
5455543223
5455547679
5455553538
5455558116
5455562693
5455566539
5455572825
5455577342
5455581858
5455586558
5455592967
5455597789
5455602671
5455607554
5455612620
5455616770
5455622203
5455626536
5455632212
5455638316
5455642405
5455646617
5455651804
5455656016
5455660288
5455664866
5455669260
5455674998
5455680125
5455684519
5455690134
5455694346
5455700205
5455705454
5455710337
5455715708
5455721201
5455727000
5455732432
5455738169
5455744150
5455748545
5455755991
5455760752
5455766978
5455771189
5455777415
5455782725
5455788889
5455793528
5455800120
5455805308
5455809580
5455814646
5455820383
5455825998
5455833933
5455839060
5455847055
5455851816
5455857004
5455862070
5455865610
5455870493
5455874521
5455879648
5455883432
5455889658
5455894358
5455901071
5455905588
5455911630
5455915720
5455923837
5455928110
5455933908
5455938608
5455943430
5455949533
5455954904
5455961374
5455966745
5455972116
5455977060
5455981088
5455987741
5455991464
5455999643
5456004587
5456009653
5456013742
5456021188
5456026010
5456031076
5456036142
5456044565
5456048532
5456055246
5456061349
5456067453
5456072702
5456078805
5456081796
5456088754
5456093026
5456099313
5456103891
5456110605
5456115976
5456119760
5456126291
5456131540
5456137216
5456142221
5456147165
5456152291
5456157907
5456163522
5456169503
5456174935
5456183175
5456189462
5456195504
5456199472
5456210763
5456218514
5456223641
5456231698
5456240243
5456246957
5456254220
5456261483
5456266427
5456274545
5456280648
5456285043
5456289681
5456295235
5456299569
5456305062
5456309457
5456315499
5456320748
5456325875
5456330575
5456336007
5456340890
5456345650
5456349801
5456354806
5456359933
5456368050
5456372262
5456378609
5456384652
5456389779
5456395943
5456399849
5456405831
5456409676
5456415474
5456420113
5456425240
5456427498
5456435433
5456439278
5456444832
5456449593
5456455391
5456460030
5456463936
5456468758
5456472664
5456479561
5456484993
5456489205
5456492745
5456498299
5456504219
5456509407
5456513741
5456518990
5456524178
5456529366
5456535530
5456539375
5456544258
5456548164
5456553963
5456559395
5456564583
5456569893
5456575325
5456580391
5456586922
5456592110
5456597664
5456602608
5456607124
5456613289
5456618172
5456625252
5456628731
5456635872
5456642341
5456646980
5456653633
5456658211
5456663704
5456669319
5456674812
5456680733
5456687263
5456692329
5456700020
5456704536
5456709663
5456718696
5456724983
5456730903
5456736030
5456742805
5456747139
5456753913
5456759162
5456765205
5456769722
5456775459
5456782478
5456788215
5456793708
5456799568
5456805793
5456813972
5456819343
5456827339
5456833137
5456838020
5456845222
5456850227
5456857246
5456862739
5456868293
5456873664
5456881355
5456887458
5456895637
5456902778
5456907905
5456913764
5456917853
5456923041
5456927863
5456932990
5456937629
5456943915
5456949225
5456955207
5456960090
5456964728
5456970649
5456975654
5456980964
5456985724
5456990729
5456993476
5457000800
5457006232
5457012336
5457017890
5457025092
5457029303
5457035285
5457038947
5457046088
5457050971
5457057563
5457062812
5457067023
5457072028
5457077155
5457081916
5457086432
5457091986
5457097113
5457104621
5457110724
5457117194
5457123664
5457129279
5457134528
5457140875
5457146857
5457152594
5457160285
5457166083
5457173346
5457178839
5457184943
5457191351
5457199103
5457204535
5457210516
5457215582
5457222235
5457227057
5457233954
5457239508
5457246161
5457252936
5457258429
5457263373
5457268927
5457275091
5457280218
5457284369
5457291144
5457295111
5457301581
5457308905
5457314947
5457321722
5457327642
5457333685
5457339605
5457344732
5457353033
5457357367
5457367437
5457376104
5457385626
5457393743
5457401983
5457412359
5457419988
5457428533
5457433843
5457443487
5457448309
5457459722
5457466985
5457472051
5457479498
5457488409
5457494207
5457499151
5457512456
5457519475
5457529180
5457534978
5457541082
5457548040
5457554754
5457560308
5457565313
5457571660
5457577947
5457585698
5457588689
5457597600
5457603399
5457608037
5457613164
5457620794
5457625921
5457633855
5457639714
5457644597
5457652044
5457657781
5457662725
5457667729
5457675115
5457680974
5457686894
5457693242
5457699224
5457705510
5457711736
5457718389
5457724431
5457731267
5457737676
5457743596
5457749822
5457756230
5457761540
5457768864
5457773381
5457779912
5457787175
5457792363
5457799199
5457803960
5457810185
5457815800
5457823186
5457829228
5457834721
5457840398
5457847356
5457853215
5457858769
5457865178
5457871464
5457877873
5457882695
5457890812
5457896611
5457901188
5457908268
5457914311
5457920781
5457925419
5457931401
5457939213
5457945927
5457951786
5457957280
5457961430
5457968083
5457974919
5457980717
5457985478
5457991398
5457995915
5458001774
5458007511
5458014042
5458018681
5458023625
5458029911
5458036564
5458042729
5458049381
5458056095
5458063419
5458070499
5458075748
5458083073
5458091007
5458098087
5458105167
5458110355
5458115848
5458122135
5458126591
5458131229
5458137577
5458144413
5458151798
5458156315
5458164554
5458170597
5458176456
5458180668
5458186893
5458190738
5458198490
5458204960
5458210270
5458215397
5458220523
5458224918
5458231571
5458236271
5458242191
5458247989
5458253055
5458255680
5458264286
5458268863
5458274295
5458279300
5458287357
5458291995
5458297855
5458304080
5458309818
5458312442
5458321720
5458326053
5458333133
5458340152
5458344791
5458352542
5458356082
5458362674
5458368472
5458374210
5458381717
5458389407
5458394778
5458402835
5458409000
5458413882
5458419009
5458426456
5458432498
5458438296
5458444278
5458449527
5458455020
5458461001
5458466556
5458472110
5458475100
5458484622
5458489505
5458495608
5458501468
5458506900
5458511294
5458518069
5458523074
5458529910
5458536746
5458541690
5458547732
5458553530
5458558230
5458563296
5458568423
5458574710
5458580691
5458586978
5458592593
5458597415
5458603030
5458608279
5458614260
5458620730
5458627810
5458634280
5458640261
5458646975
5458652712
5458658633
5458665530
5458675295
5458682253
5458689700
5458695681
5458702090
5458708071
5458715395
5458721072
5458726687
5458731936
5458737002
5458742007
5458748354
5458753664
5458760988
5458767153
5458773867
5458778750
5458784792
5458790651
5458797487
5458804079
5458809267
5458815554
5458822207
5458830080
5458835878
5458841188
5458848696
5458853029
5458859133
5458862490
5458872194
5458876161
5458882570
5458885622
5458893862
5458900942
5458904787
5458911379
5458915529
5458921755
5458926454
5458932924
5458938844
5458944460
5458948610
5458952821
5458961305
5458966005
5458971376
5458975893
5458981691
5458986757
5458993105
5458997926
5459005739
5459010499
5459016237
5459020753
5459026613
5459032289
5459039674
5459044557
5459049257
5459056581
5459062196
5459069337
5459074647
5459079835
5459085573
5459092347
5459098024
5459105165
5459110170
5459116822
5459121766
5459127748
5459132692
5459138917
5459144654
5459151368
5459156068
5459162049
5459167726
5459172975
5459178590
5459184266
5459190553
5459198487
5459204652
5459209352
5459216004
5459220704
5459226991
5459234498
5459238954
5459244630
5459252015
5459255433
5459263673
5459268922
5459276490
5459282960
5459288148
5459295716
5459302064
5459308289
5459313843
5459319764
5459326478
5459332337
5459338318
5459343445
5459348694
5459356080
5459359192
5459370118
5459377564
5459383973
5459388916
5459394349
5459399598
5459407776
5459413880
5459417542
5459424866
5459431458
5459437622
5459444397
5459449707
5459457215
5459462342
5459466492
5459473206
5459479248
5459485535
5459492188
5459498230
5459501526
5459508545
5459514038
5459521301
5459526123
5459532288
5459537537
5459542664
5459550171
5459554382
5459559814
5459565613
5459572205
5459577087
5459583130
5459589050
5459596435
5459601501
5459607300
5459610474
5459619995
5459623352
5459631836
5459636413
5459643188
5459649109
5459656738
5459661377
5459666137
5459672973
5459679321
5459686096
5459691223
5459697632
5459703979
5459711914
5459715393
5459722534
5459726318
5459732421
5459737793
5459742553
5459747192
5459754699
5459760864
5459767333
5459772094
5459778625
5459784179
5459789489
5459796020
5459800109
5459807983
5459812927
5459820373
5459824584
5459829955
5459835937
5459841308
5459847778
5459853820
5459859618
5459866698
5459872375
5459878234
5459883788
5459889709
5459896484
5459904357
5459909972
5459914489
5459922607
5459927001
5459935546
5459940673
5459946532
5459953368
5459958861
5459965392
5459971129
5459978942
5459985289
5459990661
5459997924
5460005980
5460013121
5460019652
5460026244
5460032164
5460036803
5460041564
5460049254
5460056090
5460060790
5460066710
5460072631
5460076903
5460083922
5460089171
5460095336
5460102355
5460107909
5460114440
5460120726
5460127623
5460132994
5460138365
5460144042
5460150755
5460158141
5460165038
5460171446
5460177611
5460182738
5460188170
5460192625
5460198668
5460203123
5460210753
5460217406
5460223082
5460228148
5460233519
5460240050
5460245604
5460250975
5460256102
5460263792
5460268431
5460273985
5460279112
5460286070
5460290953
5460297056
5460302671
5460309874
5460313353
5460321287
5460325621
5460332640
5460337095
5460344236
5460349119
5460356504
5460361143
5460366697
5460373167
5460378233
5460383665
5460389768
5460394773
5460401853
5460407774
5460413877
5460419004
5460424558
5460429746
5460434873
5460441038
5460446470
5460453794
5460460203
5460465513
5460471616
5460475706
5460482725
5460487119
5460492918
5460498838
5460505430
5460511472
5460516477
5460523984
5460529783
5460535398
5460542783
5460548459
5460556394
5460560850
5460567136
5460571653
5460578428
5460582639
5460590024
5460594785
5460601987
5460607785
5460614866
5460622434
5460628965
5460634458
5460640012
5460645566
5460653379
5460659238
5460664670
5460669248
5460675595
5460680722
5460686521
5460692807
5460698544
5460703732
5460709531
5460716489
5460722165
5460727170
5460731381
5460736997
5460742551
5460751584
5460757138
5460763242
5460767758
5460774655
5460780392
5460786435
5460789304
5460799679
5460802914
5460809689
5460815732
5460820614
5460826718
5460832272
5460836667
5460842343
5460849728
5460856564
5460861386
5460866208
5460872921
5460877560
5460883847
5460889035
5460895077
5460900692
5460906857
5460913266
5460918698
5460923458
5460928891
5460935604
5460942135
5460947445
5460953488
5460958065
5460964962
5460969418
5460975826
5460980587
5460989437
5460994015
5461000729
5461007137
5461012142
5461018490
5461023190
5461028500
5461035275
5461042477
5461048458
5461053768
5461058895
5461067013
5461071529
5461078732
5461084286
5461091915
5461097713
5461103817
5461109066
5461116329
5461121761
5461128170
5461135738
5461141842
5461149898
5461154842
5461162410
5461167782
5461174740
5461179683
5461186580
5461193294
5461198421
5461204281
5461211422
5461219417
5461224422
5461232662
5461238948
5461248165
5461253231
5461259639
5461264095
5461271053
5461275142
5461281307
5461287105
5461291561
5461298213
5461304988
5461309383
5461315730
5461321712
5461326228
5461332454
5461337459
5461344905
5461350276
5461355525
5461360835
5461367244
5461372432
5461378108
5461384517
5461391719
5461397822
5461403194
5461407283
5461414241
5461418941
5461425105
5461431514
5461438167
5461441340
5461449031
5461454402
5461460444
5461465083
5461470637
5461475642
5461485774
5461491206
5461497310
5461502620
5461508479
5461514277
5461519709
5461524775
5461530635
5461541438
5461546382
5461554255
5461558528
5461566279
5461570674
5461577815
5461583979
5461591181
5461596003
5461603022
5461608393
5461613886
5461620234
5461625666
5461632197
5461638056
5461644099
5461649897
5461656855
5461662714
5461667414
5461674067
5461681635
5461688959
5461694086
5461699885
5461706721
5461712519
5461718012
5461724726
5461730585
5461738337
5461745844
5461753290
5461759394
5461770319
5461777033
5461784479
5461790827
5461799006
5461804560
5461810907
5461817499
5461821283
5461828302
5461833307
5461840570
5461845209
5461853083
5461860224
5461866571
5461874628
5461878900
5461884638
5461889215
5461897638
5461901178
5461908441
5461911798
5461920648
5461925653
5461930353
5461937982
5461943903
5461949640
5461955804
5461961542
5461967645
5461972955
5461978082
5461983942
5461989679
5461995782
5461999322
5462007074
5462012750
5462020441
5462025201
5462029901
5462037530
5462042352
5462050165
5462055230
5462061151
5462067437
5462072748
5462077752
5462084100
5462090020
5462096246
5462101434
5462106561
5462113031
5462118829
5462123590
5462128106
5462136346
5462141412
5462148614
5462153009
5462159600
5462165155
5462171502
5462177728
5462183160
5462186944
5462193963
5462199944
5462206841
5462212212
5462217950
5462221307
5462227105
5462234856
5462239617
5462246331
5462251397
5462257867
5462263726
5462269158
5462274285
5462281304
5462286797
5462294305
5462301079
5462306389
5462313042
5462318596
5462326104
5462331841
5462337700
5462344231
5462350457
5462355584
5462362603
5462368706
5462374627
5462380059
5462387139
5462393181
5462399590
5462407463
5462413384
5462420891
5462427544
5462434990
5462441338
5462445793
5462451714
5462458550
5462462151
5462470696
5462474175
5462482781
5462488640
5462492912
5462500908
5462507256
5462514458
5462519341
5462525688
5462531792
5462537285
5462544182
5462549492
5462553764
5462562248
5462568169
5462575005
5462579765
5462585503
5462590996
5462595879
5462602898
5462607475
5462614311
5462619926
5462626396
5462630729
5462636528
5462641533
5462648247
5462654472
5462660515
5462667045
5462671684
5462676201
5462683708
5462689445
5462695182
5462699760
5462705558
5462711967
5462718132
5462723503
5462729118
5462735527
5462741142
5462745658
5462752372
5462758842
5462765983
5462770439
5462776786
5462780754
5462787467
5462791557
5462799003
5462805106
5462811454
5462817741
5462823417
5462827628
5462835990
5462839835
5462845939
5462851493
5462859428
5462865958
5462870536
5462876701
5462881950
5462886954
5462893241
5462899650
5462905326
5462910636
5462916739
5462923759
5462929435
5462935782
5462942496
5462947440
5462952445
5462958610
5462967765
5462972709
5462980277
5462986869
5462993460
5463000296
5463006949
5463012992
5463021048
5463028617
5463036429
5463044364
5463050955
5463061392
5463070365
5463077994
5463085684
5463095328
5463105948
5463111807
5463121512
5463127737
5463136649
5463141470
5463153616
5463161429
5463166067
5463176932
5463187064
5463195181
5463211050
5463216849
5463223990
5463230704
5463232657
5463246390
5463252432
5463261282
5463267569
5463274832
5463281973
5463290396
5463297598
5463302176
5463314383
5463322195
5463327627
5463335806
5463342153
5463351065
5463355398
5463365957
5463372610
5463379263
5463386709
5463395437
5463402883
5463411306
5463417288
5463424490
5463431814
5463439504
5463444265
5463455984
5463460378
5463469411
5463476003
5463482107
5463489431
5463496389
5463504751
5463509206
5463521291
5463528982
5463533986
5463545400
5463552236
5463559438
5463566701
5463573659
5463582814
5463585012
5463598134
5463607778
5463615712
5463623098
5463630361
5463637807
5463644216
5463652944
5463657338
5463668263
5463674306
5463682302
5463690358
5463697255
5463703175
5463709889
5463716542
5463724233
5463731923
5463740407
5463748280
5463754201
5463763661
5463769704
5463777150
5463784291
5463793568
5463798390
5463814503
5463819142
5463830128
5463837208
5463845143
5463853627
5463858326
5463866688
5463877736
5463886342
5463895985
5463904042
5463911122
5463918141
5463924794
5463936207
5463938587
5463951466
5463960255
5463968678
5463982716
5463991444
5463995594
5464004444
5464012074
5464019154
5464026478
5464030445
5464041187
5464045521
5464055592
5464062550
5464069202
5464076710
5464083607
5464092884
5464098377
5464112476
5464119190
5464126575
5464133289
5464138294
5464145740
5464151294
5464155994
5464160877
5464168628
5464173999
5464179920
5464184925
5464189563
5464195728
5464200794
5464206470
5464212390
5464217639
5464225269
5464230030
5464235584
5464238574
5464246753
5464251514
5464262012
5464267688
5464273425
5464279224
5464285266
5464290576
5464296130
5464299060
5464306873
5464311633
5464318530
5464323474
5464328418
5464334888
5464339221
5464345996
5464354297
5464360400
5464366016
5464373157
5464378528
5464383533
5464389270
5464394824
5464400989
5464407764
5464412097
5464418628
5464425342
5464430469
5464436755
5464442737
5464447619
5464454883
5464459765
5464466113
5464471484
5464477038
5464483569
5464488696
5464494921
5464500354
5464506030
5464511767
5464518542
5464523303
5464529284
5464535266
5464541308
5464547167
5464553088
5464558886
5464565844
5464572802
5464578784
5464584826
5464592333
5464598559
5464603564
5464610339
5464613940
5464622424
5464627551
5464636156
5464642748
5464649401
5464654894
5464662157
5464669787
5464676745
5464681444
5464686388
5464694079
5464698473
5464705492
5464710619
5464716723
5464723437
5464729174
5464734667
5464742235
5464748217
5464754198
5464758837
5464765307
5464770311
5464777758
5464783007
5464787645
5464794725
5464799059
5464806139
5464811449
5464817247
5464822863
5464828661
5464831835
5464840074
5464849962
5464856127
5464863207
5464869921
5464874742
5464880907
5464886888
5464892992
5464898790
5464906725
5464912462
5464918932
5464924181
5464932176
5464937669
5464944078
5464949510
5464955736
5464961534
5464971117
5464976244
5464985155
5464989854
5464996202
5465003404
5465009752
5465016771
5465022752
5465029466
5465035264
5465041429
5465046556
5465052171
5465057908
5465063646
5465070970
5465076463
5465082750
5465086473
5465092698
5465098008
5465104905
5465109727
5465116502
5465122483
5465129441
5465138230
5465144578
5465157334
5465166673
5465177537
5465185166
5465196580
5465204636
5465211411
5465216843
5465222337
5465228257
5465235032
5465240342
5465247544
5465252244
5465258958
5465263474
5465270005
5465275925
5465283860
5465290208
5465294846
5465301438
5465305344
5465313645
5465320359
5465326951
5465333603
5465339219
5465341843
5465348435
5465352585
5465358872
5465364182
5465374558
5465379990
5465385239
5465389328
5465395920
5465400376
5465407151
5465411118
5465418930
5465424729
5465429856
5465434006
5465439804
5465444199
5465451218
5465455918
5465463547
5465468613
5465475754
5465479965
5465485703
5465492172
5465496872
5465503342
5465509689
5465514999
5465521042
5465526169
5465531296
5465536850
5465543686
5465549301
5465554306
5465561813
5465567795
5465573288
5465578171
5465583969
5465589767
5465595016
5465600143
5465606125
5465612594
5465618088
5465623581
5465629684
5465634384
5465640304
5465644760
5465653000
5465657516
5465664169
5465668747
5465675033
5465681503
5465685104
5465691940
5465699508
5465705490
5465711410
5465716293
5465721054
5465727462
5465731613
5465739425
5465745468
5465751266
5465756942
5465762802
5465767745
5465775192
5465780807
5465786239
5465789291
5465797591
5465802474
5465808700
5465814864
5465820480
5465824996
5465831100
5465837386
5465843673
5465848617
5465855086
5465859847
5465865401
5465871322
5465879073
5465884627
5465891341
5465898482
5465905929
5465910201
5465915206
5465921554
5465926009
5465932845
5465938888
5465948531
5465954390
5465960067
5465966658
5465975447
5465980574
5465986983
5465992903
5465998153
5466003951
5466010360
5466014571
5466022139
5466026473
5466032088
5466039107
5466045088
5466050643
5466056380
5466061446
5466067122
5466071700
5466079268
5466083602
5466090865
5466095625
5466102339
5466106673
5466114241
5466119612
5466124800
5466131209
5466136641
5466143477
5466149458
5466153914
5466158797
5466165327
5466170943
5466176314
5466182234
5466187727
5466192427
5466199385
5466203108
5466210554
5466215620
5466220991
5466226912
5466232710
5466239241
5466243452
5466247786
5466255293
5466261885
5466266096
5466272322
5466277998
5466282881
5466288740
5466295210
5466299421
5466306501
5466311384
5466316938
5466325300
5466332380
5466337263
5466343550
5466348127
