5467743692
5467750773
5467755350
5467760782
5467766459
5467770914
5467777506
5467784342
5467789591
5467795450
5467799478
5467806559
5467812052
5467818827
5467825113
5467830301
5467839517
5467845072
5467849283
5467857462
5467863870
5467870950
5467876138
5467881571
5467888101
5467897684
5467905130
5467913614
5467924051
5467930643
5467939371
5467945291
5467953653
5467959939
5467967325
5467971292
5467980752
5467988138
5467995157
5468002359
5468009256
5468017373
5468024270
5468031717
5468039712
5468047891
5468059182
5468065774
5468072915
5468080484
5468086099
5468094033
5468103555
5468110513
5468116738
5468123391
5468132730
5468138955
5468147317
5468154153
5468162209
5468169656
5468176003
5468184182
5468191689
5468201028
5468206948
5468215493
5468224282
5468229775
5468239358
5468249367
5468257058
5468263772
5468271645
5468280007
5468287087
5468295571
5468302651
5468311989
5468319558
5468325417
5468333962
5468341835
5468348549
5468356240
5468364235
5468371865
5468378823
5468386208
5468393959
5468402077
5468410134
5468417946
5468425942
5468432717
5468439553
5468448219
5468453346
5468464211
5468472450
5468478798
5468490395
5468497047
5468504982
5468519569
5468528358
5468536964
5468544960
5468553688
5468560036
5468572121
5468578956
5468590187
5468598427
5468606056
5468611488
5468620155
5468624977
5468635536
5468644081
5468652992
5468662025
5468670814
5468678077
5468684547
5468693336
5468699989
5468708412
5468714637
5468723609
5468730934
5468739356
5468746925
5468754371
5468762367
5468770179
5468777870
5468783363
5468791908
5468800147
5468808692
5468814979
5468822425
5468828712
5468838355
5468844642
5468852271
5468858802
5468867835
5468876746
5468882300
5468891273
5468898719
5468904456
5468912940
5468921851
5468929297
5468937415
5468944922
5468951026
5468958472
5468966101
5468973487
5468981360
5468989478
5468996375
5469002112
5469011145
5469016883
5469025977
5469031775
5469047034
5469054236
5469059851
5469068518
5469076575
5469083472
5469089819
5469098853
5469105322
5469114294
5469121985
5469129370
5469135840
5469142920
5469150976
5469158728
5469165747
5469172095
5469180884
5469187903
5469196631
5469204687
5469213720
5469218664
5469229345
5469238440
5469245337
5469252050
5469263891
5469272802
5469278845
5469288732
5469294775
5469303625
5469309423
5469318579
5469327307
5469336035
5469342016
5469350805
5469356970
5469365270
5469371435
5469380834
5469388830
5469396764
5469404211
5469411718
5469416235
5469426733
5469437109
5469443395
5469451147
5469457189
5469465307
5469471227
5469479101
5469485509
5469491613
5469497899
5469509313
5469515661
5469522680
5469529943
5469536840
5469543981
5469551793
5469558934
5469566747
5469574681
5469580663
5469587682
5469593480
5469602330
5469608922
5469616918
5469625402
5469633092
5469639195
5469646703
5469654332
5469661900
5469671788
5469680333
5469686742
5469694554
5469701390
5469707738
5469715794
5469724705
5469733311
5469739842
5469747716
5469754124
5469762364
5469768590
5469778660
5469785863
5469798131
5469804600
5469814976
5469822911
5469829625
5469839024
5469848118
5469856724
5469863438
5469871556
5469878453
5469887120
5469894627
5469902989
5469912205
5469919590
5469927403
5469934422
5469941685
5469949070
5469956211
5469964146
5469970432
5469978428
5469986546
5469994907
5470002476
5470010349
5470017857
5470027195
5470034397
5470043369
5470054722
5470062290
5470070408
5470079258
5470087070
5470094333
5470103245
5470110996
5470118137
5470126377
5470135227
5470143833
5470150608
5470157993
5470165561
5470174228
5470181064
5470188449
5470197666
5470204257
5470211826
5470220249
5470226901
5470236423
5470244113
5470248874
5470259250
5470267246
5470274997
5470282871
5470291354
5470301059
5470307590
5470314914
5470320102
5470328036
5470332431
5470340610
5470347079
5470354465
5470358798
5470367282
5470373569
5470379611
5470385409
5470391452
5470397128
5470402804
5470410983
5470416049
5470421725
5470427829
5470433261
5470439486
5470445224
5470450595
5470458285
5470464389
5470469638
5470477450
5470483432
5470488986
5470494906
5470500765
5470506564
5470513278
5470519198
5470524142
5470529879
5470535678
5470541049
5470548129
5470552828
5470558871
5470563693
5470570467
5470575228
5470582125
5470588717
5470594942
5470600741
5470606295
5470612399
5470618746
5470624117
5470629061
5470637362
5470643587
5470649325
5470655245
5470659884
5470667025
5470673556
5470680514
5470685457
5470692110
5470697420
5470702608
5470706026
5470712557
5470718355
5470726107
5470731173
5470737398
5470743929
5470748812
5470754610
5470760164
5470767244
5470771822
5470777254
5470782076
5470789339
5470795259
5470801363
5470807588
5470812410
5470818880
5470824861
5470831087
5470835054
5470841524
5470846407
5470853670
5470859895
5470865144
5470869600
5470876558
5470882234
5470887910
5470891145
5470898592
5470904878
5470911165
5470917879
5470922090
5470928682
5470933870
5470940523
5470945772
5470951082
5470956514
5470963472
5470969453
5470974824
5470980256
5470985933
5470991548
5470997773
5471004365
5471009248
5471016084
5471022249
5471028047
5471032747
5471038301
5471044954
5471049470
5471054658
5471061616
5471068208
5471074006
5471079499
5471084809
5471089387
5471094880
5471100495
5471106599
5471113313
5471119599
5471125093
5471129548
5471135163
5471139863
5471146089
5471151215
5471157868
5471164643
5471170991
5471177277
5471181550
5471188813
5471194672
5471200349
5471205354
5471212617
5471218171
5471223847
5471227387
5471234528
5471240815
5471247651
5471252534
5471258759
5471265412
5471271332
5471277375
5471281403
5471288666
5471293549
5471300446
5471305878
5471312470
5471317475
5471323151
5471327729
5471334382
5471337494
5471346100
5471351654
5471357941
5471364167
5471368378
5471376374
5471381012
5471386261
5471391266
5471398468
5471403900
5471410980
5471416718
5471420746
5471425934
5471431915
5471435639
5471443756
5471450348
5471454559
5471461395
5471467133
5471473053
5471477814
5471483795
5471489105
5471495880
5471501862
5471508820
5471514679
5471519440
5471522674
5471531952
5471538727
5471543487
5471550506
5471555450
5471560760
5471567169
5471572418
5471578705
5471584259
5471591339
5471596771
5471602813
5471607574
5471614471
5471621185
5471626068
5471632354
5471637176
5471643524
5471652740
5471659027
5471664398
5471670562
5471676300
5471684051
5471688751
5471695831
5471702239
5471708221
5471714996
5471720855
5471726837
5471732391
5471739410
5471745452
5471751434
5471756500
5471763091
5471770049
5471775970
5471781646
5471786407
5471792510
5471797820
5471804534
5471809966
5471816253
5471821258
5471826568
5471829986
5471836944
5471842742
5471848662
5471855254
5471861419
5471867522
5471873382
5471878448
5471883758
5471890593
5471895904
5471902068
5471907256
5471914336
5471920318
5471927031
5471932952
5471938506
5471943877
5471950164
5471957061
5471960723
5471968291
5471971526
5471980010
5471987761
5471992827
5472000212
5472004912
5472011565
5472016081
5472021819
5472026946
5472032744
5472038786
5472046050
5472049223
5472055632
5472061919
5472067839
5472073821
5472079802
5472085844
5472090666
5472097502
5472103911
5472109709
5472114470
5472120146
5472125029
5472131438
5472137114
5472143645
5472147490
5472154753
5472161467
5472166838
5472171538
5472177458
5472182829
5472189177
5472195036
5472199309
5472206877
5472212370
5472218535
5472225493
5472230558
5472235197
5472241545
5472248075
5472254301
5472257902
5472266630
5472272978
5472277311
5472283232
5472287809
5472296232
5472301298
5472307524
5472313261
5472320951
5472326628
5472331571
5472337919
5472344267
5472350614
5472356901
5472362394
5472368314
5472373014
5472378324
5472384916
5472391569
5472397245
5472403593
5472408659
5472413419
5472419645
5472425016
5472431791
5472436979
5472443265
5472447599
5472453031
5472459012
5472465177
5472471891
5472477811
5472483915
5472489164
5472495328
5472502591
5472507840
5472513944
5472519864
5472525541
5472531339
5472537381
5472545377
5472556241
5472562223
5472573514
5472579373
5472589933
5472599027
5472607450
5472615811
5472626859
5472637174
5472646512
5472654447
5472663236
5472669583
5472679593
5472689420
5472699002
5472707791
5472716397
5472725369
5472735440
5472744229
5472753506
5472762845
5472772976
5472780911
5472790066
5472798428
5472807827
5472816189
5472825222
5472833645
5472842251
5472850735
5472859402
5472867031
5472877529
5472886502
5472895046
5472901028
5472911831
5472920986
5472930752
5472937771
5472947659
5472956814
5472964382
5472974758
5472980068
5472991055
5473000515
5473008999
5473017239
5473025722
5473034756
5473044277
5473052578
5473059597
5473069179
5473076504
5473086391
5473094570
5473103359
5473112270
5473120815
5473129360
5473135769
5473146022
5473152370
5473161281
5473170681
5473179470
5473186611
5473197109
5473207912
5473216274
5473225246
5473231838
5473242397
5473251674
5473259670
5473266689
5473276332
5473283351
5473292934
5473301051
5473310023
5473320033
5473326320
5473335109
5473342677
5473351710
5473357448
5473368312
5473377040
5473385463
5473394801
5473405970
5473415553
5473423060
5473431300
5473439906
5473448451
5473457362
5473465968
5473474757
5473483241
5473491175
5473500270
5473508692
5473518397
5473525050
5473534876
5473543849
5473553858
5473564112
5473571131
5473580897
5473587977
5473598719
5473607569
5473615809
5473625452
5473634058
5473643763
5473651453
5473661463
5473669275
5473677210
5473686854
5473695276
5473705042
5473714380
5473722620
5473731104
5473742578
5473751123
5473758387
5473769678
5473778284
5473788477
5473796472
5473805200
5473815393
5473826013
5473834192
5473843652
5473852380
5473860864
5473867883
5473878625
5473888879
5473896631
5473905420
5473914148
5473923791
5473930444
5473940332
5473949731
5473957727
5473969140
5473974817
5473985437
5473991052
5473997033
5474003564
5474010034
5474015161
5474021203
5474027795
5474035974
5474041711
5474047021
5474052514
5474060205
5474065637
5474072045
5474078881
5474084741
5474089807
5474094079
5474100060
5474106286
5474111962
5474118249
5474123803
5474129723
5474135034
5474141015
5474146020
5474153161
5474158898
5474164452
5474170312
5474175805
5474180932
5474186547
5474192040
5474196923
5474203759
5474209374
5474214928
5474220849
5474225671
5474231957
5474238122
5474244530
5474250085
5474256005
5474261986
5474268334
5474276574
5474282677
5474288842
5474294518
5474300255
5474306115
5474311364
5474317955
5474326378
5474332055
5474337975
5474343468
5474350304
5474357323
5474361901
5474369408
5474375328
5474381737
5474385521
5474392174
5474399864
5474406334
5474411766
5474417198
5474423668
5474428124
5474434776
5474441673
5474446251
5474453331
5474459618
5474464561
5474469505
5474476830
5474480309
5474487022
5474492577
5474498314
5474504051
5474510033
5474516746
5474521751
5474527305
5474534508
5474538780
5474545311
5474551903
5474557213
5474562828
5474568382
5474575462
5474581749
5474586448
5474592064
5474598167
5474604698
5474610008
5474616600
5474622703
5474628563
5474633567
5474639366
5474644920
5474651084
5474656944
5474663414
5474669700
5474676353
5474681358
5474687889
5474693443
5474699485
5474705955
5474711082
5474717796
5474722495
5474728416
5474734580
5474739280
5474747276
5474752342
5474758872
5474764365
5474769981
5474777488
5474783652
5474789512
5474795371
5474800254
5474808982
5474814902
5474822043
5474828086
5474833640
5474840110
5474845054
5474852988
5474860129
5474865256
5474872825
5474878257
5474885459
5474892051
5474898459
5474903525
5474909201
5474917014
5474922934
5474928855
5474934104
5474938498
5474946006
5474953452
5474958762
5474964804
5474969626
5474975669
5474981833
5474987509
5474993552
5475000632
5475005393
5475011618
5475018088
5475022727
5475028952
5475034201
5475040366
5475046347
5475052329
5475058005
5475062155
5475069846
5475075339
5475081931
5475086935
5475093100
5475098471
5475104330
5475110861
5475116171
5475122641
5475127157
5475134665
5475140341
5475145407
5475148947
5475156698
5475164084
5475169333
5475175070
5475180258
5475187094
5475191977
5475197348
5475203573
5475209860
5475216269
5475220724
5475227743
5475233053
5475239218
5475244711
5475251120
5475257345
5475262167
5475268453
5475273764
5475279806
5475286520
5475291525
5475298483
5475303976
5475309530
5475315817
5475323385
5475327902
5475334310
5475339803
5475345480
5475350912
5475356710
5475363302
5475371053
5475377035
5475382223
5475389425
5475396261
5475402120
5475407308
5475413595
5475419088
5475425313
5475429830
5475439901
5475443929
5475450704
5475457845
5475464193
5475470357
5475475057
5475481771
5475487386
5475491842
5475498555
5475504293
5475509114
5475514669
5475519185
5475524678
5475531148
5475536580
5475543050
5475548665
5475553609
5475560201
5475564900
5475571553
5475577535
5475582601
5475590718
5475596395
5475602071
5475605672
5475613912
5475617391
5475626119
5475631673
5475637227
5475642964
5475647359
5475654073
5475660298
5475666646
5475671651
5475680135
5475685200
5475690266
5475696126
5475701375
5475705952
5475712910
5475719136
5475724629
5475727986
5475734700
5475740315
5475745808
5475752156
5475758626
5475764973
5475769246
5475775654
5475782124
5475788411
5475793965
5475799641
5475806660
5475810933
5475816182
5475821797
5475825093
5475832661
5475837483
5475843159
5475848286
5475854389
5475861286
5475866352
5475873066
5475879536
5475884541
5475890644
5475894917
5475901264
5475907612
5475912800
5475918842
5475923725
5475930378
5475937641
5475943562
5475949787
5475956745
5475962421
5475967182
5475972797
5475977863
5475985065
5475991108
5475996540
5476001484
5476008198
5476013508
5476019184
5476025715
5476031513
5476037433
5476041523
5476047138
5476052692
5476058246
5476064960
5476071552
5476077594
5476083942
5476090046
5476095966
5476099933
5476105610
5476111652
5476117145
5476122272
5476128192
5476134479
5476139301
5476144916
5476151508
5476157489
5476162677
5476168903
5476173480
5476179035
5476183734
5476190082
5476197284
5476202899
5476208209
5476212360
5476217792
5476223224
5476229327
5476234088
5476239764
5476245563
5476250751
5476256732
5476262225
5476267902
5476274066
5476280170
5476286700
5476290057
5476297198
5476303302
5476309527
5476315326
5476321551
5476326556
5476332843
5476339190
5476344623
5476351581
5476355548
5476363116
5476369708
5476375323
5476381549
5476387957
5476393267
5476399188
5476404437
5476411761
5476415850
5476420550
5476427386
5476433490
5476438800
5476442095
5476449908
5476455279
5476461993
5476468646
5476474749
5476481219
5476487567
5476494280
5476499468
5476505572
5476512713
5476519122
5476522723
5476530230
5476536578
5476542254
5476546893
5476552386
5476558001
5476563982
5476570452
5476575213
5476582354
5476587664
5476593096
5476597735
5476603838
5476608782
5476616106
5476621905
5476627459
5476633806
5476639544
5476645281
5476651385
5476657061
5476662859
5476668108
5476674578
5476681841
5476686419
5476692644
5476697893
5476705095
5476708391
5476716570
5476722124
5476727922
5476733416
5476739031
5476747026
5476754473
5476761675
5476768022
5476773455
5476780046
5476785539
5476790972
5476795610
5476802263
5476807573
5476813188
5476819170
5476824663
5476830095
5476835344
5476841570
5476845964
5476852312
5476858049
5476864702
5476869157
5476875200
5476880144
5476887407
5476892717
5476899187
5476904741
5476910600
5476915788
5476921464
5476926286
5476933000
5476938737
5476944291
5476949418
5476955400
5476960527
5476966569
5476973161
5476980058
5476984453
5476990373
5476995195
5477002336
5477009416
5477014909
5477021257
5477026872
5477033708
5477037736
5477044328
5477050492
5477056474
5477061845
5477067643
5477072709
5477078996
5477084428
5477089799
5477096330
5477100785
5477108842
5477114091
5477118913
5477125382
5477130937
5477136674
5477142228
5477148393
5477154069
5477158891
5477164567
5477170243
5477174882
5477182023
5477189469
5477194962
5477199540
5477205033
5477211136
5477217057
5477223038
5477227616
5477234574
5477240433
5477245560
5477251481
5477256608
5477261918
5477268448
5477276200
5477279618
5477286454
5477292801
5477298050
5477303605
5477309281
5477315995
5477320877
5477326859
5477333084
5477337906
5477342972
5477348709
5477357010
5477361038
5477367508
5477373612
5477379471
5477384110
5477390091
5477395218
5477402298
5477408219
5477413406
5477419632
5477425491
5477431290
5477436112
5477444229
5477449295
5477454483
5477460098
5477465347
5477471512
5477478531
5477484878
5477490005
5477495682
5477500137
5477507400
5477513199
5477519241
5477526016
5477532425
5477537979
5477542618
5477548904
5477553726
5477561172
5477569351
5477575821
5477581619
5477586013
5477591812
5477598098
5477603592
5477610916
5477615371
5477621841
5477627456
5477633926
5477638504
5477645401
5477651565
5477658096
5477664077
5477669509
5477675430
5477680984
5477686355
5477691421
5477698806
5477704238
5477710342
5477713394
5477721999
5477726943
5477732925
5477739333
5477746108
5477750930
5477757583
5477762710
5477768569
5477774306
5477781509
5477787307
5477792495
5477796950
5477803969
5477809035
5477815078
5477821059
5477826552
5477832412
5477838027
5477843825
5477849624
5477854873
5477859511
5477866408
5477872146
5477877700
5477882705
5477888015
5477892104
5477898513
5477905043
5477911269
5477917372
5477922133
5477929274
5477933730
5477939223
5477945693
5477951796
5477956862
5477964492
5477969741
5477974562
5477979323
5477985610
5477992384
5477998427
5478003676
5478009047
5478014235
5478019728
5478025465
5478032851
5478038893
5478045363
5478050673
5478056960
5478062148
5478066969
5478073012
5478078688
5478086134
5478089796
5478096876
5478102736
5478108717
5478113783
5478121657
5478127821
5478133009
5478138380
5478143080
5478149367
5478154005
5478159804
5478166151
5478173048
5478178968
5478184156
5478190565
5478196363
5478201979
5478206434
5478213087
5478219862
5478225721
5478231214
5478236952
5478242018
5478249220
5478254835
5478259291
5478263868
5478270277
5478276075
5478281507
5478287245
5478292066
5478298963
5478305677
5478311781
5478315992
5478321485
5478327528
5478332899
5478340955
5478346632
5478352613
5478358594
5478364454
5478368543
5478374769
5478381361
5478386182
5478391614
5478398267
5478403455
5478410474
5478413953
5478421216
5478425001
5478431592
5478436902
5478443006
5478450025
5478454847
5478461316
5478467359
5478472974
5478478833
5478483838
5478488904
5478495130
5478501538
5478506726
5478511243
5478517285
5478521985
5478528211
5478534253
5478540784
5478544385
5478554212
5478560559
5478565259
5478572095
5478577100
5478583997
5478588880
5478594006
5478601331
5478607495
5478612866
5478619275
5478624036
5478629712
5478634412
5478641675
5478646741
5478653638
5478660535
5478666699
5478672620
5478678540
5478683301
5478688855
5478694348
5478700268
5478706189
5478710827
5478715466
5478721692
5478726636
5478733227
5478738904
5478745007
5478750439
5478756176
5478762280
5478768200
5478773877
5478778149
5478783703
5478789502
5478795727
5478801648
5478807324
5478812451
5478817028
5478823315
5478830273
5478836071
5478842724
5478847668
5478853039
5478859753
5478865429
5478871044
5478877331
5478883862
5478889477
5478894177
5478901745
5478906811
5478913647
5478919079
5478925304
5478930553
5478936962
5478941784
5478947887
5478953991
5478960033
5478966747
5478972668
5478978039
5478983410
5478989391
5478993847
5479000072
5479006908
5479012646
5479017284
5479023144
5479028209
5479036083
5479043163
5479048229
5479054638
5479059887
5479066295
5479070812
5479077343
5479084057
5479089306
5479094249
5479100719
5479106700
5479113231
5479120494
5479126598
5479132335
5479136791
5479143627
5479149120
5479155895
5479161815
5479167797
5479175060
5479179881
5479188060
5479192149
5479198558
5479205150
5479211009
5479218700
5479222179
5479229869
5479236156
5479240367
5479247935
5479254527
5479260020
5479265880
5479270335
5479278087
5479283824
5479288524
5479296580
5479302806
5479309398
5479314708
5479320262
5479327159
5479331370
5479338695
5479345225
5479351390
5479356700
5479362681
5479368235
5479374034
5479380015
5479386119
5479393077
5479397898
5479404429
5479410838
5479418406
5479423594
5479428782
5479433787
5479440928
5479447093
5479451670
5479460032
5479466258
5479472056
5479476634
5479483286
5479488108
5479494822
5479499339
5479507334
5479511607
5479517649
5479522898
5479528819
5479534678
5479540171
5479546641
5479550425
5479558115
5479563914
5479568980
5479576243
5479581126
5479587290
5479591990
5479599009
5479603831
5479610666
5479618113
5479622629
5479629343
5479635386
5479641916
5479647654
5479651621
5479659617
5479663950
5479671396
5479677256
5479683420
5479689402
5479695810
5479702524
5479707407
5479716684
5479723032
5479727243
5479733713
5479739145
5479745798
5479751596
5479757150
5479763376
5479768686
5479774545
5479780954
5479786447
5479792063
5479798410
5479804208
5479809763
5479815683
5479821359
5479827951
5479832773
5479840524
5479845285
5479850656
5479857614
5479862863
5479868173
5479873788
5479882028
5479887094
5479893075
5479898324
5479903818
5479910409
5479915841
5479924020
5479929635
5479934213
5479941171
5479945443
5479951730
5479958932
5479963693
5479970407
5479975168
5479981820
5479987375
5479993722
5480001229
5480006478
5480012277
5480017831
5480023324
5480029916
5480036019
5480040841
5480049020
5480054269
5480059945
5480065988
5480071847
5480077706
5480083383
5480089791
5480096322
5480102425
5480108712
5480114632
5480120553
5480125375
5480131966
5480137521
5480142098
5480149850
5480154244
5480162362
5480168099
5480173348
5480179940
5480185433
5480191292
5480197579
5480202584
5480209725
5480215706
5480219185
5480228036
5480233407
5480240975
5480247323
5480254342
5480260567
5480266243
5480270638
5480278572
5480284188
5480292000
5480298287
5480301461
5480311043
5480317330
5480323311
5480328743
5480335701
5480342415
5480347542
5480352303
5480357796
5480363899
5480370247
5480375862
5480382210
5480386910
5480393257
5480398201
5480403633
5480411385
5480415779
5480423225
5480429695
5480436348
5480442329
5480447639
5480453255
5480459480
5480465462
5480471016
5480476814
5480482124
5480486946
5480494087
5480499519
5480505623
5480512276
5480516670
5480523811
5480528999
5480534736
5480541084
5480547615
5480553840
5480558906
5480565559
5480571724
5480577400
5480583870
5480590034
5480596016
5480600837
5480610481
5480615791
5480621772
5480628486
5480634040
5480640327
5480646247
5480651740
5480656013
5480661628
5480669013
5480674751
5480684028
5480690681
5480696540
5480702216
5480708076
5480712409
5480720344
5480724982
5480731208
5480735847
5480742866
5480748115
5480754584
5480761665
5480767585
5480773627
5480779243
5480785041
5480789069
5480795783
5480802375
5480808600
5480813605
5480819648
5480824042
5480831794
5480837592
5480843329
5480850104
5480854682
5480860907
5480866767
5480873481
5480879157
5480883735
5480890876
5480897284
5480901129
5480908820
5480913153
5480918463
5480925299
5480931525
5480938483
5480943061
5480950263
5480956183
5480961371
5480967230
5480972968
5480979926
5480984198
5480989996
5480996466
5481002081
5481005316
5481014166
5481020026
5481025580
5481031073
5481036688
5481041815
5481046332
5481052801
5481057562
5481066290
5481071539
5481076910
5481082770
5481088446
5481093878
5481099615
5481106634
5481111944
5481117193
5481122198
5481128058
5481134222
5481139898
5481146429
5481151129
5481158575
5481162603
5481169317
5481173529
5481180120
5481187689
5481193609
5481196844
5481203680
5481209234
5481214727
5481220159
5481226324
5481232733
5481236700
5481243841
5481248419
5481255194
5481261297
5481266302
5481271246
5481278265
5481283819
5481291570
5481294988
5481302679
5481309087
5481315313
5481322698
5481327825
5481334478
5481339056
5481349676
5481356390
5481362554
5481367681
5481373174
5481378118
5481384283
5481390142
5481393316
5481400884
5481408636
5481414068
5481419805
5481423894
5481431096
5481436956
5481441472
5481447698
5481454534
5481460454
5481467412
5481472905
5481480535
5481486516
5481493291
5481500127
5481505803
5481510930
5481516973
5481522649
5481528630
5481534123
5481540776
5481546392
5481552373
5481557073
5481563298
5481569097
5481574773
5481580083
5481587102
5481592412
5481597905
5481603398
5481608525
5481612614
5481620854
5481626714
5481632695
5481637395
5481643681
5481649785
5481654423
5481660344
5481665227
5481673222
5481678593
5481683781
5481688847
5481694096
5481699589
5481705998
5481712712
5481718998
5481724980
5481729680
5481736393
5481741032
5481747868
5481754521
5481759709
5481767704
5481773747
5481779240
5481783757
5481790470
5481796086
5481803166
5481808903
5481815922
5481821781
5481827580
5481831974
5481839237
5481845341
5481850285
5481856816
5481861210
5481867497
5481872013
5481878544
5481885929
5481890263
5481896000
5481901432
5481907291
5481913273
5481918644
5481925358
5481932194
5481935307
5481943119
5481948978
5481954410
5481959659
5481965153
5481972721
5481977116
5481984257
5481988834
5481994816
5481999210
5482005619
5482011966
5482018192
5482024479
5482029728
5482035343
5482040470
5482045902
5482052311
5482058231
5482062992
5482069522
5482073917
5482080204
5482084598
5482091190
5482097538
5482103214
5482109195
5482114444
5482119083
5482124393
5482130069
5482136234
5482143070
5482151187
5482158267
5482167240
5482173282
5482179019
5482184146
5482192142
5482195987
5482203433
5482209842
5482217288
5482224063
5482230899
5482237735
5482242557
5482247867
5482253604
5482259585
5482265079
5482272525
5482279117
5482283572
5482290469
5482295535
5482301394
5482304751
5482312381
5482320193
5482325747
5482331485
5482336001
5482344302
5482352664
5482360843
5482364932
5482374453
5482381411
5482386660
5482394717
5482400393
5482407473
5482413455
5482419009
5482424319
5482430056
5482436160
5482441836
5482447024
5482451907
5482458621
5482463381
5482469973
5482475344
5482480532
5482486819
5482493166
5482500002
5482504641
5482510073
5482515749
5482520998
5482527346
5482531863
5482539980
5482545412
5482550722
5482556094
5482561404
5482567080
5482573183
5482579348
5482584841
5482591006
5482596743
5482601259
5482608156
5482613650
5482619814
5482626162
5482631716
5482637758
5482643374
5482649233
5482654848
5482659792
5482665957
5482672243
5482676760
5482683290
5482688662
5482694033
5482696962
5482704775
5482712221
5482718202
5482722780
5482728456
5482733766
5482738283
5482744142
5482751039
5482756593
5482759828
5482767763
5482771547
5482777773
5482783205
5482789125
5482796632
5482800966
5482807619
5482813722
5482819215
5482823671
5482829103
5482836549
5482842348
5482847414
5482852663
5482858339
5482863588
5482869569
5482875246
5482880800
5482886964
5482893251
5482899476
5482904603
5482909791
5482916810
5482924379
5482930055
5482935914
5482942506
5482946046
5482954225
5482960511
5482965150
5482970948
5482976442
5482982057
5482986390
5482992433
5482998536
5483004823
5483011476
5483017335
5483024110
5483029359
5483034852
5483040589
5483043885
5483050416
5483056214
5483061830
5483065370
5483073060
5483079530
5483085511
5483090333
5483096436
5483103455
5483110413
5483115784
5483120301
5483125672
5483131531
5483137086
5483143616
5483149659
5483153382
5483160950
5483166566
5483173035
5483176453
5483184022
5483190186
5483196168
5483202027
5483206482
5483213013
5483218812
5483223511
5483229126
5483235596
5483240174
5483246033
5483251099
5483258057
5483264283
5483270508
5483276429
5483280945
5483284241
5483291870
5483298096
5483302307
5483307556
5483313843
5483320801
5483325867
5483331970
5483336792
5483342957
5483348145
5483355164
5483361023
5483366333
5483371521
5483377136
5483382752
5483388123
5483392273
5483399597
5483406494
5483412354
5483416687
5483422607
5483428040
5483434509
5483439636
5483445373
5483451355
5483460998
5483466614
5483472717
5483478515
5483483276
5483491455
5483496521
5483502868
5483507690
5483514221
5483519714
5483526550
5483531494
5483536682
5483543640
5483549621
5483555359
5483560791
5483566284
5483572326
5483578003
5483583374
5483589538
5483595459
5483601867
5483607727
5483612609
5483618774
5483623901
5483629821
5483634521
5483640869
5483646179
5483651000
5483655700
5483661926
5483668517
5483674377
5483680297
5483685851
5483690490
5483695922
5483701232
5483707275
5483712951
5483719360
5483725036
5483730102
5483736632
5483741698
5483747924
5483754150
5483760924
5483766112
5483771545
5483776794
5483782287
5483787108
5483793151
5483799071
5483805053
5483810607
5483816649
5483821532
5483827392
5483832274
5483838439
5483846434
5483852721
5483858275
5483863463
5483868895
5483873534
5483879454
5483886351
5483890990
5483897521
5483902159
5483908995
5483913756
5483920043
5483925231
5483930236
5483934874
5483940795
5483947875
5483953307
5483958495
5483965025
5483969542
5483977049
5483983153
5483988951
5483993407
5483999144
5484005064
5484011900
5484018004
5484023680
5484029356
5484035765
5484041014
5484045897
5484053953
5484057432
5484064513
5484070250
5484075682
5484081297
5484087340
5484092650
5484098753
5484105162
5484109800
5484115721
5484121336
5484126768
5484132628
5484137816
5484142698
5484148619
5484153379
5484159666
5484164305
5484170530
5484175230
5484182005
5484187803
5484194395
5484200254
5484205625
5484210813
5484216307
5484221861
5484227110
5484234739
5484239500
5484246397
5484251463
5484257383
5484262144
5484269712
5484275572
5484280882
5484286253
5484294981
5484300352
5484305723
5484312498
5484319395
5484324400
5484331174
5484337400
5484340696
5484348325
5484354673
5484360349
5484366209
5484372251
5484377378
5484382017
5484389402
5484394651
5484401792
5484407651
5484413999
5484420163
5484426145
5484431150
5484437192
5484442991
5484447873
5484454465
5484460080
5484467832
5484474546
5484479612
5484486570
5484490903
5484498715
5484503842
5484509641
5484514279
5484520810
5484528623
5484535459
5484540402
5484547482
5484553220
5484558225
5484565732
5484572141
5484578244
5484584714
5484589536
5484595700
5484601559
5484608090
5484613766
5484619809
5484625607
5484631955
5484637814
5484643246
5484648678
5484654721
5484660153
5484666073
5484672116
5484678097
5484684689
5484690671
5484696347
5484703427
5484709591
5484715085
5484720761
5484727902
5484733090
5484738644
5484744442
5484750912
5484755795
5484761471
5484766842
5484771725
5484778866
5484784359
5484790402
5484795956
5484801449
5484808590
5484813717
5484820553
5484826534
5484832150
5484838497
5484843502
5484848873
5484853573
5484859066
5484864681
5484871395
5484877255
5484883785
5484889156
5484894711
5484901302
5484906857
5484911617
5484916134
5484922482
5484928158
5484934139
5484941036
5484947262
5484952389
5484958370
5484964413
5484970455
5484975338
5484979549
5484986019
5484990780
5484997188
5485002071
5485008785
5485012813
5485020504
5485024105
5485032161
5485038387
5485043880
5485049129
5485054683
5485059444
5485065487
5485072200
5485079219
5485085323
5485090450
5485098384
5485104793
5485110591
5485114070
5485122188
5485125911
5485133846
5485140682
5485147212
5485152583
5485156673
5485162593
5485166866
5485174190
5485179012
5485185542
5485192439
5485198177
5485202815
5485208369
5485213863
5485221065
5485227046
5485231868
5485239925
5485245784
5485252132
5485258906
5485264522
5485269160
5485276301
5485282893
5485287654
5485293757
5485299983
5485306270
5485311213
5485317622
5485323359
5485329646
5485335322
5485339717
5485347346
5485353267
5485360041
5485365840
5485371394
5485376582
5485382869
5485387202
5485393672
5485401606
5485407344
5485412837
5485418513
5485424800
5485429865
5485436518
5485443354
5485447688
5485454829
5485459956
5485465815
5485471430
5485477107
5485483942
5485489680
5485494868
5485501582
5485508479
5485514460
5485520747
5485526545
5485533076
5485538447
5485544794
5485551447
5485559016
5485563959
5485570795
5485576655
5485583185
5485586786
5485595942
5485602472
5485609003
5485615168
5485622614
5485628412
5485636225
5485641169
5485646845
5485653437
5485659052
5485666254
5485671381
5485677912
5485684809
5485691889
5485697931
5485703668
5485710077
5485716303
5485721796
5485727594
5485734308
5485738947
5485745416
5485751703
5485758417
5485764276
5485770685
5485776727
5485782037
5485788385
5485794183
5485800592
5485805475
5485811761
5485816705
5485823663
5485828668
5485834344
5485840936
5485845758
5485851251
5485856622
5485862970
5485868707
5485876703
5485883539
5485889703
5485894342
5485902276
5485908624
5485915155
5485919793
5485927789
5485932855
5485938165
5485946710
5485953485
5485958673
5485964837
5485970025
5485976922
5485983148
5485989678
5485995416
5486001824
5486008843
5486017144
5486023065
5486028741
5486033746
5486039910
5486045526
5486051385
5486057610
5486061944
5486069390
5486076470
5486082574
5486087701
5486093560
5486099603
5486106011
5486112664
5486118829
5486124688
5486131951
5486137749
5486143914
5486149224
5486156426
5486159722
5486169060
5486174004
5486179864
5486185540
5486190056
5486197136
5486203240
5486209649
5486215386
5486220147
5486226433
5486232109
5486237847
5486243340
5486249443
5486253106
5486261650
5486267388
5486271721
5486278557
5486284111
5486290337
5486297234
5486303826
5486310112
5486315727
5486320671
5486324944
5486331841
5486336357
5486343376
5486349297
5486354424
5486359917
5486366631
5486371636
5486378227
5486384331
5486390007
5486395622
5486400627
5486407158
5486413078
5486417534
5486424309
5486429558
5486435661
5486441765
5486447197
5486452507
5486457939
5486464348
5486471000
5486476311
5486483452
5486488029
5486494621
5486500053
5486506279
5486509941
5486516594
5486522697
5486528129
5486534599
5486543083
5486549003
5486554618
5486560234
5486565544
5486571769
5486577507
5486583793
5486588798
5486594474
5486600822
5486606315
5486611808
5486618461
5486623222
5486630424
5486636100
5486642753
5486648246
5486652580
5486659965
5486664787
5486671806
5486677787
5486683524
5486688712
5486694389
5486701713
5486708427
5486713859
5486719352
5486725455
5486731864
5486735709
5486741630
5486749503
5486754996
5486758658
5486766715
5486772330
5486777884
5486783988
5486789969
5486795890
5486802298
5486807547
5486812858
5486818351
5486824698
5486830802
5486837882
5486843253
5486848990
5486853080
5486860587
5486866202
5486873038
5486879569
5486883963
5486890189
5486895255
5486901175
5486907889
5486913260
5486919791
5486924918
5486931326
5486936881
5486943472
5486949149
5486955252
5486960623
5486966544
5486972098
5486977774
5486984549
5486988943
5486994803
5487001761
5487007010
5487011343
5487017081
5487023001
5487028799
5487034170
5487043021
5487047720
5487056875
5487063284
5487068716
5487073843
5487079825
5487085135
5487092276
5487097220
5487103262
5487107168
5487115774
5487120779
5487127432
5487132864
5487138601
5487146353
5487150076
5487156973
5487164114
5487171377
5487177114
5487182058
5487190176
5487197683
5487202993
5487209585
5487213308
5487219534
5487227163
5487231741
5487237966
5487243826
5487250601
5487256948
5487262075
5487269582
5487272756
5487280080
5487287038
5487291616
5487298818
5487304372
5487309682
5487315359
5487321218
5487328664
5487334035
5487339651
5487346059
5487350454
5487357107
5487363454
5487369863
5487375600
5487381704
5487387319
5487391836
5487399465
5487404836
5487411062
5487417653
5487422658
5487428518
5487436025
5487441396
5487446889
5487451467
5487457997
5487461476
5487468984
5487475576
5487480580
5487487355
5487492726
5487498525
5487504994
5487510182
5487515981
5487522023
5487529103
5487534596
5487540334
5487545461
5487550954
5487558278
5487564076
5487569447
5487575612
5487581960
5487590077
5487593129
5487601125
5487606679
5487613881
5487619435
5487625355
5487630971
5487635609
5487641957
5487648732
5487654713
5487661061
5487666188
5487671986
5487678883
5487686329
5487692738
5487698903
5487705739
5487710011
5487716603
5487722767
5487728444
5487734364
5487741139
5487746571
5487752735
5487759205
5487763172
5487769459
5487777272
5487781422
5487786122
5487791493
5487794911
5487800099
5487804920
5487809620
5487814808
5487819081
5487823780
5487827686
5487833363
5487837940
5487844288
5487848683
5487854603
5487859242
5487863270
5487867237
5487872120
5487876026
5487880970
5487884815
5487889271
5487893055
5487897755
5487902454
5487907764
5487912891
5487916737
5487922840
5487927357
5487931812
5487936573
5487942310
5487946583
5487950428
5487956348
5487960987
5487964161
5487971973
5487977772
5487982044
5487987903
5487991504
5487996937
5488001148
5488005726
5488009327
5488014881
5488020313
5488025318
5488029590
5488034351
5488039722
5488043567
5488049060
5488053333
5488058216
5488063831
5488066761
5488073413
5488078357
5488082324
5488087757
5488092029
5488096546
5488100574
5488106067
5488111621
5488116687
5488123218
5488128650
5488135547
5488142200
5488144946
5488153796
5488160266
5488164294
5488169299
5488174365
5488179492
5488182971
5488187732
5488192249
5488195911
5488200488
5488204700
5488210925
5488216418
5488220386
5488226123
5488230579
5488235950
5488240405
5488245898
5488250415
5488255054
5488259204
5488263782
5488267871
5488272693
5488278430
5488283313
5488288012
5488292956
5488296008
5488302417
5488305163
5488311023
5488313708
5488320422
5488326098
5488331347
5488335559
5488340319
5488345324
5488350207
5488354602
5488360400
5488365893
5488370471
5488375659
5488379687
5488384692
5488389086
5488394335
5488401232
5488407641
5488412219
5488419177
5488425829
5488430163
5488436389
5488443530
5488448962
5488453783
5488459826
5488466113
5488470507
5488476427
5488482165
5488488879
5488494860
5488499194
5488504198
5488509569
5488515185
5488519152
5488525744
5488530504
5488537462
5488542711
5488546740
5488553576
5488559069
5488563219
5488566271
5488574511
5488581957
5488586535
5488592394
5488597277
5488602770
5488608629
5488614489
5488623888
5488631273
5488637011
5488641832
5488648058
5488652391
5488659410
5488662523
5488670397
5488675951
5488683153
5488686876
5488692674
5488697252
5488702013
5488704881
5488712633
5488718187
5488724901
5488728990
5488737352
5488741747
5488747301
5488750475
5488757677
5488761095
5488768724
5488772630
5488778368
5488783739
5488788438
5488793138
5488798692
5488804185
5488810533
5488815050
5488820543
5488825304
5488830980
5488835557
5488842149
5488847398
5488853441
5488858507
5488866624
5488872545
5488876817
5488883165
5488892625
5488898485
5488902696
5488911668
5488916917
5488923082
5488928575
5488936143
5488942125
5488947862
5488953721
5488958665
5488962876
5488971482
5488979173
5488985398
5488991319
5488995591
5489001451
5489007310
5489012864
5489018052
5489023179
5489029893
5489036790
5489041001
5489047654
5489052720
5489058396
5489065049
5489071824
5489077378
5489083237
5489088731
5489094224
5489098557
5489104417
5489109116
5489116074
5489123276
5489127854
5489132981
5489138962
5489143906
5489148850
5489155076
5489159958
5489167283
5489172226
5489180344
5489184006
5489192490
5489198777
5489204941
5489212876
5489220627
5489224106
5489233506
5489237046
5489245285
5489248947
5489256577
5489260605
5489268479
5489274582
5489280136
5489283371
5489290207
5489295700
5489301682
5489308029
5489313645
5489319016
5489324936
5489329880
5489336105
5489340256
5489346848
5489354294
5489359299
5489365646
5489371017
5489375656
5489381577
5489386887
5489391403
5489398178
5489402878
5489409286
5489413498
5489420090
5489424789
5489430832
5489438583
5489444382
5489448898
5489454452
5489460190
5489466415
5489470932
5489477585
5489482406
5489488998
5489495163
5489500168
5489506210
5489510482
5489517746
5489522018
5489530136
5489536728
5489541610
5489549728
5489554122
5489559799
5489565536
5489569625
5489576889
5489583480
5489589889
5489595504
5489601608
5489606613
5489612411
5489616561
5489623641
5489629806
5489636154
5489640670
5489646529
5489649947
5489658492
5489662643
5489669479
5489674911
5489681075
5489687301
5489691756
5489698287
5489702743
5489707687
5489714156
5489719466
5489726546
5489730575
5489735213
5489741927
5489748275
5489755904
5489762801
5489769393
5489773604
5489781722
5489785201
5489793746
5489797042
5489806929
5489816085
5489820967
5489824446
5489832442
5489838729
5489844527
5489849593
5489857711
5489863692
5489868514
5489874434
5489880171
5489884322
5489891402
5489897200
5489904646
5489911971
5489916853
5489922835
5489928755
5489935042
5489941695
5489949629
5489954573
5489961226
5489967390
5489974104
5489981245
5489987044
5489992232
5489999739
5490004622
5490011275
5490016402
5490022261
5490027510
5490032210
5490036726
5490044844
5490051680
5490058272
5490063276
5490068892
5490072249
5490079695
5490083784
5490091414
5490097639
5490103499
5490109053
5490113997
5490120161
5490124617
5490130720
5490135969
5490143476
5490149580
5490151533
5490159773
5490164717
5490171553
5490177595
5490184065
5490188764
5490198042
5490202070
5490209150
5490214765
5490220808
5490224653
5490234113
5490240278
5490245649
5490249067
5490258283
5490263654
5490268110
5490274274
5490279523
5490286176
5490292341
5490297895
5490303998
5490309125
5490314191
5490320234
5490325239
5490331830
5490336530
5490342512
5490349470
5490355329
5490361310
5490367719
5490375654
5490382978
5490388227
5490392865
5490401777
5490406903
5490413251
5490416791
5490424970
5490431317
5490440107
5490443647
5490450788
5490455731
5490462323
5490467816
5490472394
5490479535
5490485639
5490490338
5490496137
5490500470
5490506696
5490511212
5490517133
5490524213
5490530194
5490534772
5490540692
5490545392
5490551740
5490556622
5490561566
5490568768
5490572552
5490578900
5490583905
5490590314
5490594220
5490602582
5490607098
5490614606
5490621625
5490626935
5490632062
5490638226
5490642804
5490650067
5490655133
5490660321
5490665753
5490673199
5490678509
5490684918
5490689740
5490693280
5490701642
5490708355
5490714215
5490718487
5490725567
5490731060
5490737713
5490743328
5490749371
5490755169
5490762188
5490769329
5490775860
5490780560
5490786297
5490793072
5490800640
5490806072
5490811077
5490817730
5490825970
5490831707
5490838360
5490843670
5490849712
5490856915
5490862835
5490869366
5490877178
5490882488
5490888592
5490893291
5490899639
5490904461
5490911602
5490917827
5490924236
5490932537
5490937298
5490940716
5490949566
5490955913
5490960247
5490966350
5490971782
5490978740
5490985698
5490990825
5490997783
5491003887
5491011577
5491016704
5491022258
5491029827
5491035564
5491039959
5491046367
5491051189
5491057659
5491062480
5491068645
5491076946
5491081645
5491087932
5491092204
5491098125
5491103984
5491108928
5491113262
5491122417
5491128581
5491133037
5491138530
5491143901
5491147746
5491153362
5491159404
5491164226
5491168987
5491176494
5491179912
5491186931
5491192119
5491197063
5491201884
5491208110
5491214519
5491221721
5491226726
5491233134
5491238261
5491244426
5491249370
5491254619
5491262187
5491267680
5491272197
5491279277
5491283732
5491287944
5491296183
5491301738
5491308879
5491315471
5491319682
5491323893
5491330485
5491334513
5491341471
5491346537
5491352946
5491359538
5491366862
5491373271
5491378153
5491382182
5491389079
5491392497
5491402018
5491406230
5491414652
5491418070
5491426371
5491429972
5491436625
5491441630
5491448710
5491454203
5491460184
5491465372
5491472086
5491477763
5491485941
5491489786
5491498026
5491503336
5491510538
5491516703
5491522013
5491528055
5491535868
5491541910
5491548990
5491554484
5491565897
5491571146
5491577616
5491585795
5491593363
5491598917
5491606546
5491613932
5491621988
5491628519
5491636515
5491643778
5491648661
5491656168
5491662393
5491667398
5491672647
5491679727
5491685648
5491692056
5491698831
5491703836
5491709329
5491715067
5491720438
5491725076
5491731119
5491735941
5491742654
5491749307
5491755533
5491760172
5491766702
5491771219
5491777505
5491783121
5491790445
5491795877
5491801858
5491807535
5491814554
5491819925
5491825723
5491830484
5491837442
5491843667
5491849283
5491854410
5491862344
5491866128
5491875222
5491881143
5491885965
5491892556
5491899575
5491906167
5491911843
5491919717
5491925027
5491932840
5491939431
5491946084
5491950723
5491959695
5491965982
5491972146
5491978189
5491988381
5491996377
5492004434
5492010964
5492015786
5492027383
5492032815
5492041787
5492048806
5492057656
5492066506
5492072671
5492085427
5492090676
5492101601
5492108620
5492116311
5492123330
5492132485
5492142006
5492145730
5492157448
5492162941
5492172890
5492181008
5492188332
5492195717
5492198708
5492211281
5492221047
5492229103
5492237526
5492244362
5492250954
5492258583
5492265419
5492271157
5492283669
5492287270
5492299965
5492306618
5492314797
5492319740
5492326576
5492333839
5492340004
5492346962
5492355019
5492360146
5492365517
5492370460
5492375709
5492380348
5492385170
5492389809
5492397743
5492401344
5492408790
5492412330
5492419166
5492424354
5492431251
5492435341
5492443947
5492450233
5492454933
5492459877
5492465065
5492471901
5492476112
5492483680
5492489967
5492495155
5492501197
5492505897
5492512550
5492517250
5492521339
5492532142
5492539527
5492544044
5492549598
5492556007
5492561866
5492566200
5492572425
5492577674
5492583961
5492589576
5492593177
5492601234
5492604835
5492612708
5492616615
5492624183
5492631080
5492637122
5492642616
5492647010
5492652503
5492657874
5492664344
5492669654
5492675147
5492682960
5492687842
5492695228
5492701881
5492708411
5492714088
5492718543
5492724463
5492728980
5492735755
5492742042
5492748939
5492752418
5492759620
5492763160
5492772071
5492779273
5492785254
5492790381
5492797034
5492801978
5492808081
5492813514
5492818579
5492824500
5492831763
5492836341
5492842688
5492848548
5492854285
5492859107
5492865515
5492870825
5492876868
5492884009
5492888465
5492896155
5492899878
5492907935
5492913794
5492921057
5492929297
5492934790
5492941077
5492947607
5492955786
5492962256
5492966833
5492973364
5492978552
5492985144
5492991309
5492997229
5493002356
5493006567
5493013525
5493017859
5493025732
5493030371
5493038061
5493041418
5493048498
5493054114
5493060034
5493064917
5493070471
5493078528
5493083960
5493089392
5493095007
5493100012
5493109900
5493117346
5493125280
5493129187
5493136389
5493143225
5493150366
5493154516
5493163488
5493170263
5493177038
5493182226
5493188452
5493193517
5493201086
5493205114
5493214391
5493218542
5493226110
5493231786
5493239355
5493244726
5493249853
5493254675
5493260839
5493265295
5493271459
5493278417
5493285741
5493290746
5493297765
5493303258
5493308568
5493313390
5493319738
5493325719
5493332372
5493339269
5493343664
5493350011
5493354467
5493360936
5493366857
5493372167
5493378576
5493384435
5493389135
5493395360
5493398656
5493406713
5493410131
5493417516
5493421300
5493428807
5493434239
5493440038
5493444005
5493450780
5493455785
5493460790
5493468968
5493474523
5493481297
5493487584
5493492345
5493498998
5493503392
5493509801
5493516148
5493524449
5493529454
5493536412
5493541905
5493546422
5493556615
5493560582
5493568211
5493576207
5493583531
5493587071
5493594456
5493599766
5493605870
5493610875
5493616856
5493621861
5493628575
5493633458
5493640660
5493646031
5493652012
5493657444
5493663182
5493668065
5493674595
5493678929
5493685521
5493690525
5493696873
5493701329
5493707737
5493714817
5493719883
5493725682
5493729710
5493736302
5493742710
5493748875
5493753269
5493760899
5493764683
5493772740
5493778294
5493782749
5493787754
5493795139
5493800266
5493805515
5493811863
5493819065
5493824009
5493830296
5493835606
5493841160
5493845676
5493852451
5493859043
5493864536
5493869053
5493875584
5493880405
5493887363
5493892307
5493898716
5493904819
5493911350
5493918125
5493922275
5493929355
5493932956
5493940098
5493945591
5493951572
5493956882
5493962986
5493968418
5493975193
5493980198
5493986057
5493990940
5493997226
5494002353
5494008701
5494014743
5494019992
5494025730
5494031589
5494036289
5494042697
5494047641
5494052829
5494059787
5494065158
5494071323
5494078159
5494082919
5494088046
5494097019
5494103244
5494109714
5494117038
5494123752
5494128879
5494135898
5494140842
5494148227
5494154636
5494161838
5494168552
5494172275
5494179599
5494186618
5494192905
5494198215
5494205722
5494211886
5494217319
5494222934
5494227023
5494233981
5494238315
5494245578
5494250277
5494257419
5494263339
5494267856
5494273898
5494278964
5494285312
5494289828
5494296176
5494301486
5494309176
5494314120
5494317477
5494324618
5494329623
5494335726
5494341098
5494349215
5494355746
5494360812
5494367221
5494372653
5494378024
5494384738
5494389681
5494391879
5494401278
5494408358
5494413302
5494418917
5494424777
5494429964
5494436190
5494440646
5494448336
5494454317
5494459017
5494464571
5494471102
5494474703
5494482088
5494487826
5494495028
5494500643
5494507418
5494510897
5494518831
5494522921
5494530123
5494535311
5494543306
5494549044
5494555208
5494560701
5494566012
5494571138
5494577791
5494582735
5494588900
5494594271
5494601534
5494606539
5494611849
5494618318
5494623506
5494628267
5494636141
5494641207
5494648104
5494654634
5494660555
5494665743
5494673006
5494677889
5494682283
5494691560
5494699190
5494706026
5494711824
5494717134
5494723482
5494728792
5494738252
5494746187
5494752473
5494756563
5494763582
5494768892
5494774507
5494782259
5494787569
5494795869
5494801912
5494806550
5494813203
5494817720
5494824190
5494829194
5494833528
5494842927
5494845186
5494854585
5494861665
5494866548
5494872834
5494877290
5494882966
5494889802
5494895662
5494902375
5494905793
5494913789
5494919343
5494925202
5494928743
5494936006
5494941560
5494949189
5494954255
5494959382
5494966096
5494971406
5494975862
5494982575
5494988007
5494994721
5494999482
5495003510
5495010590
5495016389
5495021394
5495027436
5495034516
5495037934
5495046479
5495049897
5495057099
5495063081
5495067963
5495073151
5495080781
5495086518
5495091645
5495097077
5495102753
5495106171
5495112824
5495117951
5495135346
5495139191
5495146821
5495152070
5495158234
5495163300
5495169404
5495175141
5495181366
5495185517
5495191193
5495194672
5495200898
5495206452
5495210907
5495216217
5495220612
5495226593
5495231415
5495237702
5495243317
5495249787
5495256684
5495261566
5495267853
5495275055
5495279083
5495284454
5495289276
5495295624
5495302094
5495307037
5495311371
5495316986
5495322601
5495326630
5495334930
5495341400
5495347870
5495354217
5495362030
5495367889
5495375641
5495381744
5495386993
5495392792
5495398712
5495405060
5495412018
5495418426
5495423248
5495428009
5495434784
5495440460
5495446624
5495453094
5495456939
5495463226
5495469330
5495475250
5495480621
5495486480
5495491729
5495498260
5495503326
5495509307
5495514556
5495519866
5495526886
5495532379
5495538604
5495542755
5495550750
5495555206
5495562103
5495567596
5495573821
5495579620
5495585052
5495590179
5495597869
5495604766
5495609771
5495616119
5495619964
5495624419
5495630035
5495637054
5495643279
5495650298
5495656158
5495661163
5495666656
5495670989
5495674773
5495682159
5495685760
5495692718
5495699309
5495704741
5495708526
5495714446
5495718657
5495725249
5495729461
5495734588
5495741851
5495747649
5495753325
5495757415
5495764678
5495771636
5495777495
5495784453
5495790496
5495796660
5495801360
5495807219
5495813689
5495818145
5495822356
5495828337
5495833037
5495838774
5495844268
5495849822
5495855193
5495857451
5495865874
5495869780
5495876128
5495880461
5495888457
5495892668
5495899809
5495904692
5495909392
5495913786
5495921782
5495926848
5495934111
5495940520
5495947417
5495956450
5495961394
5495967314
5495975493
5495980131
5495984770
5495989714
5495993437
5495998442
5496005827
5496011320
5496015227
5496020292
5496024809
5496027800
5496035673
5496038847
5496044951
5496050444
5496056364
5496060881
5496067350
5496072599
5496078642
5496084623
5496091154
5496095243
5496101286
5496105619
5496110258
5496115507
5496120695
5496126554
5496131681
5496139311
5496144926
5496150053
5496155119
5496160978
5496166593
5496174223
5496180326
5496187223
5496190641
5496197843
5496201566
5496209013
5496212675
5496222318
5496228666
5496234769
5496240507
5496244840
5496250394
5496256437
5496261320
5496267972
5496273466
5496277738
5496284635
5496289823
5496295621
5496300077
5496305204
5496314054
5496320096
5496326505
5496331327
5496336210
5496342984
5496348172
5496352872
5496359708
5496366056
5496369657
5496376310
5496379728
5496386686
5496391874
5496399869
5496406339
5496410733
5496415738
5496421170
5496426297
5496432218
5496438199
5496443082
5496450101
5496454923
5496461087
5496468350
5496476285
5496481290
5496486539
5496493314
5496500699
5496508756
5496518277
5496527860
5496536771
5496549039
5496556485
5496566373
5496572964
5496582669
5496590359
5496598172
5496609219
5496617764
5496625882
5496633206
5496639798
5496647732
5496654873
5496663052
5496671048
5496681790
5496689541
5496698758
5496705838
5496713345
5496721646
5496728421
5496737210
5496745144
5496752957
5496760281
5496767788
5496775723
5496783413
5496791164
5496799099
5496806850
5496813503
5496821621
5496828213
5496835903
5496842861
5496851345
5496857937
5496866848
5496873806
5496881740
5496888332
5496897365
5496903835
5496913234
5496922756
5496928920
5496937099
5496945644
5496953945
5496962307
5496971218
5496979885
5496989345
5496997524
5497005397
5497014675
5497021022
5497029872
5497037136
5497046474
5497051235
5497062282
5497070888
5497079677
5497087856
5497095607
5497106410
5497114833
5497123317
5497128383
5497140529
5497150661
5497157130
5497169704
5497176723
5497186366
5497193568
5497203883
5497212306
5497220180
5497229701
5497240077
5497248988
5497255702
5497266383
5497276393
5497283412
5497291468
5497300013
5497306117
5497313319
5497322352
5497330104
5497337489
5497347437
5497358058
5497365138
5497371974
5497379115
5497387721
5497396082
5497406214
5497414027
5497421534
5497428492
5497436732
5497444239
5497451685
5497459559
5497466517
5497475184
5497482203
5497490687
5497498865
5497507471
5497513148
5497522974
5497529749
5497538111
5497547876
5497554834
5497561976
5497572046
5497580164
5497587427
5497594263
5497604273
5497611841
5497619715
5497627405
5497635034
5497640528
5497649988
5497658045
5497666467
5497673975
5497682092
5497689722
5497697595
5497705042
5497713403
5497721399
5497730005
5497738000
5497744104
5497753747
5497759790
5497770166
5497776819
5497785669
5497792322
5497801050
5497807519
5497814538
5497822717
5497832361
5497841821
5497847802
5497852990
5497857812
5497860559
5497866845
5497872094
5497876977
5497881494
5497885888
5497890405
5497893945
5497899316
5497904077
5497908227
5497913293
5497918664
5497922448
5497928796
5497933129
5497939782
5497943994
5497949792
5497953820
5497961144
5497966332
5497971093
5497976952
5497983178
5497989221
5497995446
5497998437
5498005273
5498010766
5498017297
5498020593
5498027245
5498034386
5498038171
5498042809
5498047326
5498052148
5498056908
5498060876
5498065819
5498070275
5498074731
5498079919
5498084679
5498089318
5498092614
5498097558
5498102440
5498107995
5498111718
5498116417
5498120568
5498126122
5498130394
5498134911
5498139184
5498143944
5498148217
5498152977
5498157982
5498162377
5498165490
5498171227
5498174645
5498181298
5498185143
5498191124
5498194237
5498201256
5498206322
5498211632
5498216881
5498222069
5498227074
5498233605
5498238121
5498243920
5498248375
5498253136
5498258324
5498264794
5498271935
5498277245
5498281761
5498287071
5498291161
5498297142
5498301292
5498306664
5498313011
5498318565
5498323509
5498329002
5498333641
5498339500
5498346092
5498352135
5498358665
5498365440
5498370384
5498375084
5498381370
5498388756
5498394371
5498400047
5498404686
5498409996
5498416527
5498418419
5498426841
5498431236
5498437645
5498441368
5498449546
5498456932
5498463951
5498471519
5498477867
5498483055
5498488365
5498495933
5498500877
5498507591
5498513328
5498518394
5498522788
5498527366
5498531211
5498536827
5498542686
5498546958
5498553611
