5176077996
5176085931
5176093133
5176099664
5176109124
5176116937
5176125909
5176133904
5176141961
5176150689
5176157769
5176166680
5176175713
5176184746
5176194329
5176204278
5176211907
5176221429
5176231988
5176241814
5176253533
5176262627
5176273125
5176282097
5176290703
5176298943
5176310234
5176318352
5176330559
5176339531
5176347954
5176355583
5176365349
5176374748
5176384209
5176391533
5176398918
5176407951
5176415459
5176424675
5176432671
5176442131
5176449333
5176456841
5176466118
5176473442
5176481010
5176489860
5176498100
5176505607
5176512199
5176522209
5176529655
5176538566
5176545646
5176553764
5176563591
5176569389
5176579338
5176586296
5176597099
5176605278
5176613456
5176622062
5176631706
5176637687
5176648612
5176657218
5176666130
5176673210
5176683647
5176690727
5176700675
5176708244
5176716361
5176727470
5176734000
5176744437
5176754569
5176764335
5176772147
5176779349
5176789603
5176800101
5176806937
5176816886
5176826285
5176832023
5176840873
5176848563
5176859061
5176869681
5176879996
5176892081
5176904105
5176913993
5176923209
5176933463
5176943473
5176954337
5176966483
5176977042
5176986991
5176995535
5177007010
5177016287
5177027029
5177037833
5177049612
5177061575
5177072806
5177083304
5177095694
5177106802
5177121390
5177131888
5177141348
5177154837
5177167471
5177176443
5177188772
5177198721
5177211233
5177220877
5177230276
5177239920
5177251089
5177260549
5177271902
5177284170
5177295400
5177304617
5177316641
5177326955
5177336233
5177346120
5177356191
5177366811
5177376577
5177387380
5177400686
5177408315
5177418020
5177429983
5177440908
5177452138
5177463796
5177472585
5177484670
5177493093
5177504750
5177516652
5177527394
5177536977
5177548024
5177554982
5177562673
5177571095
5177579457
5177585927
5177592702
5177600087
5177608693
5177614491
5177623036
5177628774
5177639516
5177647206
5177655690
5177664052
5177669301
5177678334
5177684437
5177692921
5177701466
5177708485
5177715687
5177723561
5177729481
5177737599
5177746388
5177752675
5177760060
5177767018
5177775013
5177783497
5177791127
5177799244
5177806202
5177814442
5177820912
5177828724
5177836293
5177842579
5177850758
5177857289
5177865284
5177874195
5177879933
5177888294
5177896412
5177905933
5177912403
5177920704
5177928333
5177935780
5177942493
5177954212
5177962391
5177968922
5177975025
5177983448
5177991016
5177997669
5178004139
5178012562
5178020923
5178027637
5178034412
5178040638
5178049549
5178055835
5178064747
5178070911
5178079151
5178085804
5178093189
5178100208
5178108020
5178116199
5178122547
5178131031
5178137928
5178144702
5178151477
5178160266
5178170886
5178177539
5178185108
5178193897
5178200671
5178208301
5178216541
5178224658
5178232837
5178241321
5178249683
5178257312
5178263721
5178272632
5178280627
5178288745
5178297778
5178303149
5178312732
5178321887
5178329394
5178337817
5178346240
5178352954
5178361194
5178368701
5178376819
5178385058
5178390734
5178400622
5178407153
5178415881
5178424914
5178432177
5178439501
5178447375
5178454821
5178463610
5178472094
5178478503
5178487109
5178494616
5178502368
5178509692
5178517260
5178524645
5178532580
5178540087
5178548693
5178556139
5178565966
5178573412
5178581408
5178590563
5178597155
5178608263
5178616320
5178626574
5178633898
5178640673
5178648668
5178657518
5178665941
5178673998
5178682238
5178689745
5178696581
5178703966
5178712694
5178721117
5178728502
5178735704
5178743151
5178751695
5178757250
5178766039
5178773851
5178781725
5178788378
5178796861
5178804735
5178811449
5178819750
5178826769
5178832933
5178840929
5178849962
5178856432
5178864549
5178872056
5178878709
5178886217
5178894212
5178901170
5178908861
5178915941
5178923631
5178930711
5178938646
5178945970
5178952928
5178961229
5178969163
5178977281
5178984971
5178992356
5178999803
5179005601
5179014390
5179024278
5179030442
5179041490
5179048509
5179056932
5179065598
5179072618
5179083238
5179090196
5179098069
5179106919
5179114854
5179121995
5179128403
5179137132
5179145921
5179152756
5179158921
5179168687
5179176072
5179183823
5179191331
5179199998
5179207810
5179213486
5179223557
5179229233
5179238572
5179255784
5179264695
5179270127
5179277390
5179285813
5179291733
5179299668
5179307358
5179314377
5179320298
5179326889
5179333054
5179339768
5179345200
5179352158
5179357956
5179364365
5179370529
5179374008
5179381821
5179389694
5179395615
5179402512
5179409103
5179413193
5179420212
5179425644
5179432541
5179437790
5179444504
5179449081
5179456467
5179462387
5179468918
5179474838
5179481430
5179486435
5179492782
5179499801
5179503952
5179510971
5179517807
5179522384
5179528061
5179534897
5179539840
5179545700
5179551986
5179558029
5179562484
5179568893
5179574325
5179579269
5179584640
5179591049
5179597580
5179603073
5179608566
5179614303
5179620651
5179626449
5179631515
5179638900
5179643112
5179649826
5179655441
5179660812
5179666732
5179672347
5179677230
5179683273
5179689193
5179694503
5179700973
5179706832
5179712814
5179717208
5179724838
5179729598
5179736251
5179741988
5179748336
5179753585
5179759689
5179766097
5179770492
5179779281
5179785567
5179793441
5179801559
5179806930
5179813582
5179819442
5179826461
5179831283
5179838180
5179844466
5179850997
5179857345
5179863021
5179868758
5179874617
5179881087
5179886214
5179892623
5179897994
5179904891
5179909896
5179915633
5179922225
5179926375
5179933882
5179940535
5179946639
5179952986
5179956648
5179963057
5179969832
5179974532
5179980696
5179986739
5179991316
5179997481
5180002547
5180008528
5180015669
5180020857
5180027327
5180032698
5180038679
5180045149
5180050948
5180057783
5180064192
5180069075
5180076094
5180080794
5180086897
5180094282
5180100752
5180107832
5180114180
5180118818
5180124495
5180130171
5180135420
5180141829
5180149031
5180153547
5180159712
5180165815
5180172773
5180177839
5180184919
5180190474
5180196150
5180202070
5180208479
5180214033
5180220137
5180225935
5180232160
5180237104
5180241438
5180248274
5180255781
5180261274
5180266767
5180273359
5180281843
5180289289
5180295881
5180303693
5180313215
5180319746
5180324995
5180332075
5180337507
5180341901
5180348493
5180353498
5180358869
5180364851
5180370039
5180377302
5180382856
5180387739
5180394147
5180399274
5180405317
5180411970
5180418134
5180425336
5180430341
5180435956
5180441022
5180447553
5180453412
5180459394
5180465558
5180470258
5180475019
5180483075
5180489728
5180495649
5180502484
5180508100
5180514508
5180519208
5180524701
5180530622
5180536237
5180541242
5180548261
5180553144
5180558759
5180564313
5180569196
5180575116
5180579999
5180586408
5180592755
5180600385
5180606427
5180613995
5180619916
5180624554
5180632550
5180637067
5180645673
5180650555
5180656293
5180661664
5180668133
5180672894
5180679059
5180684796
5180689984
5180696332
5180700787
5180708111
5180713177
5180718487
5180725934
5180732281
5180737835
5180741681
5180747662
5180754803
5180765667
5180774701
5180781048
5180787335
5180794842
5180802349
5180808453
5180814801
5180820782
5180826031
5180831036
5180837200
5180844341
5180849041
5180855450
5180860760
5180865887
5180872418
5180878277
5180884747
5180889141
5180895550
5180902447
5180906902
5180912884
5180917950
5180924847
5180931683
5180938091
5180943951
5180952129
5180958111
5180967632
5180973125
5180979534
5180984966
5180990887
5180996502
5181003094
5181008526
5181016460
5181022381
5181029400
5181034832
5181041912
5181048809
5181055217
5181061138
5181068706
5181073772
5181081218
5181089397
5181095806
5181100872
5181108196
5181114116
5181120281
5181126811
5181131999
5181137737
5181144145
5181150005
5181155498
5181161479
5181167339
5181173381
5181179546
5181185344
5181191631
5181197551
5181203593
5181209148
5181214519
5181221416
5181227702
5181233745
5181239909
5181246928
5181255962
5181264201
5181273967
5181281108
5181286906
5181292583
5181298991
5181304912
5181310527
5181316874
5181322612
5181328776
5181334208
5181339641
5181344523
5181350322
5181355937
5181359721
5181366801
5181373576
5181380107
5181387126
5181390666
5181397197
5181402140
5181408427
5181415202
5181420634
5181424601
5181430644
5181437419
5181442973
5181448710
5181453105
5181460185
5181465128
5181470805
5181475688
5181481059
5181487895
5181493815
5181499003
5181504740
5181511027
5181517558
5181523051
5181529032
5181534586
5181539896
5181546610
5181552592
5181560831
5181568095
5181572977
5181578470
5181584452
5181591166
5181596537
5181601481
5181608133
5181614054
5181618387
5181625040
5181631083
5181635904
5181642984
5181647379
5181654337
5181659830
5181665079
5181671000
5181677530
5181683817
5181689005
5181694620
5181700235
5181706400
5181712564
5181719766
5181728617
5181734171
5181740885
5181749613
5181759073
5181764871
5181771158
5181776163
5181782755
5181787576
5181793802
5181799844
5181806314
5181810770
5181817239
5181822000
5181829202
5181836160
5181842691
5181848489
5181855508
5181860818
5181867837
5181874673
5181879739
5181885232
5181891092
5181899515
5181904825
5181911355
5181919046
5181925271
5181931497
5181938089
5181942605
5181948831
5181955789
5181962014
5181967019
5181972757
5181978311
5181983316
5181990152
5181995889
5182001382
5182006570
5182012979
5182017922
5182025003
5182029885
5182035440
5182041238
5182047647
5182054116
5182060342
5182066384
5182071389
5182077065
5182082803
5182088845
5182092934
5182100442
5182107278
5182114114
5182120034
5182124184
5182131814
5182136941
5182144082
5182149392
5182154397
5182160378
5182165139
5182171303
5182176675
5182181496
5182187905
5182193459
5182197548
5182205178
5182209511
5182216836
5182223916
5182232460
5182240151
5182248879
5182257241
5182262612
5182267922
5182274331
5182280129
5182286293
5182291420
5182295143
5182301796
5182308388
5182314064
5182320473
5182326515
5182330910
5182337624
5182342690
5182350929
5182356239
5182363258
5182368141
5182373695
5182379311
5182386269
5182392494
5182398109
5182404213
5182409462
5182415260
5182421730
5182427467
5182433266
5182438881
5182444130
5182448707
5182454567
5182462074
5182468117
5182472999
5182479774
5182485084
5182490272
5182495827
5182502296
5182508400
5182513893
5182521583
5182525856
5182532631
5182540199
5182547889
5182556617
5182561866
5182567970
5182574256
5182579444
5182585670
5182592018
5182598243
5182606300
5182613502
5182619667
5182626136
5182632484
5182638404
5182643897
5182650184
5182655738
5182661292
5182666480
5182672584
5182677711
5182683997
5182689918
5182696937
5182706275
5182714820
5182722511
5182730323
5182738563
5182743690
5182750526
5182757606
5182762611
5182771583
5182776832
5182782752
5182788611
5182793555
5182800757
5182807532
5182815833
5182822852
5182828406
5182832435
5182839026
5182845130
5182850928
5182856482
5182862586
5182868506
5182874732
5182882178
5182890052
5182896704
5182902320
5182908484
5182914527
5182920508
5182926245
5182931250
5182937293
5182942237
5182948645
5182952612
5182959326
5182964575
5182970618
5182976660
5182980811
5182987891
5182992224
5182999793
5183004919
5183010779
5183018958
5183026343
5183031836
5183037756
5183043799
5183050329
5183055273
5183061682
5183066626
5183073523
5183079260
5183087195
5183095678
5183102209
5183109472
5183116003
5183121557
5183127539
5183134131
5183139135
5183144018
5183150061
5183156164
5183162512
5183167517
5183172583
5183178869
5183187475
5183193884
5183203344
5183210058
5183216528
5183222509
5183230200
5183236791
5183241308
5183247717
5183253942
5183259130
5183264929
5183270300
5183274816
5183281408
5183286779
5183293371
5183299352
5183305456
5183311254
5183314611
5183322057
5183327795
5183333044
5183338720
5183344579
5183350866
5183354711
5183361120
5183368749
5183373144
5183378881
5183383336
5183389257
5183396154
5183401159
5183406347
5183412084
5183417821
5183424108
5183429052
5183435582
5183441076
5183446935
5183453222
5183457067
5183463903
5183469396
5183475011
5183480382
5183487767
5183493749
5183499547
5183505284
5183509069
5183516820
5183525548
5183530858
5183537389
5183542821
5183547948
5183555272
5183563268
5183569920
5183574803
5183580785
5183587804
5183592564
5183599034
5183603917
5183609715
5183615575
5183621373
5183627660
5183633397
5183638768
5183644993
5183651768
5183656346
5183662816
5183668492
5183674595
5183679722
5183685155
5183693760
5183702305
5183709507
5183715672
5183724217
5183732701
5183738804
5183744786
5183749913
5183755589
5183760838
5183768223
5183774510
5183778965
5183785069
5183791600
5183796604
5183801487
5183806675
5183811985
5183817845
5183823521
5183829930
5183835606
5183840611
5183846897
5183853062
5183859287
5183865025
5183869724
5183876316
5183881992
5183887608
5183894505
5183899082
5183906223
5183910923
5183915989
5183921482
5183926731
5183932835
5183939426
5183945591
5183950596
5183955051
5183961643
5183967502
5183974155
5183980198
5183986545
5183991611
5183997288
5184002537
5184007541
5184014194
5184020359
5184026096
5184031406
5184037876
5184043979
5184050388
5184056308
5184063999
5184069797
5184074863
5184081211
5184086277
5184092014
5184098300
5184104526
5184109958
5184115451
5184121433
5184127231
5184133335
5184138706
5184143772
5184151523
5184156528
5184161411
5184167087
5184172824
5184179233
5184185275
5184190402
5184197238
5184202731
5184209079
5184216098
5184225864
5184231113
5184239719
5184248935
5184255160
5184261203
5184267489
5184273044
5184277987
5184283542
5184289035
5184294894
5184300448
5184306613
5184312533
5184318026
5184324069
5184329562
5184335788
5184341464
5184347812
5184353610
5184358310
5184365268
5184371615
5184377169
5184382418
5184388888
5184395053
5184399935
5184406466
5184411654
5184417880
5184423190
5184431002
5184439913
5184447970
5184458285
5184467135
5184472872
5184477999
5184484103
5184489535
5184495821
5184501620
5184506869
5184512789
5184517794
5184524264
5184530123
5184535921
5184541109
5184545687
5184553194
5184558443
5184566500
5184573336
5184577975
5184584017
5184590731
5184596285
5184604525
5184611788
5184617464
5184623507
5184629000
5184634737
5184641207
5184646700
5184652620
5184658297
5184664644
5184669893
5184675325
5184681307
5184686556
5184694124
5184700350
5184706819
5184712190
5184717439
5184723787
5184729158
5184735506
5184741548
5184748689
5184754793
5184760713
5184767244
5184771150
5184780122
5184787080
5184794832
5184800691
5184806184
5184813081
5184819185
5184825655
5184830354
5184835359
5184841402
5184846712
5184853425
5184858491
5184864778
5184870637
5184875703
5184881502
5184886873
5184892244
5184897554
5184903779
5184909272
5184915742
5184921174
5184925691
5184931733
5184938691
5184943391
5184948579
5184954866
5184960420
5184966890
5184972200
5184976777
5184983003
5184989900
5184995515
5185002229
5185006867
5185013520
5185018098
5185025788
5185029878
5185035615
5185041047
5185047700
5185053620
5185058015
5185063813
5185069123
5185076508
5185082856
5185090180
5185097993
5185103425
5185109589
5185115876
5185123566
5185129975
5185135529
5185141999
5185147126
5185153168
5185158600
5185165314
5185171540
5185176118
5185182709
5185189606
5185195099
5185202607
5185208710
5185214203
5185218110
5185227997
5185234223
5185239289
5185244599
5185250702
5185257050
5185263459
5185269257
5185276154
5185281952
5185289276
5185293976
5185301850
5185306916
5185313690
5185318878
5185323883
5185331391
5185335541
5185342194
5185346527
5185352265
5185358551
5185363434
5185369598
5185375702
5185380768
5185387116
5185390289
5185397552
5185403839
5185409882
5185415802
5185420746
5185425995
5185430878
5185436676
5185443695
5185448028
5185454254
5185460602
5185465729
5185470550
5185475982
5185480926
5185489410
5185495819
5185500213
5185506317
5185512420
5185517486
5185522186
5185527496
5185535064
5185539703
5185545501
5185552459
5185556793
5185561554
5185568023
5185575653
5185580169
5185585601
5185591705
5185597564
5185602264
5185607025
5185614654
5185619415
5185626861
5185632537
5185638519
5185644927
5185649566
5185657378
5185664459
5185670257
5185676727
5185681548
5185687347
5185693877
5185700652
5185705901
5185712798
5185718413
5185723174
5185728362
5185735869
5185739654
5185746490
5185750701
5185757049
5185762237
5185768401
5185775969
5185782500
5185788543
5185793181
5185799224
5185806975
5185813445
5185821624
5185828460
5185833281
5185838469
5185843413
5185848540
5185856536
5185862273
5185867644
5185873198
5185879607
5185884062
5185889250
5185895232
5185900176
5185907378
5185913481
5185918242
5185924407
5185929595
5185934538
5185939909
5185946013
5185952422
5185956084
5185963774
5185969206
5185975859
5185981474
5185988982
5185995390
5185999663
5186006316
5186012358
5186016814
5186024138
5186029143
5186035918
5186040495
5186047636
5186052397
5186057585
5186064543
5186071074
5186077360
5186082243
5186089079
5186094389
5186101103
5186107084
5186111723
5186118925
5186124357
5186129423
5186136076
5186142973
5186148222
5186155058
5186159635
5186166899
5186173796
5186179533
5186184904
5186190397
5186197111
5186202299
5186206999
5186214262
5186219938
5186226408
5186232206
5186237089
5186243314
5186248991
5186254240
5186260709
5186266569
5186272062
5186278593
5186283231
5186289701
5186296781
5186304594
5186310636
5186318632
5186324491
5186329984
5186338468
5186343229
5186350065
5186355680
5186361539
5186367216
5186370878
5186377347
5186383695
5186390653
5186395231
5186400480
5186406766
5186412015
5186417203
5186424772
5186429898
5186435941
5186441922
5186447599
5186452420
5186458280
5186463651
5186469388
5186476163
5186482755
5186488919
5186493802
5186500577
5186505216
5186512784
5186518094
5186524869
5186530057
5186535184
5186542020
5186547696
5186553677
5186560086
5186564359
5186571195
5186576505
5186582669
5186588834
5186593411
5186600613
5186605801
5186613065
5186619961
5186625760
5186631680
5186638272
5186644070
5186649747
5186655484
5186659573
5186665005
5186672207
5186677456
5186683072
5186688748
5186694424
5186702237
5186708828
5186714932
5186730679
5186743740
5186752163
5186761074
5186768582
5186778347
5186787258
5186796719
5186803128
5186809109
5186816433
5186823269
5186831570
5186837978
5186844692
5186851711
5186858242
5186865078
5186870388
5186876064
5186881008
5186887173
5186893642
5186898403
5186905422
5186910610
5186916897
5186921719
5186928310
5186934353
5186940151
5186945522
5186951259
5186956692
5186962185
5186968593
5186975185
5186982326
5186988796
5186994594
5186999416
5187007045
5187012600
5187018642
5187024990
5187031276
5187036464
5187041286
5187046962
5187053188
5187059841
5187064968
5187069911
5187076747
5187081569
5187087245
5187094509
5187099208
5187106532
5187111354
5187117214
5187122035
5187128078
5187135097
5187139736
5187146755
5187155971
5187160915
5187167751
5187173854
5187179713
5187184108
5187190211
5187196193
5187201259
5187207179
5187212245
5187218959
5187223720
5187229518
5187235927
5187240993
5187247157
5187252284
5187258998
5187262355
5187269496
5187275660
5187279811
5187286647
5187293605
5187298976
5187304774
5187310511
5187317469
5187325343
5187332118
5187338343
5187343959
5187350978
5187360499
5187365931
5187373866
5187378810
5187384486
5187390162
5187394862
5187402491
5187407557
5187412928
5187418910
5187423548
5187430750
5187435816
5187441065
5187446131
5187452723
5187457850
5187463587
5187467493
5187475672
5187481104
5187485560
5187491236
5187497889
5187503992
5187508204
5187514918
5187519251
5187527064
5187532740
5187537134
5187544153
5187549097
5187555750
5187559595
5187565943
5187572046
5187579493
5187584620
5187589747
5187595728
5187601038
5187607264
5187612391
5187619654
5187624964
5187629419
5187635645
5187640955
5187647486
5187652552
5187658167
5187667139
5187673975
5187679651
5187684717
5187691370
5187696741
5187705408
5187714685
5187719507
5187724939
5187731531
5187737879
5187744104
5187749963
5187756799
5187763757
5187768213
5187775049
5187779932
5187786951
5187793420
5187799585
5187805261
5187811365
5187817163
5187822900
5187828577
5187833520
5187840478
5187846460
5187852685
5187859887
5187865564
5187872400
5187879480
5187884301
5187889428
5187896997
5187904748
5187910180
5187916711
5187923547
5187928735
5187934594
5187939782
5187945031
5187951257
5187957482
5187962915
5187970056
5187976403
5187980187
5187985681
5187990747
5187996179
5188001855
5188008447
5188014245
5188019494
5188026391
5188031762
5188038049
5188043115
5188047936
5188054284
5188061120
5188066613
5188070641
5188075585
5188081567
5188087426
5188092187
5188098229
5188104516
5188110680
5188116051
5188123070
5188127953
5188133385
5188139428
5188145592
5188149743
5188155175
5188161461
5188165612
5188171471
5188178002
5188183312
5188190636
5188195885
5188201439
5188209374
5188214440
5188219689
5188225731
5188231652
5188237511
5188241661
5188247704
5188251854
5188258202
5188266014
5188270653
5188274987
5188281090
5188286217
5188291283
5188296288
5188302147
5188307884
5188313866
5188318260
5188325462
5188330956
5188336632
5188341881
5188346947
5188353294
5188358421
5188365685
5188370750
5188375572
5188381187
5188387596
5188393883
5188400780
5188407494
5188412132
5188419151
5188424522
5188431846
5188437950
5188445091
5188448936
5188454918
5188461082
5188465843
5188472862
5188477928
5188484642
5188489891
5188495994
5188502403
5188508567
5188513694
5188520958
5188527488
5188534019
5188539512
5188545127
5188550254
5188556663
5188563804
5188568321
5188574851
5188580100
5188585105
5188590415
5188597495
5188602867
5188607932
5188613975
5188619651
5188625144
5188629173
5188636558
5188642234
5188647422
5188652427
5188658469
5188665000
5188669456
5188676231
5188681724
5188687705
5188693137
5188698814
5188704307
5188710349
5188718406
5188726157
5188732444
5188737815
5188743369
5188749412
5188755332
5188762046
5188767173
5188772788
5188779929
5188784873
5188790488
5188796042
5188802451
5188807334
5188814597
5188818564
5188826560
5188832236
5188837668
5188845969
5188851340
5188857810
5188863486
5188870627
5188875754
5188882773
5188890647
5188898154
5188905600
5188913413
5188923178
5188928427
5188934836
5188941794
5188946249
5188952902
5188958945
5188964865
5188970724
5188977621
5188983115
5188989951
5188994955
5189001608
5189007345
5189012778
5189019247
5189023459
5189029318
5189036703
5189042868
5189047873
5189054037
5189059530
5189065024
5189069967
5189076742
5189082235
5189087851
5189093893
5189100363
5189105734
5189110373
5189116537
5189122396
5189127645
5189132528
5189139486
5189145407
5189151327
5189156515
5189161825
5189167562
5189172872
5189178671
5189185385
5189191610
5189196737
5189202474
5189210287
5189216635
5189223287
5189230428
5189236227
5189242147
5189249166
5189253988
5189261312
5189268880
5189274923
5189281026
5189287923
5189294759
5189302084
5189309835
5189316793
5189324789
5189330831
5189336446
5189342428
5189348958
5189354574
5189361226
5189367635
5189375509
5189381124
5189388936
5189397847
5189404317
5189412130
5189420430
5189425924
5189431234
5189435872
5189445089
5189452352
5189459066
5189466695
5189471639
5189478963
5189483907
5189489522
5189494710
5189500325
5189508626
5189515706
5189521504
5189526509
5189531880
5189538777
5189542622
5189549947
5189556660
5189562703
5189568990
5189576436
5189581380
5189588399
5189594502
5189601826
5189607808
5189613545
5189619160
5189624531
5189630086
5189635213
5189641987
5189647236
5189652302
5189658101
5189664937
5189668721
5189675862
5189683247
5189688130
5189694722
5189700581
5189707966
5189714802
5189720234
5189727803
5189734394
5189740315
5189745259
5189751301
5189756184
5189762959
5189769917
5189774739
5189780964
5189785359
5189791645
5189798176
5189803486
5189808552
5189814472
5189820637
5189826313
5189832539
5189839802
5189844074
5189851337
5189856525
5189863667
5189867695
5189874470
5189878803
5189885517
5189892597
5189897724
5189903644
5189910663
5189915974
5189920612
5189928669
5189935871
5189942097
5189948200
5189955280
5189961994
5189967304
5189973591
5189979999
5189986225
5189991535
5189997089
5190002582
5190006794
5190013935
5190018940
5190025776
5190030292
5190035236
5190041034
5190046222
5190051166
5190056537
5190061908
5190068317
5190075336
5190081195
5190086444
5190091205
5190096271
5190102435
5190109332
5190114642
5190120807
5190125324
5190130328
5190136737
5190141864
5190149005
5190153949
5190160358
5190165485
5190171466
5190178546
5190182941
5190189471
5190194598
5190201007
5190204547
5190212176
5190218402
5190223346
5190229327
5190237933
5190243365
5190248858
5190259051
5190267413
5190273394
5190280841
5190285663
5190293109
5190299334
5190305987
5190311724
5190318621
5190325274
5190331927
5190338275
5190343341
5190348651
5190356219
5190360919
5190368426
5190373431
5190379534
5190386981
5190393267
5190398882
5190404193
5190410174
5190415972
5190422076
5190428973
5190434954
5190442645
5190450335
5190455889
5190462481
5190469317
5190476397
5190481341
5190486895
5190494524
5190501726
5190507281
5190513262
5190520037
5190525164
5190532000
5190537798
5190545122
5190549883
5190556353
5190563738
5190569353
5190575213
5190580889
5190586077
5190592974
5190599505
5190606096
5190612505
5190619219
5190625139
5190633196
5190637712
5190644487
5190649431
5190654375
5190659441
5190665239
5190670854
5190677141
5190682878
5190688432
5190695146
5190702532
5190707842
5190714861
5190721452
5190727068
5190732805
5190739275
5190746416
5190753069
5190759721
5190766985
5190773088
5190780412
5190785417
5190791948
5190798357
5190803972
5190810808
5190817460
5190823320
5190828752
5190835832
5190843095
5190847551
5190855424
5190860734
5190867204
5190872453
5190878801
5190885881
5190892595
5190897783
5190904435
5190910966
5190915055
5190922258
5190929338
5190934220
5190942216
5190949235
5190955888
5190962907
5190970964
5190976701
5190985185
5190991166
5190997819
5191003129
5191010453
5191016068
5191021806
5191028581
5191035233
5191040177
5191047807
5191053727
5191058915
5191065385
5191071488
5191076920
5191083573
5191090592
5191095170
5191102677
5191107987
5191113969
5191121781
5191127579
5191134781
5191140946
5191148942
5191154374
5191159684
5191165909
5191170121
5191177384
5191182938
5191189652
5191194901
5191200577
5191205643
5191211136
5191217789
5191224564
5191230057
5191234146
5191240311
5191246659
5191251908
5191258194
5191263687
5191269058
5191275162
5191280838
5191285599
5191293106
5191300553
5191306229
5191311417
5191318619
5191324112
5191329849
5191333389
5191341019
5191347672
5191352737
5191358170
5191364517
5191369339
5191376175
5191381424
5191388016
5191393509
5191398880
5191404617
5191410049
5191416214
5191421585
5191425796
5191432754
5191438125
5191442703
5191450210
5191455337
5191460281
5191467239
5191475784
5191482559
5191491775
5191499832
5191507888
5191516006
5191522293
5191527114
5191533401
5191539444
5191545486
5191551223
5191558120
5191563919
5191569107
5191574844
5191578628
5191585342
5191591262
5191598220
5191604568
5191610183
5191614333
5191619460
5191626052
5191632217
5191639114
5191644546
5191649673
5191655776
5191660964
5191666579
5191672622
5191677627
5191684096
5191689406
5191695205
5191701308
5191705825
5191711928
5191717910
5191724502
5191729506
5191735671
5191740798
5191746352
5191751479
5191757522
5191764785
5191769423
5191775771
5191780837
5191786025
5191792861
5191800429
5191807631
5191813308
5191820754
5191826674
5191835585
5191843398
5191849745
5191858412
5191865431
5191873061
5191879897
5191888503
5191896132
5191903212
5191908644
5191915114
5191921034
5191924941
5191931654
5191938551
5191944899
5191950880
5191957350
5191962599
5191967909
5191974684
5191980849
5191985548
5191993361
5191998183
5192006483
5192012465
5192019850
5192025709
5192033217
5192039625
5192046156
5192052382
5192060072
5192066664
5192071241
5192077772
5192084669
5192090651
5192095655
5192101515
5192106886
5192112989
5192120069
5192125074
5192131788
5192138319
5192143507
5192148878
5192156263
5192161451
5192167494
5192174330
5192179395
5192186292
5192191358
5192197279
5192204176
5192210645
5192215772
5192221815
5192228590
5192233228
5192239698
5192246412
5192251539
5192258131
5192264051
5192269300
5192274854
5192281568
5192287733
5192293897
5192298963
5192306043
5192314771
5192319776
5192326429
5192331251
5192336988
5192343641
5192349561
5192355481
5192361463
5192370069
5192376661
5192382764
5192390332
5192394361
5192401563
5192409436
5192415662
5192422254
5192427381
5192434156
5192440137
5192447156
5192452771
5192457959
5192463147
5192468579
5192475415
5192479505
5192485974
5192490125
5192497937
5192501416
5192508374
5192513562
5192519238
5192526196
5192531384
5192536389
5192542798
5192547620
5192555249
5192561658
5192567273
5192573987
5192579907
5192585461
5192591748
5192599011
5192607495
5192612988
5192618054
5192622876
5192628369
5192635205
5192641186
5192645154
5192651928
5192656384
5192662488
5192667004
5192673352
5192679028
5192685925
5192691967
5192697400
5192702954
5192709118
5192714367
5192720227
5192725903
5192730969
5192737561
5192742687
5192747448
5192752941
5192759106
5192764111
5192769299
5192775891
5192780407
5192786816
5192791393
5192797924
5192803112
5192809582
5192815258
5192820141
5192825207
5192831921
5192836193
5192844250
5192850353
5192855114
5192861095
5192868053
5192872997
5192879101
5192883312
5192889416
5192895275
5192901317
5192909374
5192915661
5192921642
5192926769
5192932018
5192937572
5192943981
5192948742
5192955089
5192960888
5192967418
5192974620
5192982067
5192987865
5192993724
5192998668
5193004467
5193010082
5193016613
5193021007
5193027477
5193032909
5193039073
5193044445
5193049144
5193054820
5193061473
5193066051
5193072338
5193078746
5193083568
5193090587
5193096690
5193103587
5193109996
5193117137
5193122936
5193129466
5193136241
5193142772
5193150218
5193155772
5193160472
5193166087
5193173106
5193177989
5193182445
5193189586
5193195872
5193201182
5193206248
5193211741
5193217296
5193224071
5193228221
5193234996
5193241466
5193247630
5193252940
5193257396
5193263621
5193268687
5193275950
5193281382
5193286937
5193293101
5193297618
5193304393
5193308482
5193314646
5193321299
5193326976
5193332102
5193338633
5193343821
5193349497
5193354563
5193360850
5193366770
5193371287
5193378367
5193382945
5193388987
5193394053
5193401377
5193406748
5193419810
5193427256
5193435069
5193442576
5193450571
5193458445
5193465647
5193472178
5193477488
5193484202
5193489634
5193497507
5193503367
5193510630
5193517344
5193524058
5193530893
5193539011
5193546152
5193552439
5193558725
5193565012
5193574106
5193581125
5193585398
5193594065
5193601633
5193608469
5193617441
5193624033
5193630564
5193638010
5193644968
5193651316
5193658579
5193666391
5193672617
5193678903
5193683603
5193691110
5193696481
5193704050
5193709970
5193716745
5193722482
5193728586
5193734811
5193740671
5193745737
5193751779
5193756174
5193762582
5193769723
5193775461
5193780832
5193787240
5193791330
5193797067
5193803720
5193811960
5193819833
5193828683
5193838083
5193845773
5193851266
5193859445
5193865182
5193871530
5193878915
5193883126
5193890573
5193897470
5193904611
5193909372
5193915048
5193921945
5193927926
5193932870
5193940072
5193946176
5193954476
5193961617
5193969796
5193975411
5193982614
5193989633
5193995736
5194001046
5194007760
5194012704
5194020211
5194024972
5194030343
5194036446
5194041390
5194047250
5194052987
5194060982
5194065865
5194071908
5194078133
5194083932
5194089242
5194095833
5194100350
5194106637
5194114022
5194120614
5194127938
5194137337
5194143990
5194151009
5194156746
5194163094
5194169320
5194174447
5194180733
5194186104
5194192147
5194198433
5194205330
5194210152
5194217842
5194223091
5194228890
5194233650
5194239876
5194245491
5194251290
5194257515
5194263313
5194269783
5194273995
5194280098
5194285896
5194289864
5194296028
5194303169
5194310494
5194316048
5194322029
5194327950
5194333382
5194338631
5194345161
5194349190
5194356087
5194361336
5194367012
5194370552
5194378364
5194384285
5194388862
5194394722
5194399544
5194405952
5194411506
5194417793
5194423408
5194429817
5194435127
5194439827
5194445015
5194451606
5194458381
5194462959
5194471870
5194475715
5194483223
5194488105
5194493721
5194499031
5194503669
5194510444
5194516120
5194521430
5194526252
5194531074
5194536201
5194541877
5194547065
5194553901
5194559455
5194563911
5194569770
5194575324
5194580146
5194584724
5194591010
5194596504
5194603156
5194608650
5194614021
5194619086
5194624763
5194629829
5194640327
5194645759
5194653266
5194661079
5194668769
5194675849
5194682563
5194686652
5194692817
5194699164
5194704719
5194709662
5194717109
5194723395
5194730109
5194735541
5194741462
5194746100
5194752997
5194757392
5194765021
5194768439
5194775336
5194779914
5194786506
5194792182
5194797370
5194805060
5194810492
5194815253
5194820807
5194827155
5194832953
5194839057
5194842963
5194851569
5194857123
5194861579
5194866950
5194871832
5194879157
5194884894
5194890753
5194895819
5194901068
5194906195
5194911749
5194917059
5194922736
5194928473
5194934332
5194940009
5194945807
5194951239
5194956244
5194963141
5194969000
5194974493
5194979437
5194987982
5194993414
5195000433
5195007940
5195014166
5195019720
5195025580
5195030829
5195036932
5195042669
5195049261
5195053717
5195060492
5195066412
5195070990
5195077215
5195082342
5195089117
5195094915
5195102728
5195108587
5195113592
5195118597
5195123541
5195130255
5195137945
5195143621
5195150518
5195157354
5195162664
5195171453
5195178961
5195186041
5195195074
5195203680
5195211797
5195217229
5195222417
5195230169
5195235052
5195239507
5195245916
5195251165
5195258245
5195262151
5195272039
5195277654
5195283697
5195290227
5195294256
5195299261
5195305120
5195311223
5195317937
5195323675
5195328740
5195333623
5195339055
5195344671
5195350530
5195356023
5195362371
5195366460
5195372930
5195377507
5195383855
5195389043
5195396794
5195402654
5195407109
5195412236
5195417729
5195422673
5195428838
5195432866
5195439641
5195445439
5195451787
5195456914
5195460881
5195467473
5195472234
5195477483
5195483037
5195487187
5195492070
5195496037
5195500920
5195507146
5195512395
5195517705
5195523198
5195527898
5195531987
5195536687
5195541447
5195546757
5195551335
5195556096
5195560918
5195565434
5195570012
5195573857
5195578679
5195582890
5195586857
5195590825
5195595646
5195600163
5195604008
5195610356
5195615300
5195620305
5195624150
5195629033
5195634099
5195638798
5195643193
5195648015
5195652897
5195658024
5195664616
5195669255
5195676030
5195679936
5195683598
5195689762
5195695561
5195699467
5195704838
5195708988
5195712956
5195717106
5195721684
5195727482
5195732792
5195737858
5195742680
5195746891
5195751042
5195755192
5195760197
5195764530
5195769352
5195772770
5195778080
5195783024
5195786564
5195790897
5195795658
5195800907
5195806706
5195809818
5195815861
5195822758
5195826359
5195829350
5195836613
5195841557
5195845768
5195850529
5195854801
5195859196
5195863529
5195868046
5195872501
5195876896
5195881840
5195887089
5195892460
5195897831
5195903568
5195909733
5195913883
5195917484
5195923710
5195927860
5195932316
5195936283
5195942142
5195948429
5195962711
5195967350
5195974247
5195978946
5195984073
5195988712
5195994327
5196000248
5196005069
5196009281
5196013858
5196018314
5196023075
5196026554
5196032352
5196037662
5196042179
5196048770
5196053165
5196058292
5196062320
5196066470
5196071842
5196076785
5196082156
5196087344
5196091190
5196095584
5196099490
5196105289
5196109683
5196114688
5196117862
5196123050
5196127872
5196134525
5196140872
5196145633
5196149600
5196154544
5196159976
5196165591
5196169803
5196174686
5196180362
5196184207
5196189517
5196194095
5196197513
5196201663
5196206119
5196210513
5196213870
5196219363
5196226870
5196231692
5196236331
5196241946
5196246158
5196249881
5196253848
5196260135
5196263736
5196270205
5196275088
5196279177
5196285342
5196290530
5196295291
5196299929
5196305056
5196309878
5196314883
5196321353
5196325320
5196331301
5196336062
5196343508
5196349734
5196354617
5196358096
5196364565
5196368228
5196375063
5196380618
5196385989
5196391238
5196396975
5196401675
5196406252
5196423830
5196432436
5196438967
5196445254
5196449221
5196455874
5196461184
5196466616
5196473086
5196478945
5196482424
5196488039
5196492861
5196497988
5196504152
5196509890
5196514773
5196521120
5196526491
5196530825
5196538149
5196542421
5196548891
5196555544
5196559816
5196565432
5196571779
5196578676
5196583193
5196588259
5196593325
5196600527
5196605654
5196610536
5196616945
5196623720
5196630373
5196637087
5196644838
5196650270
5196658144
5196663271
5196667787
5196676820
5196682436
5196687380
5196692812
5196697328
5196703920
5196709169
5196715517
5196720644
5196725771
5196731569
5196736818
5196742250
5196747682
5196753175
5196760744
5196767213
5196772829
5196778688
5196783449
5196788515
5196794740
5196800477
5196806215
5196816469
5196820314
5196826356
5196833192
5196838258
5196843080
5196849916
5196854676
5196861146
5196865480
5196871095
5196876649
5196882875
5196889711
5196895387
5196899598
5196905213
5196911195
5196918946
5196922731
5196928529
5196934205
5196940858
5196945558
5196949830
5196958741
5196963197
5196969056
5196973390
5196981080
5196988099
5196993592
5196997926
5197004517
5197011170
5197017518
5197025208
5197031068
5197037415
5197043397
5197049134
5197053773
5197061463
5197068665
5197075074
5197079651
5197085511
5197092408
5197098389
5197104920
5197112366
5197121583
5197127381
5197133912
5197139039
5197145569
5197150574
5197156067
5197162110
5197167359
5197174927
5197181397
5197187256
5197191162
5197198120
5197202393
5197209778
5197217896
5197223877
5197228943
5197234802
5197240540
5197249268
5197255188
5197260681
5197266174
5197271668
5197278442
5197286926
5197292664
5197298889
5197304138
5197310852
5197316772
5197323303
5197327759
5197335815
5197340881
5197345520
5197350281
5197354614
5197365600
5197371826
5197376892
5197380432
5197385071
5197390686
5197397033
5197402649
5197407959
5197413574
5197419372
5197425659
5197430298
5197435363
5197439575
5197445739
5197451782
5197459655
5197465881
5197470520
5197475586
5197480163
5197485717
5197492736
5197496826
5197503295
5197508239
5197512695
5197518310
5197522155
5197526489
5197532775
5197539184
5197546874
5197551269
5197558105
5197563232
5197570373
5197577392
5197585876
5197591430
5197599303
5197606933
5197613097
5197621093
5197627258
5197634338
5197641418
5197650756
5197655944
5197664855
5197675597
5197679809
5197689452
5197698302
5197703795
5197709594
5197719603
5197724914
5197733825
5197739013
5197748595
5197756835
5197761351
5197771788
5197778563
5197785399
5197792906
5197798461
5197807006
5197817748
5197824706
5197833739
5197840819
5197849181
5197854796
5197861144
5197870238
5197877440
5197887816
5197894591
5197904540
5197909422
5197916136
5197925230
5197930785
5197940611
5197946165
5197951964
5197962034
5197970579
5197980101
5197988890
5197995482
5198003782
5198010374
5198021544
5198028196
5198039305
5198049559
5198057432
5198063414
5198068541
5198076780
5198084532
5198091307
5198096800
5198103880
5198112120
5198117674
5198126829
5198133177
5198139829
5198145933
5198152708
5198162534
5198169859
5198177549
5198187559
5198194700
5198200864
5198209287
5198217222
5198223875
5198230100
5198235776
5198245054
5198253904
5198260374
5198268857
5198275205
5198283628
5198288938
5198297910
5198305112
5198312192
5198318967
5198327878
5198333249
5198341123
5198350156
5198359555
5198366147
5198372739
5198379819
5198386167
5198398435
5198405881
5198414243
5198423215
5198425473
5198436032
5198445615
5198452512
5198457639
5198467282
5198474728
5198481503
5198492062
5198498776
5198505185
5198513058
5198519955
5198529904
5198535580
5198543149
5198556454
5198565671
5198572262
5198578915
5198588193
5198596860
5198603024
5198609372
5198615780
5198624936
5198633969
5198642575
5198648007
5198657345
5198665036
5198670590
5198679257
5198685421
5198692318
5198700497
5198709835
5198717282
5198723141
5198730709
5198739254
5198746151
5198750607
5198757198
5198768978
5198774471
5198782955
5198788815
5198797237
5198802303
5198812557
5198819881
5198826046
5198835323
5198843380
5198850155
5198855770
5198863888
5198871639
5198877254
5198887386
5198896419
5198903682
5198913021
5198921505
5198927547
5198938350
5198946895
5198955257
5198965267
5198971370
5198980770
5198987789
5198993526
5199000667
5199006465
5199011898
5199016780
5199022151
5199028743
5199035762
5199041805
5199047664
5199053035
5199059444
5199063289
5199070003
5199075679
5199082637
5199086726
5199092220
5199098384
5199104488
5199109920
5199115840
5199120174
5199126521
5199133052
5199138179
5199144466
5199150508
5199155757
5199161433
5199167354
5199171992
5199177424
5199183467
5199189815
5199195064
5199200801
5199205562
5199212153
5199216426
5199225886
5199232051
5199236811
5199241572
5199246028
5199250117
5199256770
5199262507
5199268000
5199274104
5199280329
5199286616
5199292903
5199296992
5199302851
5199308467
5199314936
5199320552
5199325556
5199328913
5199335322
5199340815
5199347041
5199351618
5199356318
5199363703
5199369074
5199375178
5199379939
5199386713
5199391596
5199395930
5199399897
5199407526
5199413508
5199418146
5199423640
5199428644
5199434870
5199439692
5199445551
5199451655
5199457880
5199462885
5199468928
5199473505
5199478144
5199484186
5199487787
5199495234
5199500788
5199507197
5199512995
5199519770
5199524836
5199531794
5199537775
5199543695
5199550653
5199559381
5199565546
5199571650
5199577326
5199583002
5199589167
5199594843
5199600946
5199606378
5199611811
5199617609
5199622003
5199628656
5199634149
5199640131
5199645075
5199652277
5199656366
5199662653
5199668451
5199674493
5199680353
5199687189
5199693048
5199697992
5199703485
5199709589
5199713556
5199721246
5199727228
5199732172
5199739984
5199744134
5199748834
5199755121
5199759881
5199765924
5199772333
5199775873
5199784662
5199790094
5199796502
5199807367
5199817071
5199825799
5199833429
5199842706
5199850763
5199859735
5199868524
5199876092
5199885980
5199898126
5199905572
5199912957
5199919976
5199927178
5199935296
5199945245
5199955926
5199964593
5199972955
5199979668
5199987542
5199994988
5200002557
5200009820
5200017632
5200025384
5200034417
5200042901
5200049248
5200059014
5200066826
5200074700
5200083306
5200090874
5200098809
5200106865
5200116204
5200124627
5200132439
5200143120
5200150078
5200159966
5200167961
5200173394
5200184807
5200197380
5200208489
5200215813
5200223503
5200232964
5200242241
5200249199
5200258720
5200266106
5200274529
5200281548
5200290031
5200298088
5200303947
5200313408
5200321831
5200328789
5200337944
5200345695
5200353325
5200361870
5200369743
5200378288
5200385429
5200392204
5200399894
5200409355
5200416435
5200423698
5200435783
5200443779
5200450248
5200458732
5200468864
5200476676
5200485771
5200493827
5200502250
5200511283
5200519279
5200525504
5200532890
5200542960
5200550590
5200557853
5200566947
5200577140
5200584769
5200590934
5200599357
5200606254
5200615897
5200624503
5200633720
5200641349
5200648673
5200656913
5200664664
5200674491
5200682487
5200690726
5200698722
5200706168
5200713736
5200721976
5200729789
5200738639
5200744559
5200754142
5200762503
5200769706
5200778922
5200786246
5200795706
5200803214
5200811576
5200818778
5200827200
5200833670
5200842764
5200849600
5200859671
5200866019
5200873953
5200880606
5200890616
5200898062
5200905020
5200914542
5200922964
5200931265
5200940542
5200946524
5200956961
5200965567
5200972281
5200982779
5200989126
5200999624
5201008108
5201016714
5201023367
5201031851
5201041189
5201048880
5201055716
5201064810
5201069326
5201073416
5201078787
5201082754
5201086965
5201092581
5201097280
5201102102
5201106375
5201111318
5201116018
5201119497
5201125967
5201130483
5201135793
5201139639
5201144338
5201148428
5201154165
5201158193
5201163870
5201168325
5201173086
5201177358
5201181753
5201186025
5201190237
5201193899
5201200430
5201205129
5201209096
5201214712
5201219289
5201223867
5201228445
5201234548
5201239492
5201245473
5201249990
5201255544
5201260854
5201265127
5201271230
5201275686
5201282094
5201287221
5201292409
5201297963
5201303884
5201309255
5201315297
5201320241
5201326345
5201331289
5201335988
5201341665
5201346730
5201351125
5201356862
5201360829
5201364858
5201371877
5201377431
5201381887
5201386952
5201391957
5201396962
5201403127
5201408498
5201415212
5201420522
5201426747
5201430715
5201436574
5201441640
5201447560
5201453298
5201459523
5201465199
5201470631
5201475758
5201480092
5201487233
5201493092
5201498585
5201504811
5201510365
5201516713
5201522511
5201528798
5201535023
5201542714
5201550526
5201556630
5201561391
5201566273
5201571339
5201576832
5201582142
5201587819
5201593190
5201599232
5201604664
5201609242
5201614674
5201620228
5201625355
5201630726
5201635731
5201641102
5201646901
5201651600
5201657154
5201663746
5201667775
5201674794
5201680226
5201686024
5201692005
5201698902
5201704823
5201711353
5201716969
5201723622
5201728626
5201734669
5201741017
5201748463
5201754810
5201760609
5201766590
5201772144
5201778187
5201784962
5201791248
5201796986
5201803211
5201809071
5201815479
5201821216
5201827564
5201833546
5201840443
5201847156
5201853199
5201859485
5201863880
5201870106
5201877125
5201885669
5201890796
5201897876
5201904895
5201910694
5201917713
5201923694
5201928455
5201934009
5201940174
5201945484
5201950183
5201956165
5201961475
5201967334
5201973926
5201979724
5201985828
5201991809
5201997669
5202001941
5202009509
5202013843
5202019885
5202026233
5202031055
5202036975
5202042651
5202047595
5202054065
5202060474
5202066882
5202073352
5202081348
5202086353
5202094287
5202101672
5202106494
5202113757
5202119678
5202125598
5202130786
5202136951
5202142016
5202147265
5202154590
5202160754
5202167041
5202172839
5202177844
5202182361
5202187976
5202194690
5202200061
5202206042
5202211352
5202217151
5202223010
5202228076
5202233264
5202239795
5202245593
5202251513
5202257128
5202263232
5202267382
5202273608
5202279162
5202284472
5202289172
5202297289
5202303698
5202307849
5202314562
5202319323
5202325488
5202331286
5202337206
5202344225
5202349352
5202353442
5202359301
5202366259
5202370226
5202376696
5202380907
5202390673
5202394091
5202399828
5202405505
5202412340
5202417040
5202423571
5202429186
5202435961
5202440905
5202447008
5202450915
5202458422
5202467455
5202474840
5202480394
5202487597
5202493334
5202499315
5202505419
5202509935
5202516039
5202522326
5202528063
5202535631
5202541063
5202546801
5202552477
5202558031
5202563707
5202568468
5202577196
5202583422
5202589037
5202595079
5202601488
5202607530
5202612718
5202617052
5202624010
5202632494
5202638353
5202644212
5202649461
5202655748
5202661668
5202667345
5202672960
5202679613
5202686143
5202693834
5202698900
5202703966
5202712450
5202716173
5202724779
5202728746
5202734361
5202739793
5202745531
5202751573
5202757310
5202762620
5202768297
5202773912
5202779344
5202784837
5202791734
5202797960
5202805101
5202811143
5202820115
5202826219
5202833482
5202840379
5202848130
5202852403
5202860826
5202869676
5202876206
5202883836
5202888841
5202895249
5202902207
5202906724
5202914659
5202919175
5202926316
5202932298
5202938584
5202944322
5202949265
5202954026
5202960496
5202965745
5202972886
5202978562
5202985337
5202990159
5202993943
5203003159
5203008774
5203013169
5203018723
5203025010
5203031907
5203036301
5203042222
5203048325
5203052231
5203058579
5203063950
5203075425
5203086594
5203096116
5203102768
5203108078
5203111741
5203118576
5203121994
5203130295
5203136094
5203140549
5203145188
5203151230
5203156906
5203162827
5203168015
5203174851
5203179062
5203185471
5203189560
5203196518
5203200791
5203207871
5203213852
5203219834
5203226547
5203232163
5203238144
5203243576
5203249008
5203254196
5203263168
5203269455
5203275681
5203285324
5203291977
5203299545
5203304001
5203312973
5203318466
5203327255
5203335312
5203340744
5203345260
5203353927
5203357651
5203365402
5203371200
5203376938
5203383774
5203389633
5203395858
5203401535
5203407150
5203412155
5203417709
5203425521
5203430465
5203435958
5203440902
5203445480
5203452011
5203456527
5203462204
5203468124
5203473007
5203478378
5203484359
5203490035
5203494796
5203500472
5203507308
5203511093
5203516158
5203522750
5203530135
5203534530
5203542709
5203547836
5203554244
5203559860
5203567428
5203573226
5203577621
5203583297
5203587264
5203596358
5203603866
5203611373
5203617416
5203623092
5203628036
5203635360
5203641646
5203646651
5203653243
5203659835
5203666976
5203671126
5203678267
5203684798
5203691756
5203696090
5203702987
5203709639
5203717452
5203722579
5203729354
5203735274
5203741622
5203748152
5203752364
5203759871
5203767562
5203777999
5203787398
5203794600
5203806441
5203815169
5203825850
5203835677
5203842329
5203854048
5203860030
5203870772
5203877364
5203883101
5203889937
5203894087
5203900496
5203906233
5203913313
5203919844
5203927351
5203931196
5203938704
5203946333
5203952986
5203957564
5203966047
5203970320
5203976729
5203982527
5203990706
5203997358
5204002913
5204008162
5204014570
5204019026
5204025557
5204031843
5204037580
5204042585
5204047590
5204052351
5204058638
5204063581
5204069380
5204075300
5204078901
5204086347
5204093000
5204098799
5204104170
5204109968
5204114607
5204120527
5204125715
5204132551
5204139753
5204147077
5204153303
5204157575
5204163984
5204169416
5204176130
5204180402
5204185529
5204191328
5204198347
5204203657
5204209211
5204214155
5204220685
5204226606
5204232587
5204238996
5204243146
5204249799
5204255170
5204261640
5204265912
5204272443
5204276960
5204284284
5204289594
5204295575
5204300641
5204306684
5204311567
5204319501
5204324506
5204328717
5204335553
5204341657
5204347882
5204354901
5204361371
5204365583
5204372174
5204376630
5204384748
5204391461
5204397443
5204401471
5204408368
5204412763
5204419782
5204424664
5204428815
5204437665
5204442120
5204447919
5204454755
5204461102
5204465558
5204470563
5204477277
5204484174
5204489850
5204494611
5204499799
5204506024
5204511700
5204517560
5204523846
5204529828
5204535504
5204542218
5204548810
5204553265
5204561627
5204567181
5204579205
5204585858
5204596173
5204601727
5204607464
5204614178
5204621075
5204625958
5204632000
5204638226
5204642620
5204649029
5204654034
5204659710
5204665020
5204670147
5204675457
5204683453
5204686993
5204695294
5204700909
5204705731
5204711590
5204717205
5204722942
5204728253
5204733929
5204738873
5204744671
5204750042
5204756329
5204762005
5204765667
5204772991
5204780010
5204787334
5204793499
5204799358
5204803997
5204809795
5204815288
5204822063
5204829571
5204834698
5204841595
5204847698
5204852459
5204859905
5204866009
5204871929
5204877178
5204883098
5204888652
5204894146
5204900310
5204905742
5204911663
5204917766
5204924236
5204931377
5204938457
5204943767
5204949443
5204955669
5204962505
5204968486
5204973003
5204979717
5204986003
5204990825
5204997661
5205003154
5205009685
5205017192
5205021709
5205028850
5205034404
5205040324
5205046062
5205051372
5205055583
5205063152
5205068462
5205074077
5205079753
5205086223
5205090984
5205097087
5205101909
5205108745
5205113750
5205119731
5205124675
5205130534
5205135722
5205141704
5205147990
5205151957
5205159892
5205163859
5205173625
5205181498
5205187846
5205194560
5205203410
5205210795
5205216960
5205225810
5205230754
5205235820
5205242472
5205246134
5205253398
5205258769
5205265177
5205272868
5205278605
5205283793
5205289164
5205295085
5205300456
5205306254
5205311991
5205319132
5205323405
5205329142
5205334574
5205340006
5205345438
5205351786
5205357340
5205364359
5205370463
5205376017
5205379923
5205386698
5205392313
5205397257
5205403055
5205409708
5205414164
5205420817
5205426432
5205433268
5205437357
5205443522
5205449015
5205455851
5205463114
5205467447
5205473002
5205477457
5205482950
5205489603
5205493631
5205500101
5205507792
5205512491
5205518900
5205524454
5205528910
5205534830
5205540445
5205550150
5205558451
5205565531
5205571817
5205577249
5205584207
5205589578
5205597208
5205605081
5205609659
5205614481
5205620645
5205627237
5205633890
5205639932
5205645914
5205652078
5205658792
5205662210
5205667581
5205674051
5205678262
5205683450
5205691751
5205698648
5205704935
5205708536
5205714334
5205720010
5205725320
5205730691
5205737161
5205743936
5205752176
5205759500
5205765725
5205771585
5205778360
5205786233
5205794961
5205800943
5205806436
5205811746
5205816812
5205821939
5205828653
5205835305
5205841348
5205847085
5205852212
5205859780
5205865212
5205870156
5205875222
5205882302
5205887368
5205893655
5205898477
5205904641
5205909341
5205918008
5205923135
5205929055
5205934304
5205939431
5205944680
5205949868
5205954934
5205961037
5205966470
5205972939
5205978249
5205983498
5205987344
5205993325
5205998391
5206008095
5206014687
5206019082
5206024575
5206030678
5206034646
5206041054
5206046303
5206052468
5206059426
5206064187
5206070656
5206075356
5206080788
5206086159
5206091408
5206098488
5206104775
5206109536
5206114907
5206121254
5206127907
5206135292
5206140114
5206149575
5206155617
5206159951
5206165322
5206169716
5206175698
5206180336
5206186012
5206191017
5206198219
5206203407
5206209755
5206214516
5206219826
5206226051
5206232460
5206237770
5206243752
5206250099
5206255104
5206259438
5206265785
5206270180
5206275795
5206286354
5206291542
5206298012
5206303383
5206307777
5206314491
5206319008
5206328224
5206336647
5206343117
5206349891
5206357765
5206363075
5206371437
5206376198
5206382423
5206389137
5206393531
5206398048
5206405433
5206409950
5206416420
5206422096
5206429969
5206434669
5206442848
5206448219
5206452796
5206456703
5206464576
5206468055
5206475562
5206480506
5206486732
5206492347
5206497657
5206502174
5206508704
5206514137
5206520118
5206528053
5206533546
5206539222
5206543861
5206550513
5206554847
5206559730
5206568214
5206574989
5206579871
5206585914
5206591102
5206597266
5206603248
5206609595
5206615455
5206622230
5206627601
5206633521
5206639441
5206644324
5206649268
5206655188
5206663550
5206668799
5206674903
5206681128
5206686866
5206692420
5206697913
5206703345
5206712134
5206717994
5206726477
5206731848
5206738990
5206745948
5206750830
5206757422
5206763770
5206770239
5206775366
5206781531
5206787634
5206793555
5206799475
5206803504
5206812048
5206816687
5206825537
5206830359
5206837744
5206842017
5206850806
5206854895
5206862830
5206869665
5206874914
5206880286
5206886511
5206891760
5206896033
5206902746
5206909277
5206916907
5206922095
5206929114
5206936255
5206942358
5206949316
5206955603
5206962378
5206969702
5206978674
5206986059
5206990637
5206998022
5207001684
5207007727
5207013708
5207020300
5207026525
5207031774
5207037390
5207042395
5207048376
5207054418
5207060156
5207065344
5207070715
5207078527
5207082861
5207090063
5207096105
5207100134
5207106664
5207112890
5207120825
5207125768
5207132604
5207138952
5207144689
5207150793
5207156957
5207163000
5207169958
5207176672
5207182348
5207188818
5207194250
5207200231
5207205541
5207211339
5207217992
5207223913
5207231054
5207236303
5207242162
5207249547
5207253515
5207260412
5207264928
5207273534
5207279882
5207284703
5207290807
5207295934
5207301976
5207309179
5207313634
5207321263
5207327550
5207332433
5207338536
5207344152
5207352025
5207358373
5207365392
5207372533
5207379796
5207387120
5207390660
5207398045
5207404088
5207408910
5207414220
5207420079
5207426244
5207432469
5207438145
5207444676
5207450047
5207456090
5207462193
5207469029
5207476109
5207484654
5207489415
5207496190
5207502843
5207509190
5207515538
5207520115
5207529393
5207535863
5207541417
5207546605
5207553441
5207559544
5207563328
5207571019
5207576451
