5208733552
5208739351
5208744600
5208750703
5208755342
5208761384
5208767305
5208772859
5208778474
5208784028
5208790193
5208796724
5208803559
5208810090
5208816987
5208823213
5208829133
5208837617
5208845552
5208853303
5208858003
5208864472
5208870576
5208876435
5208882905
5208887544
5208893769
5208900239
5208906342
5208912141
5208917695
5208924775
5208932465
5208937409
5208945100
5208952546
5208958771
5208966706
5208973725
5208981965
5208987092
5208994721
5209003327
5209010773
5209018220
5209024933
5209033173
5209039155
5209046418
5209053132
5209060151
5209066376
5209073517
5209081513
5209093415
5209100800
5209109894
5209115937
5209123444
5209130402
5209136627
5209144562
5209154450
5209161408
5209168610
5209175995
5209183685
5209190521
5209199494
5209207001
5209213898
5209222748
5209230560
5209237335
5209245880
5209253265
5209259735
5209269318
5209275421
5209283539
5209290008
5209298431
5209306732
5209314789
5209322784
5209329803
5209336090
5209342987
5209350433
5209359161
5209366974
5209375091
5209385284
5209393097
5209401275
5209412384
5209424774
5209433319
5209443389
5209453216
5209462127
5209470611
5209479217
5209487945
5209495635
5209503265
5209509856
5209517547
5209526031
5209531768
5209547454
5209553130
5209560699
5209566680
5209578094
5209586394
5209594817
5209601958
5209609710
5209620757
5209627410
5209636565
5209646697
5209652312
5209661712
5209667266
5209675383
5209682036
5209689605
5209697173
5209705474
5209712249
5209719268
5209726348
5209735381
5209745330
5209756438
5209764495
5209773406
5209781035
5209789763
5209796538
5209804900
5209812468
5209819304
5209826079
5209833403
5209840727
5209846770
5209855315
5209860930
5209868620
5209874296
5209882597
5209891325
5209898772
5209905302
5209913786
5209920317
5209925932
5209934416
5209942839
5209948332
5209955900
5209964811
5209973661
5209980925
5209988737
5209996855
5210004850
5210013273
5210019438
5210028044
5210034269
5210043363
5210051359
5210059294
5210066313
5210072233
5210082731
5210095182
5210105497
5210111356
5210122465
5210130888
5210139799
5210145536
5210153104
5210161893
5210169950
5210177518
5210185697
5210192106
5210200651
5210207731
5210217069
5210223234
5210230497
5210238920
5210245572
5210251920
5210258939
5210266690
5210274686
5210282132
5210289334
5210294950
5210303189
5210308988
5210315641
5210323880
5210332303
5210337430
5210345975
5210352933
5210361234
5210366422
5210374783
5210383145
5210389066
5210397122
5210403958
5210410855
5210416776
5210427213
5210439175
5210447720
5210454617
5210460110
5210467374
5210472562
5210481717
5210488064
5210495694
5210502041
5210511014
5210516995
5210524930
5210532864
5210540066
5210545804
5210553555
5210562039
5210566922
5210576321
5210584500
5210591519
5210600491
5210606778
5210616726
5210623806
5210631314
5210637905
5210646633
5210654202
5210662075
5210669949
5210675991
5210683682
5210689724
5210696743
5210702908
5210710354
5210716457
5210723537
5210729824
5210737698
5210744106
5210750027
5210757351
5210765163
5210772793
5210781154
5210789333
5210796596
5210804470
5210813503
5210822231
5210829982
5210839687
5210847988
5210856044
5210863308
5210869350
5210876369
5210884426
5210893337
5210900905
5210908962
5210916774
5210924831
5210931423
5210939540
5210947719
5210955898
5210963527
5210970729
5210977321
5210984096
5210992214
5211003383
5211011256
5211017543
5211023830
5211032008
5211038295
5211046413
5211056789
5211064235
5211074489
5211081447
5211087611
5211093532
5211097560
5211107326
5211114284
5211120753
5211126857
5211133021
5211138698
5211143519
5211151454
5211157557
5211163539
5211169886
5211176661
5211182399
5211188990
5211195338
5211200221
5211206507
5211213343
5211218104
5211224879
5211231715
5211238063
5211243067
5211250025
5211255030
5211261012
5211266017
5211271021
5211277247
5211284083
5211290186
5211295680
5211300562
5211306544
5211313075
5211318324
5211326502
5211331812
5211338221
5211343897
5211349146
5211355006
5211362147
5211368616
5211372523
5211378443
5211383997
5211390528
5211397059
5211402918
5211409510
5211416407
5211423426
5211428797
5211434839
5211439661
5211445154
5211452112
5211457727
5211463953
5211469751
5211473719
5211479578
5211485743
5211491602
5211497827
5211502466
5211508387
5211514856
5211518701
5211525171
5211531580
5211538111
5211544092
5211548853
5211555200
5211561060
5211565637
5211572839
5211579248
5211583643
5211588892
5211595606
5211601831
5211607080
5211612695
5211617517
5211623865
5211628809
5211635339
5211639551
5211645898
5211651819
5211659143
5211664392
5211668054
5211674097
5211680139
5211685815
5211690393
5211696802
5211702478
5211708093
5211712304
5211718652
5211724634
5211728784
5211737146
5211742944
5211748010
5211752221
5211758874
5211763086
5211769799
5211776208
5211781213
5211787500
5211793298
5211798425
5211803918
5211810327
5211815087
5211819909
5211826196
5211832421
5211836328
5211841821
5211847863
5211852319
5211859887
5211865014
5211871667
5211877038
5211882287
5211888024
5211893884
5211901208
5211906701
5211914452
5211921410
5211927087
5211934167
5211941491
5211946496
5211952660
5211957299
5211964440
5211969628
5211975182
5211980065
5211985985
5211992211
5211997277
5212003686
5212008019
5212014306
5212020653
5212027123
5212031518
5212037438
5212043480
5212047875
5212053673
5212059716
5212065758
5212072411
5212079247
5212083458
5212089562
5212095665
5212100792
5212108544
5212113426
5212120079
5212126061
5212131737
5212136315
5212141564
5212147484
5212154869
5212161888
5212166832
5212172447
5212177818
5212184166
5212189720
5212194969
5212201256
5212207481
5212212791
5212217674
5212225059
5212230125
5212236656
5212242882
5212246483
5212254600
5212258568
5212267967
5212272545
5212277977
5212284386
5212290062
5212294578
5212300865
5212306480
5212312523
5212319175
5212323082
5212329551
5212334129
5212341514
5212346031
5212351890
5212357689
5212362938
5212368675
5212376609
5212381248
5212387291
5212394432
5212399009
5212405723
5212412193
5212423362
5212430442
5212436668
5212441612
5212447349
5212455406
5212460899
5212467429
5212473106
5212477866
5212483726
5212489402
5212495384
5212500816
5212507163
5212511131
5212517478
5212523643
5212528159
5212534019
5212538962
5212545920
5212550437
5212556846
5212561790
5212568320
5212574668
5212580771
5212585715
5212590354
5212597129
5212601768
5212609031
5212616111
5212621055
5212627280
5212631553
5212637656
5212645224
5212653037
5212658713
5212663047
5212669761
5212674704
5212679953
5212686789
5212692221
5212698508
5212704184
5212708457
5212713828
5212718222
5212725363
5212731406
5212738364
5212743491
5212749533
5212753195
5212759177
5212766013
5212770651
5212776938
5212783591
5212788046
5212794028
5212799399
5212804404
5212809287
5212815695
5212820639
5212827231
5212831869
5212837546
5212843527
5212848105
5212854697
5212860739
5212866049
5212870260
5212876791
5212883139
5212889609
5212894552
5212903341
5212910422
5212918051
5212923910
5212930136
5212939169
5212945639
5212951254
5212957541
5212962118
5212968100
5212975424
5212981039
5212985678
5212992086
5212996847
5213002645
5213008444
5213013449
5213019857
5213024008
5213030477
5213035909
5213042074
5213047323
5213052084
5213058614
5213063436
5213071859
5213077108
5213081930
5213087850
5213095907
5213103048
5213109640
5213114828
5213121236
5213125997
5213131612
5213136251
5213143575
5213151571
5213158041
5213165609
5213172445
5213177938
5213184774
5213190694
5213196554
5213200826
5213208333
5213214742
5213220723
5213226583
5213231832
5213237142
5213242574
5213247518
5213253560
5213257955
5213263204
5213269551
5213274312
5213280538
5213285176
5213291890
5213298238
5213302632
5213308431
5213313497
5213319051
5213324178
5213329854
5213335652
5213341878
5213346883
5213350972
5213356893
5213362081
5213368489
5213373799
5213380635
5213385884
5213391133
5213397115
5213405904
5213413289
5213419575
5213427144
5213431355
5213439046
5213446614
5213452046
5213457844
5213464558
5213471211
5213477498
5213483967
5213490681
5213496480
5213502095
5213508931
5213514546
5213519795
5213524434
5213531758
5213536458
5213542195
5213547688
5213553730
5213559468
5213565266
5213570210
5213576680
5213582844
5213588703
5213593220
5213598835
5213603962
5213609761
5213614826
5213621357
5213626057
5213630635
5213636616
5213643025
5213649555
5213657429
5213662678
5213669636
5213672443
5213680134
5213685688
5213691120
5213698566
5213703632
5213710529
5213714863
5213720539
5213725544
5213731892
5213738544
5213743183
5213750141
5213754230
5213758991
5213764728
5213769855
5213775104
5213782245
5213787128
5213793720
5213797443
5213803852
5213808918
5213815021
5213819538
5213826069
5213831318
5213838276
5213842731
5213848774
5213854389
5213858356
5213864521
5213870258
5213875446
5213881366
5213887226
5213893207
5213899066
5213904010
5213911029
5213918231
5213924823
5213934223
5213940448
5213949481
5213955341
5213961627
5213967365
5213973102
5213977985
5213984271
5213990375
5213996906
5214002277
5214007953
5214014362
5214020160
5214026569
5214032916
5214038531
5214043658
5214049945
5214056048
5214061603
5214068133
5214074969
5214079669
5214085956
5214092364
5214097735
5214102191
5214109210
5214116107
5214121417
5214127093
5214133563
5214139605
5214145282
5214149188
5214155047
5214161578
5214166278
5214175372
5214183490
5214188861
5214194110
5214200335
5214207049
5214212725
5214219378
5214225237
5214229327
5214235430
5214239337
5214245501
5214252276
5214258196
5214265032
5214270403
5214275286
5214281268
5214286028
5214292254
5214296770
5214302447
5214308001
5214312151
5214318133
5214322527
5214329913
5214336321
5214341936
5214347369
5214352862
5214357134
5214363421
5214368670
5214375017
5214380572
5214385882
5214390764
5214396990
5214401629
5214407549
5214413775
5214417986
5214426043
5214431902
5214437822
5214443926
5214450029
5214457232
5214463945
5214469622
5214474321
5214481646
5214489214
5214495012
5214501055
5214508257
5214513262
5214520159
5214525957
5214530657
5214536089
5214542253
5214548906
5214554765
5214560869
5214566911
5214572282
5214576311
5214584184
5214589372
5214594743
5214598772
5214606645
5214611406
5214618059
5214622636
5214629472
5214635576
5214642168
5214647050
5214653154
5214657487
5214663591
5214668657
5214674882
5214682145
5214686723
5214693254
5214699601
5214705339
5214711625
5214717363
5214724138
5214730668
5214735734
5214741899
5214747026
5214753129
5214759172
5214763444
5214770829
5214777238
5214783036
5214789933
5214795487
5214800309
5214807206
5214811906
5214819047
5214823625
5214830155
5214836442
5214841325
5214846696
5214852921
5214859269
5214865739
5214871476
5214875626
5214882768
5214886918
5214893510
5214899247
5214906022
5214911332
5214918412
5214923051
5214930070
5214935441
5214941483
5214946488
5214952653
5214958634
5214964554
5214970780
5214975052
5214982804
5214987931
5214994584
5214999344
5215004776
5215010331
5215017716
5215024430
5215031632
5215040116
5215044754
5215054764
5215059647
5215066605
5215073136
5215078141
5215085221
5215091690
5215098038
5215103653
5215108841
5215113297
5215120011
5215125748
5215132401
5215137955
5215143448
5215149246
5215156204
5215161820
5215166641
5215171707
5215178360
5215186295
5215190689
5215197281
5215204605
5215210098
5215217117
5215223404
5215228287
5215235794
5215241348
5215247269
5215253372
5215257950
5215264969
5215270279
5215276993
5215282913
5215290237
5215295913
5215302261
5215307815
5215314163
5215319412
5215325210
5215331680
5215337478
5215344497
5215350174
5215355362
5215361892
5215367874
5215372818
5215378860
5215385147
5215390029
5215396560
5215402847
5215408279
5215414138
5215419082
5215427322
5215431716
5215439346
5215446670
5215452468
5215458328
5215464919
5215470290
5215476394
5215482253
5215488540
5215493545
5215500137
5215507034
5215511184
5215518447
5215523086
5215530471
5215536880
5215542678
5215548049
5215553359
5215559157
5215565505
5215573256
5215584548
5215590896
5215595473
5215603225
5215610000
5215615859
5215622695
5215628310
5215633925
5215639174
5215645827
5215650161
5215656813
5215661330
5215668227
5215674208
5215680922
5215686293
5215692519
5215697219
5215703810
5215710341
5215714614
5215721877
5215727492
5215732985
5215739699
5215745497
5215751784
5215758315
5215763869
5215770705
5215775343
5215781752
5215787428
5215793532
5215800002
5215804213
5215812758
5215817458
5215823988
5215828139
5215834669
5215840285
5215847487
5215853895
5215859877
5215865492
5215870985
5215877516
5215882887
5215890150
5215896437
5215901564
5215907423
5215912611
5215918959
5215923842
5215929335
5215935926
5215941175
5215947279
5215951490
5215957655
5215963209
5215969679
5215976454
5215982069
5215987379
5215993116
5215998854
5216005506
5216011244
5216017103
5216023573
5216028578
5216035230
5216040724
5216046949
5216051893
5216057874
5216064710
5216068922
5216076002
5216081556
5216087049
5216093214
5216097913
5216104749
5216110853
5216116529
5216123731
5216129224
5216135755
5216141920
5216148450
5216156263
5216160596
5216167371
5216172742
5216178846
5216183973
5216190198
5216196363
5216203138
5216208631
5216214307
5216220044
5216226331
5216231702
5216237622
5216243604
5216249585
5216255262
5216260450
5216267469
5216272534
5216279004
5216284192
5216290235
5216295117
5216301282
5216307385
5216313428
5216319470
5216326001
5216331372
5216336804
5216343396
5216347974
5216354566
5216359143
5216365857
5216371655
5216378125
5216383557
5216391492
5216397717
5216404187
5216410168
5216415295
5216422314
5216428601
5216433484
5216438367
5216444409
5216450574
5216456128
5216463269
5216468152
5216473340
5216479809
5216485119
5216490002
5216496716
5216501355
5216509228
5216514416
5216521130
5216526745
5216531567
5216537915
5216544079
5216550793
5216556836
5216562512
5216568615
5216573620
5216579174
5216585949
5216591137
5216597241
5216603893
5216607922
5216615063
5216620190
5216626476
5216631664
5216637707
5216644482
5216648449
5216655346
5216661083
5216666210
5216672070
5216682262
5216689220
5216695385
5216701244
5216708630
5216714062
5216721508
5216727001
5216732677
5216737133
5216744091
5216749889
5216755138
5216759716
5216768871
5216772838
5216779552
5216786144
5216791637
5216797374
5216803844
5216811412
5216815685
5216822399
5216828991
5216834667
5216838878
5216846569
5216852306
5216859386
5216864757
5216869518
5216876171
5216881114
5216887340
5216892345
5216901134
5216907115
5216912670
5216917797
5216924327
5216928905
5216936473
5216944042
5216949657
5216955394
5216961925
5216968395
5216972545
5216978526
5216985606
5216991283
5216996837
5217002086
5217007091
5217013805
5217019420
5217025706
5217031261
5217037730
5217043956
5217049754
5217055125
5217061290
5217066905
5217073497
5217079173
5217084971
5217091563
5217096385
5217102916
5217108836
5217115428
5217122752
5217127024
5217133555
5217140147
5217145518
5217151072
5217157298
5217163584
5217170054
5217175486
5217181407
5217186900
5217192088
5217198558
5217203929
5217210826
5217216075
5217222544
5217228221
5217235056
5217241282
5217247874
5217257578
5217263682
5217269480
5217276865
5217281992
5217288767
5217293650
5217300730
5217307139
5217312327
5217318857
5217323496
5217328867
5217335398
5217343943
5217348887
5217356394
5217361460
5217368479
5217373789
5217380808
5217386606
5217392832
5217396799
5217403025
5217409800
5217414377
5217421579
5217427744
5217433725
5217440134
5217445444
5217451731
5217457346
5217463022
5217468332
5217473337
5217479990
5217486032
5217491098
5217497080
5217504404
5217510507
5217516855
5217523081
5217528574
5217534921
5217540964
5217546701
5217553293
5217558664
5217564096
5217571542
5217576181
5217582956
5217588937
5217593698
5217599802
5217606027
5217610971
5217617258
5217623727
5217629465
5217634836
5217640329
5217646188
5217652475
5217657968
5217663766
5217669015
5217674631
5217681344
5217686166
5217693185
5217699716
5217704416
5217709481
5217715646
5217722421
5217728097
5217732248
5217738900
5217746102
5217751779
5217756539
5217762887
5217768136
5217773202
5217779489
5217797189
5217804391
5217812203
5217819528
5217826974
5217834847
5217841195
5217846566
5217851449
5217857308
5217862679
5217869027
5217874703
5217879952
5217886117
5217891488
5217897897
5217903756
5217910592
5217916512
5217922616
5217928780
5217934579
5217940926
5217945809
5217950997
5217957406
5217964486
5217969918
5217974618
5217980965
5217985787
5217991280
5217997689
5218003304
5218009041
5218015694
5218020699
5218027596
5218032296
5218039009
5218044197
5218052315
5218057930
5218064522
5218070931
5218076363
5218081795
5218087593
5218092964
5218097298
5218105232
5218111946
5218117439
5218122200
5218129097
5218136910
5218143318
5218148628
5218154182
5218160103
5218165962
5218171455
5218176888
5218184029
5218189705
5218195442
5218201363
5218208015
5218212410
5218218880
5218223946
5218230110
5218234566
5218241402
5218247444
5218253975
5218259163
5218265327
5218273628
5218279915
5218285286
5218291328
5218296333
5218302070
5218306892
5218314827
5218320625
5218327461
5218333809
5218339241
5218343879
5218350532
5218357368
5218362312
5218368843
5218376228
5218383369
5218388923
5218394294
5218398506
5218406257
5218412116
5218418647
5218425605
5218430976
5218435493
5218442085
5218447089
5218454231
5218460578
5218465583
5218471076
5218477180
5218482124
5218489753
5218495185
5218501228
5218506721
5218513007
5218518745
5218524726
5218530036
5218535712
5218542426
5218547248
5218553535
5218558295
5218564948
5218571662
5218577216
5218582892
5218588813
5218594855
5218600837
5218606696
5218613044
5218619819
5218624945
5218632148
5218637458
5218643622
5218648810
5218654914
5218660041
5218666205
5218672309
5218676520
5218682990
5218688605
5218694098
5218700324
5218706122
5218713324
5218718756
5218725165
5218731696
5218737128
5218741827
5218748724
5218754157
5218760504
5218766303
5218771307
5218777655
5218783148
5218789008
5218794867
5218801581
5218806769
5218811957
5218818548
5218823187
5218829962
5218836004
5218842657
5218849981
5218855292
5218860602
5218867010
5218873175
5218878668
5218884527
5218892523
5218897406
5218904669
5218911078
5218916571
5218921209
5218928961
5218934881
5218940985
5218947332
5218954229
5218960211
5218964971
5218971319
5218976629
5218983648
5218989263
5218994573
5219000311
5219006658
5219013189
5219018682
5219025152
5219030401
5219035589
5219040960
5219047491
5219052862
5219060064
5219065374
5219072271
5219078374
5219083562
5219089849
5219095220
5219100652
5219106145
5219112371
5219117925
5219124273
5219130010
5219136419
5219141912
5219147588
5219152776
5219159917
5219168401
5219173955
5219180303
5219185857
5219191533
5219198064
5219202947
5219209722
5219216069
5219221441
5219226934
5219233892
5219238897
5219245000
5219250249
5219256353
5219262517
5219268621
5219274297
5219280950
5219286260
5219292546
5219298100
5219303288
5219310307
5219315068
5219321660
5219327519
5219332341
5219339665
5219345281
5219350835
5219355534
5219361943
5219368108
5219373662
5219379460
5219386540
5219391484
5219397954
5219403935
5219410039
5219415166
5219421513
5219426762
5219432072
5219439274
5219445012
5219451726
5219456669
5219462773
5219472477
5219479130
5219486271
5219491215
5219499150
5219503849
5219510441
5219517949
5219524662
5219530400
5219536137
5219541752
5219547612
5219553166
5219558476
5219565251
5219570561
5219576847
5219581852
5219588017
5219592961
5219600529
5219606754
5219612614
5219617802
5219623356
5219628544
5219634159
5219640751
5219646977
5219653080
5219658024
5219664249
5219669376
5219675602
5219682438
5219687870
5219693973
5219699772
5219706364
5219710819
5219719913
5219727299
5219733646
5219740299
5219745121
5219752933
5219758671
5219763920
5219770878
5219777042
5219781742
5219789127
5219794132
5219799686
5219806766
5219812687
5219817997
5219823307
5219829837
5219834659
5219841190
5219846988
5219853031
5219859439
5219865665
5219871158
5219877323
5219882816
5219888187
5219894290
5219899051
5219904971
5219913028
5219916995
5219924075
5219929508
5219934207
5219940555
5219945133
5219952579
5219956851
5219964359
5219968509
5219974429
5219980167
5219985049
5219991153
5219998660
5220004275
5220010928
5220016604
5220026126
5220034366
5220040713
5220047366
5220052371
5220059146
5220066531
5220072513
5220078067
5220083560
5220089969
5220095584
5220102542
5220108218
5220112918
5220119326
5220125369
5220130984
5220136721
5220141970
5220147769
5220153933
5220160708
5220166690
5220172549
5220178225
5220183169
5220188845
5220193789
5220200991
5220207156
5220213687
5220217837
5220224978
5220228823
5220235781
5220241579
5220249026
5220255373
5220261111
5220268313
5220273684
5220280520
5220287966
5220291994
5220298159
5220303896
5220309756
5220315066
5220321352
5220327456
5220333315
5220338320
5220343874
5220349123
5220354372
5220361269
5220366701
5220373293
5220379641
5220385317
5220390871
5220395998
5220400942
5220406557
5220413393
5220418764
5220424929
5220429750
5220436708
5220442324
5220446169
5220454653
5220460024
5220466188
5220471987
5220477724
5220482668
5220488405
5220495668
5220501222
5220505922
5220513002
5220519167
5220525148
5220530763
5220538820
5220550844
5220556886
5220563600
5220570558
5220577821
5220582704
5220588502
5220595155
5220601930
5220607851
5220613161
5220619142
5220625734
5220630739
5220637086
5220643007
5220650148
5220655702
5220662721
5220669252
5220676210
5220683351
5220688600
5220695497
5220701539
5220708070
5220713319
5220719117
5220724549
5220730775
5220735719
5220741456
5220747804
5220754090
5220760499
5220765992
5220771913
5220779176
5220784669
5220791261
5220798951
5220806031
5220812440
5220820008
5220826417
5220831849
5220838014
5220844605
5220849549
5220855225
5220860352
5220866090
5220872010
5220876282
5220883912
5220889344
5220894654
5220900269
5220906556
5220911988
5220917603
5220923279
5220929383
5220934937
5220941773
5220947205
5220954346
5220959717
5220964722
5220971802
5220977356
5220983704
5220988831
5220995057
5220999085
5221006165
5221012329
5221018799
5221024475
5221029358
5221034668
5221040161
5221045166
5221052674
5221059693
5221066284
5221070313
5221078858
5221085877
5221091065
5221100220
5221105835
5221112488
5221118286
5221123596
5221128479
5221132446
5221139160
5221145386
5221150269
5221155334
5221160339
5221164917
5221171326
5221176697
5221183472
5221188476
5221194885
5221200134
5221205200
5221210144
5221215881
5221220520
5221226562
5221233337
5221238037
5221243652
5221249267
5221254394
5221260132
5221266052
5221272094
5221277954
5221283752
5221289306
5221294922
5221301086
5221308349
5221318481
5221325561
5221329528
5221336486
5221340942
5221347534
5221353698
5221359924
5221366882
5221372131
5221377929
5221383361
5221390197
5221394958
5221401061
5221405944
5221412963
5221418212
5221424560
5221430541
5221434631
5221441894
5221446532
5221451415
5221456664
5221464050
5221470397
5221475463
5221481017
5221487609
5221493102
5221499511
5221503905
5221509765
5221515441
5221522277
5221528747
5221532714
5221539672
5221544372
5221551452
5221557189
5221562255
5221568114
5221573913
5221578795
5221584838
5221593566
5221599669
5221607482
5221613768
5221620604
5221625548
5221637084
5221640929
5221647338
5221653929
5221659667
5221664733
5221670653
5221676634
5221681700
5221687865
5221695433
5221699828
5221706603
5221713011
5221718138
5221722838
5221729613
5221734923
5221741759
5221746092
5221752013
5221759581
5221764037
5221770506
5221777464
5221783446
5221788145
5221794737
5221799620
5221806029
5221811095
5221817137
5221822813
5221828489
5221833555
5221838011
5221845152
5221853026
5221858153
5221865233
5221871153
5221876036
5221881651
5221887388
5221893065
5221899412
5221905027
5221910337
5221915403
5221920408
5221926329
5221931639
5221937010
5221943663
5221948362
5221953184
5221959898
5221965452
5221970823
5221976438
5221982786
5221987852
5221993833
5221999754
5222005857
5222011656
5222017088
5222022215
5222029051
5222034116
5222040952
5222045286
5222051328
5222057615
5222062376
5222069700
5222075803
5222080808
5222086423
5222093015
5222098081
5222104612
5222111326
5222118955
5222125120
5222130857
5222137815
5222144468
5222151792
5222159787
5222166745
5222172056
5222178525
5222183652
5222190854
5222197568
5222203916
5222210447
5222217588
5222223569
5222229001
5222235166
5222241330
5222248105
5222254087
5222260617
5222265988
5222272275
5222278562
5222284970
5222291379
5222296811
5222302976
5222308408
5222314816
5222321408
5222327206
5222333615
5222344540
5222353024
5222358090
5222365353
5222374326
5222380429
5222385495
5222391537
5222398495
5222405026
5222411069
5222416318
5222421383
5222427487
5222432675
5222439389
5222446530
5222452206
5222456967
5222462338
5222468686
5222473752
5222479367
5222486569
5222491085
5222498166
5222503964
5222512448
5222517269
5222522885
5222530392
5222534664
5222542111
5222546810
5222552914
5222557247
5222563595
5222569821
5222575924
5222582577
5222587399
5222592220
5222597469
5222603878
5222609615
5222615658
5222621639
5222626766
5222634457
5222639584
5222645748
5222652523
5222659786
5222665951
5222673458
5222681209
5222688717
5222695309
5222701229
5222706661
5222715511
5222719906
5222725460
5222731136
5222736751
5222742794
5222747127
5222752987
5222759212
5222764278
5222769405
5222777034
5222783260
5222788143
5222793941
5222798763
5222804927
5222809749
5222815548
5222822994
5222829280
5222834590
5222840328
5222845088
5222850032
5222856075
5222860530
5222868465
5222872798
5222878597
5222884090
5222892513
5222899104
5222904964
5222911128
5222917659
5222921993
5222928035
5222931941
5222938045
5222943965
5222949886
5222954097
5222960017
5222966548
5222971858
5222976680
5222982173
5222988704
5222992915
5222998958
5223003474
5223009578
5223014583
5223020503
5223026668
5223032161
5223038814
5223043391
5223049983
5223055659
5223060359
5223064998
5223071895
5223077754
5223083430
5223088435
5223094600
5223098689
5223104731
5223111933
5223116145
5223124263
5223129328
5223134150
5223139521
5223145503
5223149836
5223157160
5223168086
5223174433
5223180659
5223187251
5223199030
5223203425
5223209467
5223214838
5223221430
5223227961
5223232600
5223238215
5223243769
5223248957
5223255366
5223260249
5223265131
5223270197
5223275202
5223282404
5223288264
5223293452
5223299250
5223305353
5223310297
5223314265
5223320002
5223326716
5223333063
5223337763
5223344416
5223350824
5223355646
5223360712
5223367792
5223372858
5223378412
5223384394
5223391169
5223396540
5223403498
5223409113
5223414789
5223420832
5223425104
5223432978
5223437250
5223443537
5223447748
5223453852
5223458673
5223464655
5223469538
5223474787
5223480890
5223487787
5223491876
5223498834
5223504450
5223509760
5223514703
5223518671
5223524225
5223530573
5223535883
5223541803
5223547601
5223552606
5223558588
5223565179
5223571527
5223576593
5223581110
5223585870
5223591730
5223595819
5223601617
5223606378
5223612726
5223618280
5223622308
5223628351
5223634088
5223639276
5223644586
5223650140
5223656122
5223661065
5223665948
5223671014
5223675897
5223682733
5223690423
5223695306
5223703851
5223709893
5223716241
5223721856
5223729608
5223735833
5223739984
5223746209
5223754083
5223760125
5223765374
5223769341
5223776544
5223780816
5223787774
5223792718
5223799798
5223804864
5223811028
5223815911
5223820489
5223825616
5223831963
5223837762
5223843072
5223848138
5223852288
5223859307
5223871514
5223878777
5223884515
5223889641
5223894158
5223900445
5223906304
5223912896
5223918755
5223923455
5223931511
5223936638
5223943841
5223950676
5223956841
5223962883
5223967217
5223973504
5223977471
5223982537
5223989373
5223996209
5223999871
5224006096
5224011345
5224016045
5224022332
5224027031
5224036431
5224042290
5224048393
5224052544
5224058830
5224064873
5224072014
5224078972
5224083550
5224090202
5224096611
5224101677
5224106011
5224110954
5224116631
5224121758
5224126518
5224132927
5224137383
5224143303
5224148247
5224153191
5224158684
5224165459
5224170463
5224176689
5224182060
5224186149
5224193046
5224198418
5224207512
5224213737
5224217766
5224226005
5224234672
5224241874
5224250663
5224257560
5224263542
5224268974
5224274223
5224278434
5224286796
5224292350
5224298210
5224302665
5224309257
5224313835
5224320793
5224325431
5224331169
5224335868
5224341850
5224347404
5224353630
5224359611
5224364677
5224371757
5224376274
5224381339
5224387016
5224392265
5224396842
5224403617
5224408988
5224413993
5224419669
5224426261
5224431876
5224438224
5224444450
5224448783
5224454581
5224463554
5224469230
5224476371
5224481620
5224487479
5224494132
5224499564
5224506156
5224510551
5224516532
5224521171
5224526359
5224532706
5224537528
5224544303
5224550284
5224554984
5224562186
5224566459
5224571769
5224578055
5224584708
5224588675
5224595084
5224600699
5224605399
5224610282
5224616263
5224619925
5224625968
5224631766
5224638480
5224643973
5224648306
5224654288
5224660513
5224667288
5224673148
5224678519
5224684012
5224690543
5224695059
5224702261
5224708487
5224713370
5224720206
5224726920
5224734610
5224742056
5224748587
5224754446
5224759756
5224771841
5224778189
5224784537
5224789908
5224795218
5224800955
5224805655
5224811209
5224816397
5224821951
5224828848
5224834402
5224838492
5224846060
5224851431
5224857351
5224863455
5224869497
5224874746
5224881033
5224885977
5224892324
5224897818
5224902334
5224907400
5224914602
5224920645
5224927114
5224932852
5224936819
5224942373
5224947988
5224953176
5224959158
5224965566
5224969412
5224975637
5224980764
5224986562
5224995168
5225000601
5225006277
5225010854
5225017141
5225022146
5225028616
5225034597
5225040639
5225045644
5225050405
5225055532
5225060903
5225066030
5225071279
5225078786
5225084218
5225091237
5225097097
5225102590
5225107839
5225114492
5225119130
5225125844
5225131460
5225135488
5225141164
5225145253
5225151540
5225155690
5225161428
5225167714
5225173330
5225179677
5225185109
5225190053
5225197011
5225202138
5225206716
5225212026
5225218068
5225222829
5225229299
5225235646
5225240346
5225246816
5225254262
5225261708
5225268178
5225273183
5225279469
5225285939
5225292104
5225298634
5225305287
5225312123
5225318593
5225323537
5225328725
5225334523
5225341542
5225346120
5225352467
5225357838
5225362416
5225369679
5225374440
5225381032
5225387318
5225391347
5225397023
5225403065
5225408314
5225413991
5225419850
5225425221
5225431813
5225437245
5225441823
5225447133
5225452931
5225456898
5225463246
5225469044
5225474354
5225479237
5225484059
5225490956
5225497303
5225502919
5225508351
5225513478
5225518910
5225528248
5225534596
5225541004
5225546620
5225552479
5225557545
5225563831
5225569691
5225575855
5225581654
5225586292
5225591908
5225598438
5225604298
5225608570
5225614307
5225618763
5225625233
5225631580
5225638355
5225643726
5225648365
5225653248
5225659351
5225664478
5225670093
5225675281
5225680958
5225687183
5225693043
5225698475
5225704212
5225710804
5225715259
5225721790
5225726490
5225732288
5225738086
5225743519
5225748768
5225754627
5225760181
5225766834
5225771839
5225777454
5225784290
5225789417
5225797718
5225805103
5225812793
5225820423
5225828784
5225840442
5225849536
5225856616
5225863086
5225868762
5225873035
5225880542
5225885425
5225892322
5225897571
5225903552
5225909839
5225914844
5225919971
5225926135
5225932483
5225939014
5225945605
5225952380
5225958362
5225963916
5225971912
5225979053
5225986011
5225991321
5225997180
5226002673
5226008899
5226015979
5226019885
5226026477
5226033069
5226037951
5226043139
5226049731
5226055468
5226061999
5226067187
5226073779
5226080798
5226085620
5226090930
5226096484
5226103015
5226108569
5226113879
5226118823
5226125781
5226132006
5226137316
5226144030
5226148913
5226154162
5226160204
5226164599
5226172167
5226177660
5226181872
5226188586
5226194994
5226202136
5226207751
5226214159
5226220812
5226225939
5226233446
5226238634
5226244433
5226251025
5226256640
5226262743
5226268664
5226274279
5226280138
5226284411
5226290514
5226296557
5226301867
5226307787
5226313585
5226319201
5226326281
5226331469
5226338183
5226343676
5226348497
5226356371
5226361986
5226367968
5226374681
5226381151
5226387987
5226395311
5226402697
5226408373
5226414354
5226419603
5226424486
5226431383
5226437486
5226443712
5226448656
5226454820
5226459276
5226465868
5226473009
5226477648
5226484422
5226491014
5226496874
5226503099
5226508470
5226513414
5226520006
5226524583
5226531114
5226533800
5226542833
5226548692
5226555284
5226560350
5226566576
5226572069
5226578172
5226582811
5226589525
5226595628
5226601488
5226606614
5226612474
5226618089
5226624498
5226630418
5226637193
5226642442
5226647569
5226655137
5226661668
5226666002
5226672593
5226678636
5226684068
5226689256
5226698716
5226708482
5226714768
5226722337
5226729905
5226735093
5226743943
5226751145
5226759324
5226767869
5226777696
5226787644
5226795213
5226803635
5226811387
5226820298
5226828965
5226837754
5226848130
5226855271
5226865159
5226876206
5226885728
5226893845
5226901536
5226909775
5226920395
5226930710
5226939133
5226947800
5226955674
5226963547
5226971543
5226979294
5226988205
5226995957
5227005295
5227013108
5227020798
5227029892
5227035935
5227051071
5227059250
5227069138
5227075729
5227082810
5227090256
5227098618
5227107163
5227115280
5227123886
5227131515
5227138168
5227145126
5227153488
5227159286
5227167709
5227174057
5227182724
5227189743
5227197433
5227205917
5227211166
5227220138
5227227218
5227235641
5227242172
5227250168
5227256454
5227264694
5227271530
5227280075
5227288925
5227294723
5227303634
5227311874
5227318832
5227330551
5227339767
5227347091
5227354720
5227361678
5227368636
5227379318
5227389266
5227396163
5227406661
5227412093
5227419845
5227427413
5227434249
5227440841
5227448043
5227457198
5227472457
5227491622
5227511641
5227530929
5227552718
5227571761
5227591353
5227609481
5227629744
5227649397
5227661665
5227672225
5227681685
5227696455
5227712019
5227724287
5227738081
5227752425
5227763228
5227771895
5227780928
5227788923
5227795515
5227804121
5227810957
5227820479
5227833723
5227840803
5227850813
5227861250
5227869429
5227879805
5227888411
5227896467
5227903669
5227916242
5227927839
5227937788
5227945234
5227954817
5227962080
5227970319
5227977827
5227984480
5227992902
5227999616
5228009565
5228015058
5228024213
5228029890
5228039045
5228047651
5228055402
5228064130
5228072004
5228080121
5228087324
5228093915
5228102765
5228111493
5228117841
5228125531
5228130658
5228135419
5228140119
5228143903
5228148664
5228152509
5228158063
5228163312
5228167829
5228173078
5228179303
5228183515
5228187665
5228191938
5228197065
5228202558
5228205976
5228211347
5228215192
5228220807
5228224164
5228229413
5228234601
5228239179
5228244916
5228248822
5228253888
5228257794
5228261701
5228267133
5228273297
5228278546
5228282391
5228288068
5228292462
5228298077
5228302655
5228308270
5228311383
5228316266
5228320966
5228325299
5228329755
5228333112
5228337384
5228342389
5228347150
5228350506
5228355145
5228359540
5228364361
5228368085
5228373334
5228379864
5228384442
5228388226
5228393414
5228396954
5228402997
5228408185
5228414654
5228419476
5228425763
5228431500
5228436566
5228440899
5228446637
5228451336
5228458783
5228463238
5228467389
5228470806
5228476483
5228480328
5228485882
5228490948
5228495953
5228501263
5228505902
5228512310
5228518475
5228522259
5228527874
5228531597
5228535809
5228541302
5228545086
5228550457
5228554302
5228560345
5228564556
5228569988
5228574688
5228578960
5228584332
5228590130
5228595074
5228599651
5228604351
5228609600
5228614056
5228618206
5228622967
5228627300
5228632305
5228637798
5228642376
5228648785
5228653728
5228658184
5228666302
5228671795
5228677105
5228681743
5228686321
5228691448
5228696575
5228702129
5228707866
5228713299
5228717205
5228722210
5228726177
5228731670
5228738018
5228741863
5228748027
5228753032
5228758892
5228763774
5228768596
5228774395
5228779399
5228785503
5228790081
5228795757
5228800701
5228805644
5228811077
5228816753
5228822185
5228826824
5228831340
5228838176
5228842754
5228849162
5228853435
5228859844
5228864604
5228869914
5228874980
5228881328
5228887737
5228893718
5228896526
5228903484
5228908488
5228915080
5228919475
5228924174
5228931193
5228935771
5228940837
5228947673
5228953471
5228958598
5228964091
5228970073
5228976787
5228984416
5228990825
5228994670
5229003459
5229008464
5229015544
5229019816
5229025065
5229030681
5229038066
5229044658
5229049479
5229055766
5229062358
5229067057
5229073039
5229080607
5229090007
5229093119
5229100871
5229107157
5229113078
5229118327
5229124858
5229129557
5229137492
5229143717
5229147318
5229154337
5229160319
5229166117
5229171671
5229178385
5229183512
5229191508
5229196940
5229202006
5229209635
5229214457
5229219950
5229225687
5229232706
5229238322
5229243998
5229250468
5229257242
5229261820
5229265970
5229273051
5229277140
5229282633
5229287455
5229292887
5229297037
5229303080
5229307596
5229314859
5229319437
5229325358
5229331156
5229336100
5229340128
5229344767
5229350992
5229356119
5229360941
5229366068
5229372293
5229376505
5229381266
5229386393
5229392069
5229396952
5229403971
5229410257
5229415933
5229420694
5229427103
5229432047
5229438455
5229442606
5229449442
5229455545
5229460489
5229464884
5229471658
5229477335
5229482401
5229487222
5229492654
5229500162
5229505167
5229510660
5229516153
5229521219
5229526651
5229531900
5229538309
5229546487
5229552530
5229559183
5229563699
5229570657
5229576517
5229584817
5229590860
5229595376
5229601175
5229605691
5229613199
5229618936
5229623575
5229628396
5229632974
5229638955
5229643472
5229648416
5229653970
5229658548
5229663552
5229667520
5229673135
5229679544
5229683755
5229689309
5229694924
5229699624
5229705422
5229710244
5229716043
5229721292
5229729104
5229733804
5229739602
5229743569
5229749734
5229755654
5229760232
5229765481
5229772073
5229775796
5229782693
5229787881
5229792886
5229798623
5229803811
5229808450
5229816689
5229825112
5229830056
5229832925
5229840432
5229847024
5229852700
5229857155
5229862954
5229868386
5229874001
5229879067
5229884316
5229889748
5229894692
5229900124
5229906472
5229910500
5229918252
5229923684
5229928811
5229934731
5229939248
5229944863
5229950478
5229954506
5229959511
5229966530
5229973549
5229978615
5229983620
5229988381
5229994057
5230000405
5230005898
5230009316
5230016945
5230021828
5230026406
5230033119
5230039040
5230043678
5230049721
5230054909
5230063088
5230067848
5230073097
5230079750
5230084633
5230089699
5230095070
5230100746
5230106667
5230112526
5230117653
5230124794
5230131264
5230137672
5230142921
5230148903
5230154579
5230162269
5230168434
5230176552
5230181740
5230186622
5230192909
5230196937
5230204017
5230209999
5230216774
5230221656
5230226905
5230231056
5230238014
5230242897
5230249000
5230254554
5230260780
5230265480
5230270973
5230275611
5230281532
5230286232
5230290443
5230298011
5230304786
5230311317
5230315528
5230322303
5230326454
5230333351
5230338233
5230343055
5230347999
5230355262
5230359596
5230365577
5230371009
5230376380
5230381751
5230386939
5230392371
5230399879
5230404639
5230410865
5230416663
5230423377
5230429114
5230433570
5230439368
5230444251
5230451575
5230456336
5230461341
5230466407
5230472327
5230476844
5230482337
5230489661
5230495521
5230501258
5230506690
5230512122
5230517798
5230522193
5230526465
5230534034
5230538733
5230545874
5230550330
5230556678
5230560950
5230566626
5230572547
5230577979
5230583777
5230589698
5230594763
5230600684
5230605872
5230611975
5230616248
5230622412
5230627844
5230635169
5230641821
5230646155
5230652564
5230656775
5230662390
5230667456
5230674719
5230680640
5230686316
5230691443
5230696326
5230701025
5230706885
5230712988
5230718726
5230725806
5230732703
5230737646
5230744055
5230749548
5230756140
5230763647
5230768652
5230774695
5230782141
5230788183
5230792578
5230797033
5230803564
5230809301
5230814306
5230819799
5230826757
5230832373
5230838476
5230843786
5230848608
5230853979
5230860022
5230865576
5230871679
5230877417
5230882482
5230888525
5230893408
5230899023
5230903356
5230910192
5230914770
5230923559
5230928564
5230932958
5230938574
5230944250
5230949255
5230954199
5230961523
5230967809
5230975561
5230979711
5230985204
5230991308
5230996069
5231002355
5231006445
5231015234
5231020483
5231026281
5231032567
5231037511
5231043676
5231049779
5231056798
5231062475
5231069066
5231075353
5231081884
5231087621
5231091100
5231099584
5231103795
5231110326
5231115697
5231122472
5231126989
5231133092
5231136876
5231141759
5231147680
5231152074
5231158788
5231164464
5231170873
5231176427
5231181554
5231187108
5231192235
5231197118
5231204747
5231210912
5231216405
5231222203
5231228124
5231233556
5231238744
5231243627
5231249608
5231256566
5231263280
5231266332
5231275304
5231281163
5231285497
5231289952
5231296178
5231301732
5231309056
5231314610
5231323888
5231328038
5231337193
5231342808
5231350377
5231359166
5231365819
5231374425
5231381444
5231387852
5231392857
5231399266
5231404027
5231409520
5231415745
5231420018
5231427098
5231430943
5231437413
5231443028
5231449253
5231454686
5231460911
5231464939
5231470555
5231475498
5231481358
5231487034
5231493321
5231500035
5231505711
5231510349
5231517307
5231522434
5231528904
5231533177
5231538120
5231544041
5231548863
5231556065
5231561314
5231565525
5231570652
5231575535
5231580967
5231586765
5231595066
5231600132
5231605808
5231612766
5231620151
5231626560
5231629551
5231637363
5231643589
5231649204
5231654087
5231659397
5231664097
5231669956
5231674228
5231678867
5231686496
5231693149
5231698398
5231702610
5231708164
5231713413
5231718540
5231721714
5231729343
5231737766
5231743381
5231747593
5231752780
5231755893
5231764011
5231768589
5231773777
5231779148
5231785984
5231791965
5231799228
5231803928
5231809055
5231814121
5231819248
5231824497
5231830234
5231835361
5231839633
5231845493
5231851535
5231856418
5231862827
5231868320
5231872409
5231879733
5231884128
5231889194
5231894565
5231900241
5231905185
5231911410
5231920810
5231944247
5231952121
5231957919
5231962680
5231967929
5231972690
5231979464
5231984469
5231989596
5231995212
5232000766
5232005038
5232009677
5232014743
5232018954
5232023593
5232028048
5232033603
5232039462
5232044406
5232050204
5232053805
5232060092
5232065707
5232071200
5232075350
5232081454
5232087557
5232092623
5232097811
5232104952
5232108492
5232115512
5232119967
5232125887
5232129305
5232136324
5232142428
5232147982
5232153841
5232159335
5232166232
5232171297
5232176424
5232182589
5232187106
5232193026
5232197848
5232203036
5232208529
5232212557
5232216708
5232223055
5232228182
5232233004
5232240267
5232245211
5232251314
5232258028
5232264315
5232268648
5232274386
5232279818
5232286532
5232291964
5232298861
5232305208
5232310824
5232315401
5232321932
5232328524
5232333345
5232339388
5232345064
5232351473
5232357332
5232363314
5232369417
5232374056
5232378511
5232386263
5232390474
5232397554
5232401766
5232408846
5232414400
5232419710
5232423006
5232429231
5232435335
5232441011
5232444612
5232452181
5232458406
5232462190
5232468660
5232477083
5232482820
5232487154
5232494417
5232499055
5232506197
5232515840
5232523347
5232529146
5232533296
5232538484
5232544038
5232550081
5232556062
5232562166
5232568086
5232572420
5232576936
5232584016
5232589387
5232595002
5232600068
5232605195
5232613008
5232618135
5232623201
5232626863
5232633393
5232640779
5232647126
5232653962
5232658540
5232663118
5232669953
5232675569
5232681916
5232686860
5232691438
5232699311
5232704988
5232710237
5232715119
5232721955
5232727082
5232732697
5232737824
5232743440
5232749360
5232754426
5232760163
5232767976
5232772675
5232777741
5232783662
5232789338
5232796784
5232801911
5232807038
5232812165
5232818940
5232824799
5232829133
5232834870
5232841584
5232846284
5232851777
5232856843
5232862458
5232870148
5232875580
5232882416
5232886689
5232891877
5232898652
5232904755
5232909943
5232916352
5232923127
5232931122
5232936249
5232943695
5232949921
5232956391
5232961273
5232967560
5232973175
5232978913
5232985687
5232991120
5232994721
5233001801
5233006256
5233013458
5233017914
5233025238
5233031891
5233038117
5233043244
5233049957
5233054230
5233058685
5233064606
5233069733
5233076508
5233082855
5233087799
5233095489
5233100555
5233106415
5233112884
5233117584
5233123810
5233131927
5233138702
5233144867
5233150726
5233155914
5233161224
5233168365
5233172699
5233178802
5233185089
5233189544
5233194366
5233200226
5233206512
5233213104
5233219207
5233224884
5233232940
5233238189
5233243438
5233248992
5233254303
5233260406
5233263580
5233270843
5233277923
5233282562
5233287994
5233293548
5233297576
5233303619
5233308135
5233313751
5233318572
5233326019
5233330230
5233335967
5233340667
5233344695
5233351226
5233355438
5233363738
5233371062
5233377532
5233382659
5233388274
5233393890
5233398406
5233404876
5233409454
5233414519
5233420623
5233426787
5233431731
5233437957
5233443084
5233448821
5233454925
5233461028
5233466643
5233471404
5233477996
5233482146
5233487395
5233490386
5233497893
5233502471
5233507903
5233512603
5233519011
5233523833
5233531035
5233536406
5233542205
5233549834
5233555510
5233558745
5233567595
5233573210
5233579131
5233582244
5233589873
5233595915
5233602873
5233607573
5233612456
5233617766
5233625151
5233631987
5233636992
5233643401
5233649565
5233655730
5233662016
5233668120
5233673735
5233680510
5233687590
5233695830
5233701628
5233709013
5233715605
5233720793
5233728422
5233734099
5233741728
5233747771
5233751677
5233758696
5233764921
5233769255
5233774809
5233781523
5233790068
5233796171
5233801542
5233806852
5233812101
5233816435
5233822538
5233829252
5233836454
5233840544
5233847502
5233851652
5233858488
5233864408
5233870634
5233878202
5233884794
5233890165
5233898283
5233904508
5233909757
5233915861
5233923002
5233928556
5233934416
5233939848
5233946745
5233958341
5233964506
5233969877
5233976041
5233983976
5233990263
5233995878
5234002286
5234007963
5234012968
5234019010
5234027311
5234033292
5234038602
5234044767
5234049955
5234056119
5234060880
5234068143
5234074186
5234081754
5234086576
5234094205
5234099088
5234105863
5234112272
5234116971
5234123197
5234131803
5234136136
5234141324
5234148221
5234153897
5234159391
5234166349
5234172086
5234177701
5234184842
5234188931
5234196317
5234201688
5234207120
5234212430
5234218717
5234228116
5234234280
5234240628
5234246243
5234252530
5234258084
5234263272
5234269254
5234277310
5234287015
5234293179
5234299710
5234305325
5234311612
5234318326
5234325772
5234331387
5234338956
5234343899
5234349393
5234354214
5234359952
5234366482
5234370877
5234378384
5234384121
5234386990
5234394375
5234398892
5234405728
5234411465
5234416897
5234424038
5234429592
5234435208
5234440945
5234446316
5234452542
5234457424
5234464138
5234470059
5234477383
5234484097
5234488735
5234495388
5234501370
5234506497
5234512417
5234517361
5234525662
5234530056
5234537319
5234542324
5234547817
5234554653
5234560207
5234566921
5234575039
5234581753
5234587490
5234594143
5234599819
5234605068
5234610378
5234615627
5234623012
5234628200
5234633816
5234639126
5234644253
5234649746
5234655178
5234662197
5234668606
5234674526
5234679104
5234685817
5234690517
5234697475
5234702419
5234708095
5234713588
5234720180
5234726284
5234731899
5234736171
5234743618
5234749721
5234755580
5234761257
5234767971
5234773647
5234779994
5234784755
5234791713
5234796474
5234801845
5234810451
5234815700
5234821132
5234828517
5234835719
5234839931
5234844753
5234851833
5234860378
5234866298
5234871852
5234877956
5234886378
5234893336
5234898158
5234904323
5234915736
5234923488
5234929347
5234935023
5234942164
5234947291
5234953517
5234959071
5234963954
5234971400
5234977015
5234981898
5234986781
5234992518
5234998561
5235004176
5235010707
5235016505
5235021083
5235026698
5235030970
5235037379
5235043788
5235049525
5235056361
5235062220
5235067530
5235073329
5235077662
5235084376
5235089137
5235095484
5235102748
5235109156
5235114161
5235121424
5235125391
5235131983
5235136683
5235143519
5235150660
5235156641
5235162806
5235168543
5235173182
5235179469
5235186793
5235191126
5235198450
5235205225
5235212183
5235216028
5235223170
5235228602
5235234156
5235240870
5235246729
5235255335
5235261439
5235267908
5235273462
5235278040
5235286036
5235290979
5235297022
5235303186
5235309778
5235315454
5235321619
5235326502
5235334070
5235338892
5235345484
5235352198
5235358545
5235363733
5235369043
5235376062
5235381800
5235387354
5235393152
5235398950
5235406152
5235411890
5235418482
5235424158
5235428491
5235436182
5235439600
5235446863
5235453760
5235460413
5235466455
5235472559
5235477624
5235483789
5235490991
5235495142
5235504297
5235510828
5235519678
5235524255
5235531824
5235536950
5235545434
5235550622
5235559717
5235566858
5235572168
5235577295
5235583642
5235588647
5235593896
5235600183
5235605493
5235613488
5235619043
5235625207
5235630639
5235635766
5235641931
5235647180
5235655175
5235660607
5235667382
5235673974
5235680322
5235686425
5235691735
5235696496
5235704308
5235710900
5235718224
5235723229
5235730004
5235736230
5235740868
5235748315
5235753442
5235759850
5235767236
5235773339
5235778039
5235784081
5235789696
5235795800
5235802819
5235809289
5235816918
5235824425
5235827416
5235834069
5235841149
5235848778
5235854638
5235861046
5235866845
5235873375
5235878075
5235886010
5235890770
5235896874
5235903649
5235907921
5235915490
5235921898
5235928002
5235932824
5235939965
5235945519
5235951134
5235957970
5235964501
5235971398
5235977257
5235982262
5235990318
5235994530
5236000511
5236006859
5236013268
5236020043
5236025902
5236031578
5236037254
5236042198
5236048180
5236053062
5236060265
5236067345
5236074791
5236079613
5236087425
5236092430
5236098778
5236103538
5236110008
5236116051
5236122581
5236128441
5236134849
5236140587
5236147911
5236153892
5236159691
5236165306
5236172386
5236178856
5236186363
5236192894
5236199607
5236205894
5236211265
5236217064
5236223838
5236229209
5236232078
5236240318
5236245140
5236250816
5236253807
5236261253
5236268028
5236273948
5236279685
5236287315
5236292625
5236299705
5236305869
5236314109
5236319114
5236326804
5236332114
5236337852
5236344505
5236350486
5236356712
5236363609
5236370994
5236376975
5236382346
5236388389
5236394065
5236400291
5236404624
5236411338
5236419639
5236425681
5236430869
5236436545
5236442649
5236449241
5236454856
5236460715
5236467856
5236474143
5236477561
5236484824
5236490683
5236496421
5236503257
5236508017
5236515769
5236520591
5236528281
5236533164
5236540549
5236545249
5236552268
5236556357
5236562766
5236570395
5236576438
5236580649
5236588278
5236593344
5236599387
5236604880
5236611105
5236618491
5236624960
5236628195
5236636252
5236641074
5236647849
5236654257
5236658957
5236667319
5236671957
5236679770
5236685080
5236692282
5236697226
5236702780
5236708822
5236714743
5236721640
5236727499
5236733542
5236739767
5236744955
5236751059
5236756979
5236763510
5236772604
5236782187
5236788595
5236795126
5236801840
5236806967
5236812277
5236820272
5236829306
5236836447
5236840841
5236847067
5236851400
5236857748
5236863790
5236869161
5236874410
5236881796
5236886434
5236893331
5236897848
5236902975
5236909445
5236914388
5236920309
5236928487
5236933859
5236939230
5236946554
5236952413
5236958456
5236962789
5236969076
5236975668
5236981954
5236988180
5236994588
5237001058
5237006917
5237010152
5237018270
5237025594
5237032064
5237035482
5237043111
5237049703
5237053609
5237060506
5237065877
5237071920
5237079549
5237088033
5237092794
5237100972
5237105977
5237113424
5237119405
5237126790
5237133626
5237141194
5237146688
5237152303
5237158223
5237163777
5237169576
5237175923
5237183736
5237189534
5237194844
5237201009
5237207417
5237213887
5237219380
5237225545
5237233479
5237240254
5237245564
5237251790
5237258687
5237263203
5237269795
5237276692
5237281941
5237287251
5237294514
5237300191
5237305684
5237311970
5237317586
5237323323
5237329609
5237335835
5237342183
5237345234
5237354878
5237360798
5237365254
5237369954
5237378437
5237385945
5237392292
5237398396
5237403035
5237409871
5237417439
5237422200
5237428181
5237435871
5237442524
5237451008
5237456623
5237463581
5237470295
5237475483
5237480183
5237486286
5237493549
5237500385
5237505756
5237511189
5237515888
5237522846
5237526936
5237534260
5237540852
5237546162
5237552509
5237557819
5237562763
5237568317
5237572895
5237580097
5237585468
5237593220
5237598652
5237604328
5237609943
5237616169
5237621601
5237627582
5237634174
5237640583
5237645649
5237653339
5237658283
5237665241
5237670307
5237676777
5237681965
5237687824
5237695453
5237699787
5237707172
5237711505
5237720600
5237725421
5237731769
5237737934
5237744586
5237750141
5237756305
5237761615
5237768207
5237774616
5237780780
5237788165
5237793292
5237801166
5237805988
5237812702
5237818805
5237823749
5237828265
5237836566
5237842487
5237850055
5237855792
5237861774
5237868487
5237874469
5237880206
5237886066
5237894366
5237900653
5237906085
5237912250
5237917743
5237923602
5237929339
5237935687
5237942096
5237951495
5237956134
5237964557
5237972247
5237978289
5237985858
5237992938
5237998919
5238004535
5238011370
5238017047
5238022479
5238028521
5238035052
5238039569
5238045367
5238055499
5238063555
5238071917
5238077227
5238085101
5238091143
5238102007
5238108050
5238115862
5238119708
5238126116
5238132281
5238136431
5238141680
5238148516
5238154192
5238159685
5238164751
5238170000
5238175738
5238180987
5238186419
5238191912
5238197283
5238202715
5238209002
5238213396
5238219744
5238223955
5238229387
5238237383
5238241533
5238248125
5238252092
5238257769
5238263811
5238269243
5238274187
5238280352
5238283159
5238290606
5238296648
5238303667
5238308123
5238313372
5238318376
5238324785
5238329790
5238334978
5238340898
5238348162
5238355730
5238360735
5238366533
5238371294
5238377580
5238395891
5238403093
5238408098
5238413164
5238420976
5238428117
5238434221
5238439836
5238444536
5238452226
5238457048
5238464128
5238469987
5238477129
5238479875
5238489030
5238496232
5238503129
5238509172
5238516435
5238521745
5238526323
5238530961
5238537614
5238542314
5238548845
5238553727
5238558854
5238563066
5238569291
5238573564
5238579667
5238585160
5238591996
5238597184
5238602006
5238607255
5238612077
5238616899
5238622758
5238628434
5238635087
5238639665
5238645280
5238652055
5238658525
5238663896
5238670732
5238676713
5238681840
5238690080
5238696061
5238702775
5238706803
5238713883
5238719315
5238723832
5238730302
5238735368
5238740922
5238747208
5238753373
5238756852
5238764848
5238769120
5238774186
5238777177
5238784806
5238791947
5238796219
5238801224
5238807938
5238813126
5238816727
5238823502
5238828812
5238833329
5238838578
5238844010
5238849564
5238854935
5238860672
5238866044
5238871048
5238875748
5238881180
5238885819
5238892167
5238898392
5238901322
5238907853
5238912369
5238920609
5238926163
5238932633
5238938126
5238943985
5238950516
5238956619
5238961319
5238969071
5238974869
5238980911
5238986038
5238992508
5238998367
5239003983
5239007156
5239013748
5239018387
5239025772
5239032181
5239039444
5239045547
5239050613
5239056351
5239061783
5239068314
5239071731
5239079910
5239086685
5239092483
5239098160
5239104080
5239109939
5239114029
5239119461
5239123245
5239131729
5239135574
5239142410
5239145950
5239152359
5239156143
5239164016
5239169449
5239175369
5239180557
5239185745
5239191177
5239196182
5239201614
5239207046
5239211074
5239219863
5239226760
5239233352
5239240493
