5240424206
5240430126
5240434582
5240440319
5240446301
5240451122
5240456860
5240461804
5240466808
5240471813
5240477612
5240482494
5240487194
5240492992
5240498486
5240504406
5240509411
5240514416
5240519787
5240524303
5240529858
5240533581
5240537853
5240542736
5240547314
5240552135
5240556957
5240562084
5240569286
5240574963
5240580822
5240587841
5240594555
5240599315
5240607616
5240613720
5240621349
5240627880
5240634350
5240641552
5240649608
5240655651
5240663341
5240670116
5240677745
5240683605
5240691112
5240698864
5240704540
5240712352
5240718517
5240725475
5240734264
5240744090
5240750133
5240757335
5240765270
5240771434
5240779491
5240786815
5240794811
5240802989
5240809703
5240818309
5240825572
5240833934
5240841746
5240849010
5240857005
5240862132
5240869884
5240876231
5240885387
5240893870
5240902476
5240909312
5240916270
5240922374
5240928599
5240938060
5240947276
5240954783
5240961558
5240969493
5240976268
5240983348
5240989817
5240999156
5241008128
5241015086
5241023204
5241030284
5241036753
5241044932
5241052500
5241059092
5241068064
5241074290
5241082652
5241089671
5241098765
5241107859
5241118357
5241126414
5241134409
5241141184
5241149912
5241157236
5241165903
5241174509
5241181834
5241189829
5241193735
5241205088
5241213389
5241220408
5241229990
5241236033
5241246775
5241255198
5241262827
5241271982
5241280039
5241289011
5241297373
5241305185
5241312754
5241320078
5241329477
5241338449
5241345712
5241354013
5241361887
5241369699
5241378427
5241386179
5241393503
5241401254
5241407541
5241415170
5241423166
5241430917
5241439096
5241445871
5241454050
5241461984
5241467416
5241476510
5241483530
5241493112
5241501352
5241507455
5241515878
5241523568
5241529123
5241538827
5241547250
5241555124
5241564584
5241570871
5241577707
5241585824
5241593087
5241600167
5241608224
5241615487
5241623788
5241630746
5241637033
5241646920
5241654244
5241662789
5241672250
5241679391
5241687814
5241696175
5241704720
5241713082
5241721810
5241730538
5241737130
5241743966
5241752999
5241760628
5241769112
5241778084
5241786080
5241794320
5241799996
5241808724
5241816048
5241822030
5241831673
5241838753
5241846077
5241855416
5241862374
5241869210
5241879036
5241887032
5241894722
5241902535
5241910225
5241918465
5241927010
5241937203
5241945442
5241951424
5241960701
5241968208
5241976326
5241985176
5241995064
5242002937
5242011971
5242019478
5242027046
5242035774
5242044441
5242053291
5242060432
5242068550
5242075630
5242081917
5242091194
5242099067
5242106025
5242112983
5242120735
5242128364
5242134895
5242142585
5242151008
5242159126
5242166816
5242176399
5242182746
5242191169
5242197883
5242206306
5242215827
5242223823
5242232063
5242239448
5242247077
5242256904
5242265937
5242273872
5242282478
5242291023
5242300239
5242307563
5242316169
5242324104
5242331916
5242341071
5242349311
5242355353
5242362067
5242370856
5242376899
5242387336
5242395087
5242402839
5242409736
5242416327
5242424384
5242432074
5242439826
5242447211
5242456366
5242463507
5242469550
5242477423
5242485724
5242494330
5242500922
5242509772
5242517279
5242523810
5242531867
5242540534
5242547553
5242555975
5242563971
5242572150
5242578803
5242586249
5242595038
5242600836
5242610419
5242618048
5242625616
5242633307
5242639532
5242647894
5242655768
5242664130
5242672430
5242679999
5242689886
5242694769
5242705572
5242714300
5242722357
5242730414
5242736639
5242744330
5242753485
5242763128
5242771246
5242781866
5242791326
5242798407
5242807989
5242814581
5242822821
5242834234
5242841314
5242846990
5242855169
5242862005
5242869146
5242873419
5242880865
5242886358
5242892889
5242897833
5242904852
5242911321
5242916082
5242924871
5242930242
5242935857
5242941778
5242948247
5242954778
5242961370
5242967535
5242974859
5242980413
5242984868
5242992742
5242999456
5243005193
5243012090
5243017522
5243022954
5243029302
5243035833
5243042547
5243049382
5243054448
5243061284
5243065862
5243074651
5243080449
5243086614
5243093694
5243099126
5243105657
5243112554
5243118474
5243123540
5243129399
5243136662
5243142217
5243148381
5243153752
5243159795
5243165654
5243169927
5243176213
5243182744
5243189031
5243193303
5243201970
5243207646
5243212834
5243217595
5243224614
5243230473
5243237309
5243241643
5243248418
5243254399
5243259160
5243264287
5243271062
5243277409
5243283757
5243290104
5243296147
5243301884
5243308354
5243313908
5243318791
5243326481
5243331974
5243337223
5243342228
5243349125
5243353764
5243360478
5243365849
5243372013
5243377323
5243383488
5243389897
5243395512
5243401554
5243408634
5243414006
5243420170
5243425297
5243431217
5243436527
5243441166
5243448002
5243453434
5243460026
5243465763
5243472294
5243478092
5243484684
5243489018
5243497440
5243504459
5243509708
5243515018
5243520634
5243526066
5243532108
5243537601
5243544926
5243550480
5243556034
5243562137
5243567448
5243573612
5243579105
5243585819
5243591800
5243595707
5243602970
5243608463
5243615787
5243623722
5243630985
5243638065
5243644107
5243652286
5243658329
5243664859
5243669376
5243675541
5243681949
5243687564
5243692935
5243698978
5243705387
5243711612
5243717044
5243723453
5243728702
5243732669
5243740421
5243745731
5243751041
5243756717
5243763858
5243769779
5243776370
5243780765
5243787051
5243791934
5243798038
5243804691
5243811771
5243817447
5243823306
5243829837
5243835269
5243841617
5243846988
5243853824
5243858218
5243864871
5243870547
5243877017
5243882327
5243888492
5243893924
5243899295
5243905459
5243911563
5243917972
5243924258
5243929629
5243935244
5243940310
5243944705
5243952212
5243957766
5243963137
5243968875
5243974673
5243981326
5243988040
5243993594
5243998355
5244004458
5244009341
5244016238
5244021731
5244027285
5244033755
5244040286
5244046572
5244052432
5244058535
5244064272
5244070498
5244077578
5244082766
5244089419
5244094668
5244101077
5244106203
5244112246
5244117129
5244123721
5244129763
5244135195
5244141421
5244146792
5244152163
5244157900
5244163332
5244171633
5244178591
5244184756
5244191347
5244198061
5244204836
5244211977
5244217287
5244224550
5244229616
5244236147
5244242006
5244246889
5244253542
5244259890
5244264101
5244270205
5244277101
5244282656
5244288149
5244294130
5244299868
5244306154
5244311342
5244317507
5244322756
5244329225
5244334047
5244340212
5244346926
5244352358
5244358644
5244364870
5244370424
5244376466
5244382082
5244387514
5244395937
5244402467
5244409547
5244415590
5244421083
5244427187
5244432619
5244440553
5244445619
5244451967
5244457216
5244464113
5244469179
5244475587
5244482301
5244487855
5244493287
5244498903
5244504396
5244509828
5244515687
5244521486
5244528322
5244533632
5244539552
5244545228
5244552003
5244557313
5244564149
5244569276
5244576051
5244581117
5244586305
5244594178
5244599488
5244604920
5244610414
5244616395
5244623170
5244628358
5244633424
5244638185
5244644776
5244650392
5244657044
5244662415
5244668275
5244675294
5244681153
5244686097
5244692689
5244699342
5244704652
5244710877
5244716065
5244722474
5244728455
5244733033
5244741883
5244747620
5244757447
5244763856
5244770264
5244775574
5244780701
5244787781
5244793946
5244799012
5244805115
5244811524
5244816895
5244822999
5244828553
5244834107
5244839966
5244845826
5244853028
5244857544
5244864136
5244868714
5244875916
5244881043
5244888611
5244893494
5244899964
5244904358
5244910767
5244915222
5244921936
5244928040
5244934448
5244939087
5244945923
5244953552
5244957886
5244964539
5244969910
5244977600
5244983398
5244990295
5244995789
5245002136
5245007996
5245014404
5245018982
5245024963
5245031555
5245046570
5245055237
5245059753
5245065796
5245072876
5245076843
5245083008
5245089294
5245094970
5245100769
5245107544
5245112671
5245118530
5245123169
5245129638
5245136657
5245141723
5245148437
5245154541
5245159179
5245163696
5245169677
5245176086
5245182800
5245189636
5245193969
5245200256
5245205017
5245211120
5245216369
5245224243
5245229370
5245235412
5245240966
5245247619
5245252136
5245257324
5245264221
5245274108
5245279845
5245285400
5245291930
5245298705
5245307494
5245314757
5245320556
5245327148
5245332519
5245339294
5245344054
5245349486
5245356261
5245363830
5245368407
5245375548
5245381774
5245387389
5245394103
5245401610
5245407409
5245413939
5245419677
5245425292
5245432189
5245436889
5245443908
5245450438
5245455199
5245461974
5245467101
5245472594
5245478881
5245484618
5245491637
5245499205
5245505309
5245512084
5245516539
5245523070
5245528868
5245535826
5245541503
5245547789
5245553526
5245560057
5245565245
5245569518
5245578124
5245583434
5245589903
5245594420
5245601805
5245605833
5245612059
5245619627
5245623900
5245630980
5245635741
5245642699
5245649168
5245654051
5245660155
5245666929
5245671934
5245678221
5245684385
5245690367
5245695616
5245702330
5245707823
5245713377
5245720579
5245725584
5245731810
5245737486
5245743711
5245751158
5245758665
5245764402
5245770140
5245774351
5245782347
5245788145
5245795957
5245802427
5245807737
5245813963
5245819090
5245825865
5245831663
5245841429
5245847959
5245856138
5245861448
5245869688
5245875242
5245882139
5245886778
5245893552
5245898557
5245904111
5245909788
5245914365
5245920957
5245927000
5245931882
5245937192
5245942747
5245949094
5245953916
5245960081
5245964780
5245970029
5245975767
5245981748
5245987668
5245992917
5245998594
5246004026
5246009397
5246015073
5246023801
5246028135
5246032834
5246039731
5246044858
5246052488
5246058774
5246064206
5246069211
5246074460
5246080136
5246086240
5246091428
5246096433
5246102414
5246108884
5246114499
5246119870
5246123898
5246131711
5246137753
5246142819
5246147397
5246153989
5246158566
5246164426
5246169492
5246177670
5246182919
5246188840
5246194455
5246199948
5246204953
5246210019
5246216733
5246221493
5246227292
5246233273
5246237729
5246245358
5246249631
5246256772
5246261105
5246266476
5246271481
5246276974
5246283261
5246288571
5246293454
5246297726
5246304013
5246309262
5246314938
5246320431
5246326291
5246331417
5246337460
5246347042
5246353695
5246359616
5246365658
5246371945
5246378414
5246385739
5246391476
5246396481
5246402096
5246407650
5246413449
5246418698
5246424923
5246431210
5246435604
5246441891
5246448544
5246452694
5246459164
5246465756
5246472286
5246476376
5246483273
5246488338
5246494137
5246498653
5246506344
5246511227
5246517086
5246522701
5246528072
5246533077
5246538326
5246544918
5246552242
5246557674
5246562862
5246569393
5246574581
5246580745
5246586849
5246593075
5246599117
5246604122
5246609249
5246616146
5246622127
5246628841
5246632869
5246638424
5246644954
5246649593
5246655696
5246662105
5246667354
5246673458
5246678585
5246683162
5246689266
5246694271
5246700191
5246705806
5246712581
5246718807
5246724727
5246729793
5246735469
5246740718
5246745784
5246752010
5246758418
5246763667
5246769283
5246774287
5246779964
5246785396
5246791133
5246797603
5246802791
5246807002
5246813960
5246819331
5246825130
5246831904
5246836116
5246842830
5246847590
5246854548
5246860896
5246868098
5246874690
5246880916
5246885798
5246892817
5246898738
5246906550
5246912898
5246919795
5246925837
5246931697
5246936580
5246942866
5246948237
5246955195
5246961299
5246967952
5246973872
5246979914
5246985774
5246991694
5246997431
5247003230
5247008479
5247013789
5247019343
5247025385
5247029902
5247034846
5247040217
5247045222
5247051630
5247057917
5247063899
5247069331
5247076289
5247082514
5247087336
5247092219
5247098078
5247103999
5247109919
5247115595
5247120722
5247125849
5247133784
5247139094
5247145014
5247150202
5247157038
5247162714
5247169245
5247173945
5247180597
5247186152
5247192865
5247198664
5247203119
5247208918
5247213800
5247221186
5247227167
5247232965
5247239069
5247245050
5247250788
5247256342
5247262323
5247267023
5247272516
5247277277
5247282526
5247288385
5247293329
5247300653
5247306696
5247311579
5247317987
5247322504
5247329889
5247335321
5247340631
5247345697
5247351007
5247356928
5247362055
5247368036
5247373407
5247379388
5247386102
5247392023
5247399896
5247408258
5247414972
5247419305
5247429986
5247436456
5247440668
5247446588
5247451837
5247457818
5247463251
5247467889
5247473932
5247477960
5247484247
5247490411
5247495416
5247500726
5247506524
5247511529
5247517633
5247522943
5247528192
5247533502
5247540765
5247546380
5247552667
5247559137
5247563592
5247570611
5247574945
5247582940
5247588128
5247594049
5247600640
5247607842
5247612969
5247618768
5247626092
5247633477
5247640435
5247647576
5247653619
5247659112
5247663934
5247668938
5247674615
5247680291
5247687188
5247692559
5247697686
5247702386
5247708001
5247714104
5247719353
5247726189
5247733025
5247737420
5247744012
5247748223
5247756402
5247763177
5247769097
5247775506
5247780755
5247785149
5247791497
5247796563
5247803399
5247808403
5247814141
5247820671
5247825737
5247830315
5247836174
5247841362
5247848015
5247854363
5247859368
5247866143
5247872185
5247877861
5247884453
5247890068
5247894280
5247900017
5247907829
5247914116
5247920708
5247927300
5247932915
5247940300
5247947014
5247952202
5247957573
5247963676
5247970634
5247976860
5247983208
5247987968
5247995048
5247999870
5248007683
5248012504
5248018120
5248024711
5248029899
5248035576
5248041984
5248048271
5248053886
5248059562
5248063774
5248070183
5248075432
5248082206
5248088554
5248092155
5248098930
5248104606
5248111320
5248116142
5248122306
5248126945
5248133293
5248140251
5248144462
5248150383
5248155754
5248163444
5248168754
5248172782
5248179130
5248184684
5248191032
5248196403
5248202384
5248208793
5248214469
5248220939
5248225334
5248231010
5248235099
5248244010
5248250236
5248254874
5248260185
5248265983
5248271781
5248277213
5248283927
5248290031
5248296195
5248300346
5248307914
5248312736
5248318290
5248324454
5248330192
5248334769
5248340323
5248346488
5248351615
5248357474
5248363639
5248369437
5248374198
5248380607
5248384940
5248390921
5248396354
5248406363
5248410270
5248419547
5248424308
5248430106
5248436698
5248442923
5248448111
5248454276
5248462210
5248467826
5248473258
5248478141
5248484671
5248490042
5248495902
5248501334
5248505484
5248512137
5248518546
5248524222
5248528922
5248535208
5248538870
5248545279
5248551627
5248556448
5248562674
5248567740
5248573599
5248579825
5248585074
5248590872
5248595999
5248601309
5248608328
5248615835
5248621573
5248626822
5248632742
5248637442
5248643240
5248650381
5248655203
5248660879
5248666800
5248672964
5248678702
5248683889
5248690420
5248696219
5248701346
5248706900
5248712759
5248718313
5248722464
5248729422
5248734549
5248740957
5248744986
5248751272
5248755911
5248762808
5248767874
5248773855
5248779226
5248783316
5248789724
5248795034
5248801443
5248806631
5248813345
5248818594
5248822988
5248829336
5248834341
5248839590
5248845083
5248850576
5248856069
5248861990
5248867910
5248873220
5248879873
5248884634
5248890676
5248897268
5248903249
5248908742
5248913320
5248920705
5248925954
5248933340
5248939321
5248943899
5248949453
5248956228
5248962819
5248968923
5248974477
5248978994
5248985402
5248990468
5248996694
5249002187
5249006032
5249012014
5249018850
5249024221
5249029226
5249035390
5249041005
5249047414
5249052724
5249058889
5249064321
5249070119
5249075368
5249081960
5249087209
5249091786
5249098683
5249103810
5249109364
5249114247
5249120534
5249126088
5249131276
5249139577
5249144765
5249151173
5249154775
5249161366
5249166615
5249172963
5249177480
5249184132
5249189809
5249195302
5249200490
5249206105
5249211781
5249217580
5249224293
5249229298
5249235280
5249240956
5249246388
5249251210
5249256642
5249262196
5249267994
5249272755
5249277699
5249283986
5249289296
5249295277
5249300160
5249306508
5249312916
5249317616
5249324208
5249328663
5249334462
5249341969
5249346424
5249352345
5249356922
5249362965
5249371876
5249377247
5249383534
5249390187
5249396351
5249402149
5249407581
5249413380
5249416859
5249423390
5249431263
5249440113
5249444935
5249452992
5249459034
5249465382
5249473988
5249479298
5249485584
5249489185
5249495289
5249500477
5249507618
5249514759
5249520496
5249526844
5249531971
5249537342
5249542835
5249548694
5249554798
5249559742
5249567615
5249572193
5249578296
5249584766
5249591236
5249595813
5249601917
5249608204
5249613880
5249619312
5249626575
5249632740
5249639209
5249644886
5249650562
5249656299
5249662647
5249669971
5249674854
5249680774
5249687732
5249694202
5249698413
5249705005
5249710620
5249716174
5249721851
5249726367
5249732898
5249740100
5249745044
5249750781
5249756824
5249762256
5249767932
5249774829
5249779468
5249784167
5249791858
5249796558
5249802356
5249808704
5249815051
5249821399
5249826526
5249832263
5249838061
5249844714
5249850024
5249855884
5249860095
5249867297
5249872546
5249879016
5249884326
5249891345
5249897143
5249904284
5249910388
5249916980
5249921984
5249929248
5249934619
5249941394
5249946826
5249953540
5249959460
5249963916
5249970935
5249975756
5249983264
5249989672
5249994006
5249999743
5250006030
5250012133
5250019702
5250024706
5250031970
5250036913
5250043017
5250048388
5250055285
5250060717
5250066332
5250070971
5250077074
5250080737
5250086535
5250091845
5250096056
5250101794
5250105212
5250114306
5250118761
5250127062
5250133044
5250138964
5250146166
5250151964
5250157335
5250163622
5250169909
5250173815
5250182360
5250187914
5250194017
5250199755
5250206041
5250211596
5250218615
5250223680
5250229784
5250235460
5250241136
5250247057
5250253832
5250258654
5250266405
5250272203
5250279222
5250284288
5250289842
5250296129
5250301805
5250307482
5250312792
5250318285
5250325243
5250329759
5250335436
5250340563
5250346239
5250352831
5250358812
5250364732
5250371080
5250375719
5250380479
5250385912
5250392259
5250399095
5250405076
5250412340
5250417283
5250423021
5250429979
5250440233
5250444383
5250451768
5250457933
5250462022
5250469835
5250479295
5250483506
5250492479
5250497972
5250504686
5250509507
5250514939
5250521592
5250528245
5250534349
5250539903
5250546067
5250550706
5250557481
5250563890
5250568894
5250574937
5250580369
5250586595
5250592088
5250598374
5250605821
5250611314
5250616807
5250622727
5250629319
5250635423
5250641099
5250647080
5250652024
5250657517
5250664536
5250670823
5250677171
5250681626
5250687180
5250693467
5250697251
5250703660
5250710129
5250714585
5250720505
5250724778
5250730881
5250735581
5250741685
5250747239
5250753769
5250759141
5250764939
5250769272
5250773972
5250779282
5250785386
5250791184
5250796128
5250799729
5250805344
5250809433
5250816086
5250821396
5250827927
5250833176
5250839157
5250844834
5250848801
5250854172
5250861069
5250865586
5250870529
5250874741
5250881088
5250888657
5250894516
5250903488
5250910141
5250916428
5250922470
5250929245
5250935410
5250942429
5250949448
5250956223
5250961288
5250968613
5250973923
5250980698
5250985947
5250993149
5250999496
5251006821
5251013473
5251020004
5251026352
5251032821
5251038315
5251044296
5251052047
5251058395
5251064987
5251071457
5251077072
5251082321
5251091110
5251095688
5251103378
5251108322
5251115036
5251120590
5251126815
5251133468
5251138961
5251145675
5251150680
5251157333
5251162826
5251169296
5251174117
5251180892
5251186019
5251192184
5251198348
5251204574
5251209884
5251215804
5251223068
5251228317
5251234176
5251238815
5251244674
5251251083
5251256881
5251262313
5251267623
5251275619
5251281600
5251287459
5251292586
5251298324
5251304366
5251311019
5251315658
5251321578
5251328292
5251332076
5251338058
5251343978
5251348800
5251355575
5251362594
5251367904
5251373885
5251380599
5251384688
5251390792
5251396712
5251404403
5251409529
5251418013
5251425032
5251430953
5251438948
5251444869
5251450362
5251456404
5251462752
5251467879
5251473799
5251479842
5251484236
5251492293
5251497786
5251504439
5251511946
5251516280
5251522933
5251528914
5251534041
5251538924
5251545332
5251550459
5251556319
5251561263
5251568526
5251573347
5251578841
5251584456
5251590437
5251597639
5251603499
5251611494
5251618086
5251624251
5251630537
5251638045
5251642744
5251650679
5251656660
5251660933
5251668989
5251674482
5251681257
5251690413
5251696821
5251702314
5251708296
5251714155
5251721052
5251726545
5251732222
5251737959
5251743208
5251748945
5251754133
5251760359
5251765730
5251772138
5251777204
5251782942
5251787519
5251793257
5251799787
5251805708
5251810896
5251817121
5251821699
5251827741
5251833601
5251838056
5251844160
5251851362
5251856977
5251861799
5251866193
5251872480
5251878461
5251885480
5251891401
5251897260
5251902082
5251907148
5251913129
5251920331
5251927534
5251935529
5251940229
5251948957
5251959943
5251966535
5251972577
5251979169
5251985151
5251991742
5251998334
5252004010
5252011579
5252016278
5252022504
5252028730
5252033307
5252038190
5252043927
5252051190
5252057294
5252062543
5252067792
5252073773
5252078961
5252084516
5252090375
5252096539
5252101361
5252107465
5252111798
5252118146
5252124616
5252130414
5252137738
5252143231
5252149701
5252155438
5252160260
5252166119
5252171796
5252178998
5252184003
5252188702
5252194867
5252200238
5252205975
5252211041
5252217084
5252228131
5252234845
5252240094
5252246991
5252254254
5252258648
5252265545
5252271039
5252276104
5252281598
5252287701
5252292462
5252298809
5252303875
5252309735
5252316388
5252320172
5252327008
5252332684
5252338055
5252344342
5252350384
5252354107
5252359661
5252369488
5252376507
5252382549
5252386822
5252393170
5252398846
5252403362
5252411114
5252416302
5252421368
5252426983
5252433392
5252440105
5252446819
5252454021
5252459576
5252467083
5252472820
5252479961
5252484051
5252490215
5252495647
5252501446
5252508159
5252512554
5252519390
5252524578
5252530193
5252535686
5252540691
5252546123
5252552715
5252557720
5252561870
5252567791
5252573406
5252579021
5252584209
5252590129
5252595379
5252600811
5252606670
5252611309
5252616130
5252622051
5252629131
5252634502
5252640117
5252644878
5252651226
5252656047
5252661174
5252667644
5252672222
5252677776
5252684123
5252686870
5252694988
5252699443
5252705303
5252710246
5252715862
5252720317
5252725261
5252731914
5252736980
5252745403
5252751140
5252758708
5252764629
5252770488
5252777019
5252782085
5252789470
5252795878
5252802898
5252806804
5252813640
5252821574
5252827434
5252834453
5252841716
5252847148
5252854777
5252860515
5252867717
5252874308
5252880290
5252887065
5252892802
5252900554
5252907878
5252912455
5252917826
5252922221
5252927836
5252934184
5252938578
5252946025
5252954081
5252962992
5252968119
5252975382
5252982524
5252989970
5252995219
5253001750
5253006938
5253012919
5253019145
5253023417
5253030070
5253037577
5253048258
5253054057
5253061137
5253067667
5253071879
5253078654
5253085367
5253090983
5253095621
5253103007
5253108866
5253114237
5253119669
5253126749
5253132670
5253139200
5253144449
5253150431
5253156412
5253162394
5253167521
5253174234
5253181131
5253187784
5253193583
5253199198
5253204691
5253210489
5253215921
5253221170
5253227701
5253234598
5253240091
5253246256
5253251322
5253258768
5253264261
5253270731
5253274759
5253281717
5253287088
5253292337
5253296427
5253304727
5253310953
5253316934
5253321573
5253327615
5253331949
5253338052
5253343668
5253349466
5253356180
5253360452
5253366556
5253370889
5253377420
5253383157
5253387979
5253394449
5253400674
5253405130
5253411050
5253416604
5253421609
5253427713
5253433877
5253440164
5253445230
5253451211
5253455789
5253461648
5253467569
5253473916
5253479104
5253485330
5253491555
5253498574
5253503213
5253510781
5253518045
5253525003
5253530801
5253536904
5253544046
5253551004
5253558206
5253563333
5253569009
5253576211
5253580544
5253586709
5253592812
5253598061
5253603066
5253609780
5253614541
5253620583
5253625527
5253631203
5253635598
5253643777
5253649087
5253652871
5253659829
5253665261
5253670449
5253675149
5253682229
5253687722
5253693947
5253700783
5253704873
5253712014
5253717568
5253723183
5253729226
5253734597
5253740883
5253746621
5253752358
5253758461
5253764138
5253770546
5253776284
5253782387
5253787880
5253793373
5253799843
5253806008
5253813393
5253817421
5253823647
5253829018
5253835366
5253841591
5253845925
5253853798
5253858498
5253869179
5253877785
5253885964
5253895363
5253904335
5253912819
5253920387
5253928871
5253936256
5253944679
5253955666
5253963539
5253972511
5253978615
5253987770
5253996132
5254005531
5254017555
5254028358
5254037697
5254045692
5254053138
5254061134
5254069618
5254078468
5254096046
5254108131
5254117530
5254127906
5254136695
5254146339
5254156043
5254165321
5254174537
5254183814
5254192298
5254200782
5254212989
5254221961
5254230384
5254240028
5254248145
5254256812
5254266578
5254276649
5254287025
5254296729
5254305823
5254314063
5254324622
5254334510
5254342933
5254352942
5254361548
5254371009
5254381812
5254390540
5254400306
5254413062
5254421668
5254432044
5254442176
5254449072
5254459998
5254468909
5254479590
5254489295
5254497229
5254504858
5254515295
5254523901
5254533667
5254544653
5254551733
5254562537
5254570105
5254578833
5254586401
5254597449
5254605871
5254613989
5254623327
5254634924
5254642553
5254653174
5254665381
5254674048
5254687048
5254694250
5254704504
5254713842
5254721777
5254730383
5254736242
5254746801
5254757543
5254766760
5254779516
5254791662
5254800695
5254809179
5254819006
5254827306
5254836156
5254845190
5254853063
5254862646
5254871496
5254880651
5254888891
5254898229
5254907201
5254915807
5254924474
5254934301
5254943456
5254953038
5254963659
5254968908
5254980809
5254990636
5255000341
5255010228
5255019506
5255029271
5255039647
5255049169
5255056920
5255067113
5255076879
5255087010
5255096349
5255104527
5255113377
5255123570
5255131444
5255142369
5255150365
5255162205
5255170201
5255179722
5255190465
5255197667
5255209630
5255218724
5255229771
5255238316
5255246922
5255257420
5255269688
5255276585
5255288121
5255294896
5255307530
5255315159
5255325169
5255333714
5255343907
5255355259
5255361363
5255373509
5255384617
5255392002
5255399693
5255405735
5255412754
5255417149
5255424534
5255431065
5255435825
5255441807
5255447971
5255453342
5255459141
5255464512
5255469883
5255475620
5255479526
5255487461
5255493748
5255499485
5255504734
5255509678
5255515354
5255520664
5255527866
5255533848
5255539707
5255544773
5255551120
5255555942
5255562168
5255568576
5255573032
5255578891
5255585727
5255589756
5255596225
5255601963
5255611423
5255618137
5255625949
5255630832
5255639560
5255646274
5255653781
5255659641
5255666171
5255672946
5255678439
5255684970
5255690707
5255696872
5255702426
5255708408
5255714145
5255718662
5255726840
5255731174
5255738864
5255743991
5255750949
5255756320
5255762973
5255768344
5255774509
5255779880
5255786044
5255791415
5255797092
5255803500
5255809909
5255815219
5255821383
5255828158
5255835177
5255841281
5255845858
5255852328
5255858310
5255864779
5255870639
5255875216
5255881503
5255887728
5255894442
5255899264
5255904513
5255910861
5255918795
5255925143
5255930209
5255935397
5255941500
5255946993
5255953707
5255960238
5255964877
5255970187
5255976290
5255983065
5255987338
5255994357
5255997103
5256005770
5256011630
5256017367
5256023898
5256029269
5256034090
5256040621
5256045260
5256051974
5256057711
5256062533
5256068636
5256074740
5256079439
5256085604
5256091830
5256096407
5256103182
5256110018
5256115572
5256119845
5256127108
5256131624
5256138704
5256144198
5256149569
5256154207
5256161654
5256167818
5256177645
5256183199
5256190157
5256195040
5256202425
5256208773
5256214449
5256220858
5256226961
5256231600
5256238008
5256243746
5256250459
5256255403
5256260652
5256267366
5256273470
5256278902
5256285494
5256291109
5256296297
5256301729
5256308687
5256314058
5256320406
5256325716
5256332307
5256338655
5256345125
5256350923
5256355501
5256363985
5256368501
5256375215
5256380525
5256387849
5256393464
5256398836
5256405183
5256410188
5256416719
5256423494
5256428682
5256435457
5256440522
5256446809
5256451692
5256457795
5256464570
5256469270
5256475251
5256480867
5256487153
5256492952
5256499665
5256504731
5256511567
5256517060
5256521821
5256527803
5256533906
5256538972
5256545625
5256550385
5256556672
5256563081
5256569001
5256574494
5256580110
5256585725
5256591645
5256597016
5256601472
5256608125
5256614289
5256620087
5256627045
5256632600
5256637604
5256644196
5256648774
5256655427
5256659638
5256666291
5256670563
5256677460
5256683381
5256688080
5256694184
5256700348
5256704316
5256710480
5256719208
5256723786
5256730744
5256735322
5256744904
5256750031
5256755341
5256761872
5256768891
5256774750
5256780976
5256785981
5256792328
5256797211
5256804169
5256810883
5256815216
5256822663
5256827118
5256833649
5256838288
5256844879
5256849457
5256856842
5256861664
5256868683
5256873322
5256879852
5256884430
5256891205
5256897675
5256902985
5256908722
5256915192
5256921539
5256927032
5256932831
5256937042
5256943634
5256950165
5256955597
5256959686
5256966705
5256973663
5256979400
5256984588
5256990387
5256996734
5257002044
5257007293
5257014190
5257019134
5257026703
5257032623
5257038055
5257044342
5257050384
5257055450
5257062103
5257066314
5257072479
5257078888
5257083099
5257089325
5257094818
5257100433
5257106231
5257111541
5257117645
5257124176
5257129119
5257135772
5257140472
5257147064
5257152435
5257157256
5257162933
5257170318
5257175628
5257181915
5257188506
5257194244
5257199920
5257206084
5257211761
5257217925
5257223296
5257229034
5257234283
5257239104
5257245696
5257250579
5257256255
5257261870
5257268523
5257272979
5257280303
5257287932
5257294951
5257301299
5257307097
5257314177
5257320220
5257327056
5257332854
5257339019
5257345244
5257351409
5257356658
5257360930
5257367156
5257372832
5257379424
5257384185
5257391326
5257395598
5257402251
5257407378
5257412688
5257419097
5257424224
5257430998
5257436308
5257443022
5257448577
5257456938
5257461211
5257468352
5257474394
5257481902
5257487883
5257493559
5257498198
5257505522
5257511198
5257516142
5257521452
5257528166
5257534026
5257540556
5257546904
5257552397
5257558440
5257562773
5257569975
5257574492
5257581633
5257586149
5257592985
5257597441
5257604155
5257610441
5257616484
5257622526
5257628019
5257633329
5257640287
5257645231
5257652372
5257657438
5257666105
5257671843
5257677824
5257683989
5257688688
5257694364
5257700895
5257707243
5257713652
5257719328
5257723905
5257732267
5257737455
5257743498
5257749113
5257755888
5257761625
5257768095
5257773771
5257779691
5257784025
5257790128
5257796781
5257801420
5257809599
5257815214
5257820768
5257826383
5257831327
5257837492
5257845121
5257850614
5257857755
5257865995
5257871488
5257878141
5257886136
5257894193
5257902311
5257908231
5257914518
5257919950
5257925992
5257933011
5257939237
5257945951
5257951444
5257957669
5257964383
5257970487
5257976224
5257982206
5257989102
5257997220
5258003202
5258009427
5258015531
5258022122
5258027371
5258033902
5258038541
5258045560
5258050931
5258054776
5258062528
5258068082
5258074551
5258080594
5258086881
5258094754
5258100003
5258108426
5258113858
5258119473
5258126920
5258132535
5258137845
5258142728
5258149686
5258156521
5258162686
5258167447
5258173672
5258180508
5258186307
5258192044
5258198025
5258204983
5258209866
5258216458
5258221707
5258227810
5258233242
5258239895
5258246243
5258253079
5258259121
5258264614
5258271511
5258277249
5258282925
5258289090
5258295071
5258300808
5258307095
5258312466
5258319180
5258326443
5258331631
5258338406
5258343716
5258351162
5258356594
5258363552
5258368374
5258375454
5258382046
5258388149
5258392483
5258401882
5258407436
5258413784
5258420437
5258427090
5258433926
5258438259
5258445766
5258450649
5258457302
5258463528
5258469753
5258476467
5258480800
5258489467
5258494411
5258500881
5258506313
5258512295
5258518093
5258524502
5258529323
5258535549
5258542019
5258546291
5258554287
5258559291
5258565883
5258570583
5258577663
5258583889
5258590114
5258594997
5258601833
5258609157
5258614467
5258623012
5258631069
5258636745
5258643215
5258648769
5258655361
5258660549
5258667079
5258672450
5258680202
5258685634
5258691127
5258695949
5258700771
5258708827
5258715114
5258720485
5258725551
5258731227
5258737270
5258741847
5258748561
5258754542
5258760524
5258767482
5258773219
5258779994
5258785914
5258790919
5258797999
5258803492
5258811244
5258818263
5258822963
5258829799
5258836573
5258841761
5258848414
5258854457
5258860194
5258866114
5258873072
5258880030
5258885340
5258891444
5258898280
5258903773
5258911524
5258919337
5258925074
5258932276
5258937708
5258945460
5258952662
5258957423
5258965357
5258970728
5258977503
5258981898
5258988184
5258993922
5259000636
5259007410
5259013148
5259018458
5259024927
5259030482
5259035975
5259042994
5259047205
5259053370
5259060328
5259064478
5259071863
5259078272
5259084131
5259089869
5259096705
5259102015
5259108423
5259115137
5259119288
5259129053
5259135157
5259140711
5259146265
5259152002
5259158350
5259163965
5259172876
5259178003
5259183985
5259189844
5259194666
5259200403
5259206629
5259213098
5259219324
5259224268
5259231226
5259236109
5259241297
5259247766
5259253626
5259260339
5259265833
5259270471
5259276087
5259281641
5259286035
5259293115
5259300806
5259307703
5259313257
5259319116
5259324121
5259330652
5259336389
5259341882
5259349390
5259354516
5259359765
5259363611
5259370996
5259376733
5259383081
5259387781
5259393701
5259398584
5259404321
5259410974
5259416467
5259422998
5259428857
5259435937
5259442407
5259448877
5259457483
5259464685
5259470849
5259477868
5259484338
5259490625
5259496728
5259502709
5259509057
5259515466
5259519860
5259526025
5259531701
5259538049
5259543847
5259548974
5259554467
5259560937
5259566674
5259572717
5259577783
5259584313
5259589196
5259595544
5259602319
5259608178
5259613366
5259619347
5259626488
5259631615
5259637902
5259645226
5259652001
5259657860
5259663109
5259668786
5259676354
5259682641
5259688744
5259697289
5259704186
5259709618
5259714623
5259720482
5259725670
5259731041
5259737145
5259744896
5259750145
5259756371
5259762169
5259768151
5259773522
5259780358
5259787560
5259792443
5259799156
5259804283
5259808556
5259817162
5259825218
5259833275
5259839806
5259846153
5259851402
5259856529
5259862816
5259867943
5259873741
5259880211
5259885155
5259890587
5259896873
5259902855
5259909569
5259913780
5259920494
5259926536
5259930626
5259937218
5259943565
5259951622
5259958824
5259967491
5259974449
5259981224
5259988426
5259995079
5259999351
5260005516
5260010154
5260016075
5260022789
5260029625
5260036522
5260042686
5260046592
5260053428
5260058494
5260064720
5260072044
5260077293
5260083152
5260087974
5260094749
5260099937
5260106773
5260112632
5260117027
5260122581
5260129051
5260133689
5260138267
5260145652
5260153587
5260159690
5260164817
5260172447
5260176658
5260182822
5260188560
5260194602
5260201377
5260206199
5260212119
5260217612
5260225913
5260231650
5260238181
5260243064
5260248557
5260255149
5260261252
5260266746
5260272483
5260278403
5260283530
5260290061
5260296775
5260302512
5260308555
5260313254
5260321250
5260326621
5260330283
5260342002
5260347495
5260353720
5260360862
5260367453
5260371970
5260378623
5260386069
5260392478
5260399314
5260404441
5260412375
5260419516
5260427085
5260435996
5260441794
5260446127
5260454001
5260460166
5260467368
5260473593
5260480612
5260486350
5260493002
5260499472
5260505392
5260512534
5260518210
5260524802
5260529623
5260535788
5260540182
5260546469
5260552145
5260557638
5260564230
5260570517
5260576071
5260581869
5260587057
5260592184
5260598593
5260604879
5260610617
5260616415
5260622641
5260628195
5260634970
5260640707
5260646261
5260652548
5260658346
5260663595
5260668905
5260675192
5260680319
5260687399
5260693441
5260698507
5260708395
5260714132
5260720419
5260727316
5260732626
5260740804
5260746237
5260751363
5260756490
5260762716
5260768819
5260774862
5260780172
5260785299
5260792013
5260795797
5260802206
5260807149
5260813009
5260817892
5260825826
5260831197
5260837728
5260843770
5260849996
5260855245
5260861410
5260868184
5260873250
5260880147
5260885274
5260890828
5260896505
5260903158
5260908529
5260913656
5260919881
5260926290
5260930989
5260937642
5260943807
5260949117
5260956990
5260963155
5260969381
5260980794
5260987874
5260995442
5261001180
5261008016
5261015889
5261021993
5261027364
5261033467
5261039937
5261043538
5261048055
5261051656
5261059956
5261065389
5261069661
5261074239
5261079610
5261083882
5261089009
5261095418
5261099446
5261102620
5261107442
5261112141
5261116841
5261120381
5261126057
5261129658
5261135518
5261139119
5261143086
5261146748
5261151692
5261155110
5261161214
5261166951
5261171528
5261176228
5261181111
5261185933
5261190327
5261195027
5261199360
5261203084
5261211750
5261216450
5261221272
5261226155
5261231831
5261236714
5261241047
5261245503
5261250325
5261254719
5261260701
5261265278
5261270405
5261274861
5261280720
5261285420
5261289387
5261293476
5261298298
5261302204
5261309162
5261313496
5261318196
5261322834
5261326435
5261332234
5261335774
5261341999
5261346150
5261351032
5261356098
5261360432
5261364948
5261369099
5261375813
5261379719
5261384907
5261388569
5261393940
5261398029
5261402851
5261406818
5261413288
5261417805
5261422565
5261427387
5261432453
5261439167
5261444538
5261449055
5261454426
5261458820
5261462910
5261469501
5261473713
5261477680
5261482319
5261487018
5261492634
5261498615
5261504291
5261509418
5261514240
5261519794
5261524372
5261528827
5261534320
5261539447
5261544025
5261547992
5261552753
5261558734
5261564960
5261568378
5261572650
5261577167
5261581439
5261586750
5261591693
5261596088
5261601886
5261605731
5261612140
5261618060
5261622028
5261628620
5261634113
5261638934
5261644122
5261648944
5261653766
5261658649
5261663409
5261667987
5261672809
5261676593
5261683734
5261687762
5261693011
5261698993
5261703754
5261708514
5261714374
5261719867
5261725360
5261730975
5261736102
5261740375
5261746356
5261752093
5261757159
5261761188
5261767779
5261772235
5261778399
5261782367
5261788348
5261793963
5261798419
5261804889
5261809527
5261814959
5261821551
5261827044
5261831256
5261836749
5261841998
5261847979
5261851947
5261860003
5261864886
5261870318
5261874530
5261880328
5261886065
5261891802
5261896685
5261902117
5261911700
5261917437
5261922930
5261928973
5261934771
5261936236
5261944964
5261950823
5261957476
5261964739
5261973467
5261977312
5261985491
5261990679
5261996111
5262001482
5262010638
5262016314
5262021929
5262028765
5262034624
5262037737
5262044756
5262048968
5262056170
5262059405
5262067217
5262072344
5262078509
5262083208
5262090349
5262095232
5262101091
5262107378
5262113848
5262119707
5262123796
5262129412
5262134783
5262141069
5262146196
5262152300
5262157793
5262164202
5262169084
5262173967
5262181047
5262184587
5262191606
5262195452
5262205828
5262211260
5262215776
5262221514
5262226152
5262231218
5262237871
5262243608
5262249223
5262254289
5262259416
5262266008
5262271623
5262275713
5262281816
5262287614
5262293657
5262298540
5262303606
5262311235
5262315019
5262322404
5262328020
5262333208
5262334611
5262346330
5262351518
5262357500
5262363115
5262368242
5262374772
5262379167
5262384294
5262391435
5262398027
5262404313
5262409074
5262414079
5262419877
5262425493
5262430742
5262437272
5262443193
5262448991
5262454850
5262460405
5262465287
5262469499
5262476152
5262482255
5262488664
5262494462
5262500566
5262504838
5262510148
5262515519
5262520890
5262525956
5262533402
5262538346
5262544206
5262547318
5262554459
5262561967
5262567216
5262573747
5262582108
5262585770
5262594620
5262601151
5262605912
5262611100
5262617264
5262623185
5262630936
5262636002
5262641801
5262647477
5262652543
5262659684
5262663712
5262670121
5262676163
5262683610
5262687638
5262693924
5262699662
5262705460
5262709977
5262715287
5262722550
5262726578
5262733170
5262738480
5262744278
5262749955
5262755204
5262760392
5262766800
5262771927
5262779007
5262784928
5262791092
5262796890
5262801285
5262807877
5262812699
5262819657
5262826004
5262831375
5262836014
5262843277
5262848587
5262854569
5262860489
5262865616
5262870194
5262878433
5262883682
5262891434
5262897232
5262901627
5262906692
5262913895
5262918716
5262923111
5262930496
5262935501
5262942764
5262947891
5262953689
5262959183
5262965103
5262969986
5262976211
5262980850
5262987991
5262992569
5262999160
5263003677
5263009720
5263015335
5263021377
5263027176
5263031997
5263038528
5263043289
5263049148
5263055130
5263061416
5263066299
5263072158
5263076736
5263083023
5263088149
5263095291
5263099868
5263104141
5263111526
5263115188
5263123672
5263129348
5263134719
5263139907
5263144973
5263151443
5263157790
5263163772
5263171645
5263181106
5263189407
5263196670
5263205398
5263210708
5263219558
5263230117
5263236770
5263251357
5263262160
5263272170
5263278762
5263285720
5263292067
5263298964
5263308913
5263316237
5263323745
5263331374
5263339614
5263344496
5263352858
5263361159
5263367995
5263377333
5263384902
5263394179
5263398757
5263408644
5263417067
5263419509
5263432204
5263437880
5263451064
5263457716
5263466750
5263475111
5263482314
5263490675
5263495558
5263504835
5263511916
5263519362
5263527785
5263530104
5263543043
5263551527
5263557997
5263568861
5263575331
5263583265
5263588575
5263596205
5263604078
5263612318
5263617750
5263625502
5263630690
5263636122
5263643080
5263648695
5263654737
5263660902
5263666517
5263672315
5263679884
5263685865
5263692518
5263696180
5263704603
5263709181
5263718092
5263723524
5263728407
5263735487
5263740492
5263746534
5263753370
5263758802
5263764722
5263771619
5263778089
5263783948
5263787366
5263794569
5263799634
5263807447
5263812147
5263817518
5263824293
5263829114
5263835340
5263840162
5263845960
5263850538
5263856824
5263863782
5263871595
5263878126
5263882520
5263888746
5263893750
5263900769
5263904615
5263911084
5263915967
5263923658
5263929456
5263935376
5263941175
5263946057
5263956006
5263960462
5263970227
5263975843
5263981092
5263987622
5263993726
5264001599
5264007581
5264014356
5264017529
5264024793
5264029859
5264035046
5264042798
5264047253
5264052747
5264059644
5264065625
5264071423
5264077405
5264083997
5264090039
5264094800
5264102368
5264106030
5264112134
5264116894
5264123730
5264128979
5264135571
5264141492
5264147290
5264150525
5264159436
5264200207
5264205212
5264210766
5264214795
5264219677
5264225659
5264230358
5264235669
5264240490
5264244763
5264249707
5264254650
5264261059
5264265454
5264269970
5264275280
5264280651
5264286022
5264291760
5264296032
5264302502
5264307324
5264311291
5264315258
5264321667
5264326611
5264333019
5264339306
5264346203
5264352551
5264357067
5264363781
5264368908
5264373486
5264379467
5264384350
5264390942
5264394970
5264399792
5264404369
5264408825
5264412121
5264420055
5264422802
5264429455
5264433422
5264438244
5264443126
5264448498
5264453258
5264459301
5264463695
5264470226
5264475475
5264482006
5264486095
5264491527
5264495800
5264503917
5264508861
5264513073
5264518016
5264522838
5264527233
5264531200
5264536388
5264541027
5264544567
5264549449
5264552989
5264558239
5264562755
5264568675
5264573009
5264578136
5264582775
5264587169
5264591503
5264595775
5264599559
5264605174
5264610179
5264615001
5264618968
5264624828
5264629222
5264634044
5264636424
5264644664
5264650096
5264655895
5264660472
5264664623
5264668895
5264674937
5264679820
5264686168
5264690684
5264696849
5264701671
5264708751
5264712901
5264719371
5264723582
5264729259
5264733653
5264739085
5264742564
5264747996
5264752025
5264757701
5264762584
5264768565
5264772105
5264778148
5264784068
5264789744
5264794078
5264799876
5264806041
5264811961
5264817088
5264823924
5264829417
5264835154
5264840953
5264845835
5264851268
5264856761
5264860850
5264866343
5264869639
5264878428
5264884410
5264888560
5264895213
5264902659
5264908396
5264914256
5264918833
5264925303
5264931040
5264936961
5264942210
5264948801
5264953928
5264958445
5264964487
5264969370
5264976756
5264983164
5264990610
5264995859
5265004771
5265012766
5265019175
5265024058
5265029917
5265036387
5265043711
5265046457
5265055491
5265061533
5265067820
5265073374
5265078928
5265083628
5265090036
5265096994
5265103281
5265108591
5265114267
5265118662
5265124399
5265129831
5265134653
5265141123
5265147470
5265154062
5265159677
5265164377
5265168955
5265175180
5265177927
5265187753
5265192880
5265198557
5265204233
5265209665
5265215097
5265220773
5265227731
5265233591
5265240976
5265245371
5265253000
5265258981
5265264841
5265270517
5265276681
5265282358
5265289255
5265295541
5265300668
5265306772
5265311899
5265316904
5265322397
5265328500
5265333810
5265339181
5265345224
5265350656
5265354867
5265360238
5265365243
5265370736
5265377633
5265383676
5265388315
5265395395
5265400216
5265405526
5265411935
5265416879
5265423654
5265427865
5265434396
5265439645
5265445260
5265450814
5265455880
5265461007
5265467355
5265473153
5265479684
5265484628
5265490731
5265495736
5265503365
5265507455
5265513009
5265519723
5265523934
5265529549
5265535653
5265540719
5265545052
5265551156
5265556222
5265564706
5265567818
5265576363
5265582345
5265588021
5265594613
5265600838
5265607003
5265614388
5265620431
5265626961
5265631539
5265636910
5265643319
5265648751
5265653573
5265660103
5265668343
5265672921
5265678048
5265684334
5265689827
5265693795
5265699410
5265705697
5265712044
5265717904
5265723336
5265727730
5265733773
5265738289
5265742806
5265749764
5265754219
5265761177
5265765999
5265772469
5265777535
5265783028
5265787300
5265792854
5265799507
5265805550
5265814461
5265818855
5265826790
5265832466
5265839607
5265845223
5265855415
5265862129
5265870186
5265875862
5265884529
5265889839
5265895637
5265901619
5265908272
5265915962
5265922676
5265927620
5265934578
5265938850
5265946846
5265952339
5265958565
5265965217
5265971504
5265977607
5265983528
5265989204
5265995430
5266000373
5266005867
5266010749
5266018684
5266023140
5266029426
5266033760
5266039497
5266046089
5266050422
5266055305
5266059883
5266068428
5266073982
5266080146
5266085151
5266090766
5266095222
5266101325
5266105598
5266114021
5266120185
5266124030
5266130866
5266135688
5266140815
5266146064
5266151679
5266157050
5266163154
5266168830
5266174384
5266180305
5266185493
5266191047
5266198188
5266204902
5266211433
5266218574
5266225226
5266228889
5266236884
5266241645
5266249762
5266254584
5266260383
5266265143
5266272162
5266277411
5266284552
5266289130
5266293708
5266300055
5266306525
5266311591
5266317145
5266323432
5266328437
5266334052
5266340461
5266346015
5266351203
5266359320
5266364264
5266372870
5266377814
5266384467
5266390509
5266394232
5266400885
5266406867
5266411627
5266416754
5266423712
5266430304
5266436041
5266442206
5266450018
5266456183
5266462042
5266467841
5266473883
5266478522
5266484442
5266489630
5266495673
5266501166
5266507208
5266512884
5266518561
5266523260
5266529791
5266534613
5266539374
5266545599
5266552862
5266557562
5266564398
5266569159
5266574774
5266580328
5266586309
5266589605
5266597479
5266604071
5266610540
5266616461
5266621893
5266628179
5266632513
5266638678
5266644171
5266651678
5266657171
5266663397
5266668707
5266675360
5266680548
5266686529
5266693243
5266699224
5266704229
5266710516
5266714971
5266721197
5266726141
5266733099
5266737676
5266742071
5266748663
5266754949
5266759405
5266764410
5266772466
5266778631
5266784551
5266791326
5266798772
5266809942
5266817083
5266826360
5266834783
5266840886
5266846074
5266857915
5266865911
5266875737
5266882940
5266893499
5266900457
5266905950
5266913213
5266923467
5266928777
5266940801
5266948186
5266957280
5266962773
5266971807
5266979253
5266986272
5266992253
5267001042
5267007878
5267016423
5267020512
5267029668
5267037358
5267044560
5267050359
5267055058
5267067204
5267072453
5267079350
5267090031
5267094914
5267104436
5267109929
5267115117
5267123295
5267129582
5267137761
5267143986
5267153996
5267205510
5267211796
5267215580
5267220524
5267225224
5267228886
5267232853
5267238285
5267245426
5267249455
5267254215
5267258183
5267262882
5267266850
5267270939
5267275700
5267281193
5267285954
5267289555
5267294254
5267300968
5267306400
5267311833
5267316227
5267320500
5267327457
5267331181
5267339054
5267344914
5267349735
5267355228
5267359501
5267365116
5267370121
5267377201
5267382572
5267387150
5267392460
5267396671
5267401127
5267405521
5267409977
5267414249
5267418766
5267423649
5267427067
5267431644
5267436100
5267440372
5267445804
5267449405
5267454227
5267459903
5267462833
5267468876
5267472843
5267477359
5267484562
5267488834
5267493045
5267497623
5267502506
5267507450
5267511966
5267516666
5267521732
5267526310
5267531009
5267535953
5267539981
5267544803
5267549320
5267554203
5267559268
5267564151
5267569217
5267573245
5267578739
5267584049
5267589542
5267594913
5267600833
5267605838
5267611331
5267614505
5267620731
5267624088
5267629825
5267634341
5267639835
5267645572
5267650150
5267655276
5267660403
5267667117
5267670535
5267677188
5267684268
5267689395
5267694888
5267700687
5267705874
5267710330
5267715335
5267721316
5267726260
5267730655
5267735599
5267740298
5267745242
5267750186
5267755252
5267760318
5267764163
5267770388
5267775821
5267782718
5267788455
5267794436
5267800174
5267807193
5267816470
5267820681
5267826174
5267831668
5267837405
5267842776
5267847842
5267853335
5267859011
5267864199
5267868228
5267873293
5267878848
5267882144
5267888125
5267893130
5267899233
5267903628
5267910098
5267914492
5267920596
5267926211
5267931704
5267937014
5267940737
5267945925
5267951601
5267957827
5267962221
5267967043
5267973452
5267978091
5267984133
5267990420
5267996828
5268003420
5268008181
5268013491
5268017519
5268024111
5268030276
5268037661
5268042299
5268047365
5268054384
5268062380
5268066774
5268074160
5268079958
5268086489
5268091982
5268099062
5268105654
5268112123
5268117739
5268122927
5268129335
5268134340
5268137941
5268145632
5268150026
5268157533
5268162538
5268166750
5268174745
5268180300
5268186281
5268193971
5268199342
5268206300
5268211366
5268217592
5268224123
5268228029
5268234621
5268240358
5268246523
5268252077
5268257326
5268264162
5268268983
5268274721
5268279909
5268285890
5268291444
5268296449
5268302980
5268309083
5268316347
5268323060
5268326845
5268335695
5268339540
5268346498
5268352052
5268364076
5268373475
5268380677
5268386537
5268390504
5268399293
5268404481
5268410646
5268417176
5268425355
5268432252
5268437318
5268443177
5268448182
5268453553
5268458375
5268466126
5268472596
5268478883
5268484437
5268488160
5268495606
5268500001
5268508180
5268513551
5268519288
5268525086
5268529969
5268535523
5268541016
5268545106
5268551820
5268558900
5268566163
5268571351
5268576478
5268580933
5268587037
5268593079
5268601258
5268607789
5268614014
5268619202
5268625062
5268631775
5268637330
5268644837
5268650818
5268657532
5268664124
5268670166
5268676758
5268682434
5268687439
5268693543
5268699402
5268705689
5268711182
5268717224
5268722840
5268729187
5268734864
5268741211
5268748047
5268754883
5268761414
5268768006
5268773071
5268780335
5268787171
5268790894
5268796570
5268806213
5268812439
5268818909
5268825378
5268831787
5268837585
5268842651
5268849609
5268856201
5268863769
5268868530
5268876038
5268880432
5268888428
5268892944
5268900696
5268905945
5268913269
5268918274
5268925354
5268929992
5268936340
5268942627
5268948120
5268954529
5268960876
5268972900
5268978271
5268985473
5268992675
5268998779
5269006591
5269012817
5269021606
5269026306
5269031311
5269036560
5269041931
5269048156
5269054016
5269058532
5269064453
5269069641
5269074096
5269080261
5269085327
5269093078
5269098632
5269101989
5269107665
5269112609
5269116088
5269122131
5269125915
5269136230
5269141418
5269145751
5269151061
5269156799
5269162780
5269167358
5269172362
5269177245
5269183654
5269189635
5269196105
5269201964
5269208678
5269213622
5269219542
5269225890
5269233764
5269238646
5269244689
5269249755
5269256225
5269261107
5269266967
5269272521
5269278869
5269286620
5269293151
5269298888
5269306090
5269314330
5269324401
5269335997
5269341918
5269351378
5269356627
5269361388
5269367003
5269371520
5269377623
5269382994
5269388426
5269393431
5269397765
5269402220
5269407713
5269412535
5269420653
5269426634
5269432494
5269437560
5269442564
5269448058
5269453307
5269460631
5269466856
5269473387
5269478270
5269484862
5269492064
5269496763
5269503172
5269509947
5269517576
5269523070
5269529417
5269534483
5269540587
5269547056
5269554319
5269564024
5269569273
5269575682
5269582701
5269587889
5269593138
5269599485
5269605345
5269610960
5269615599
5269620787
5269625425
5269630552
5269635313
5269639891
5269645872
5269650938
5269656004
5269661558
5269667112
5269673155
5269678098
5269683653
5269689024
5269693601
5269700010
5269706297
5269712217
5269718015
5269722532
5269728757
5269735777
5269740049
5269747190
5269752134
5269757200
5269762205
5269766355
5269773374
5269780515
5269788022
5269795103
5269800779
5269805356
5269812498
5269818723
5269822873
5269828977
5269834165
5269840024
5269845884
5269850950
5269856931
5269862790
5269869321
5269874570
5269880552
5269888486
5269894529
5269899411
5269905820
5269911130
5269916867
5269922299
5269928830
5269933469
5269938779
5269944577
5269950376
5269956601
5269961850
5269967221
5269971982
5269977719
5269984555
5269990781
5269997311
5270001645
5270008176
5270013181
5270019284
5270024960
5270030759
5270034848
5270042477
5270047665
5270051999
5270057065
5270064023
5270068539
5270074460
5270081174
5270087582
5270092587
5270098874
5270104977
5270109006
5270115536
5270120846
5270127377
5270135129
5270139767
5270145504
5270152218
5270158261
5270165707
5270172299
5270178708
5270185055
5270190548
5270196347
5270203976
5270209225
5270215634
5270221981
5270226498
5270233822
5270239559
5270244869
5270251400
5270256954
5270261837
5270267636
5270273373
5270279781
5270286068
5270292660
5270297787
5270301632
5270307674
5270314083
5270320858
5270327328
5270333126
5270338741
5270344357
5270349361
5270356930
5270360836
5270367672
5270373592
5270377621
5270384212
5270390316
5270396969
5270404842
5270410518
5270415462
5270423092
5270427913
5270434871
5270440609
5270445797
5270452999
5270458492
5270462398
5270469051
5270473934
5270479854
5270485714
5270490779
5270496395
5270502193
5270506038
5270513546
5270517574
5270524166
5270530025
5270536861
5270542415
5270548091
5270554195
5270559261
5270563289
5270569820
5270576473
5270580379
5270587703
5270593257
5270600093
5270605159
5270611140
5270617061
5270624934
5270628597
5270636165
5270642268
5270647517
5270653377
5270659968
5270664241
5270674678
5270678462
5270684688
5270689509
5270696834
5270701350
5270707149
5270712153
5270719478
5270723445
5270729793
5270735347
5270741877
5270747249
5270752986
5270758662
5270762874
5270772761
5270780146
5270785517
5270792598
5270798152
5270803767
5270809993
5270815608
5270822810
5270828913
5270834407
5270840693
5270846797
5270852839
5270859248
5270863032
5270870356
5270877497
5270881892
5270889765
5270897334
5270902583
5270907221
5270913813
5270919856
5270925593
5270932124
5270938227
5270944025
5270948969
5270955622
5270962092
5270968134
5270974909
5270981562
5270987299
5270992121
5270998469
5271004145
5271010065
5271017573
5271022761
5271030146
5271036249
5271041681
5271047297
5271054010
5271059504
5271066095
5271072260
5271078669
5271085688
5271091608
5271096796
5271102838
5271108271
5271114984
5271121393
5271126032
5271133173
5271139459
5271144892
5271150995
5271157221
5271162592
5271166498
