5563526284
5563532021
5563538430
5563543557
5563549477
5563554604
5563559914
5563565286
5563571084
5563577248
5563582192
5563589455
5563595559
5563601052
5563607644
5563614175
5563620034
5563626565
5563633462
5563639809
5563644814
5563650674
5563655617
5563662514
5563667458
5563677285
5563684243
5563691140
5563696633
5563703347
5563711586
5563719887
5563726845
5563734169
5563740456
5563748146
5563755898
5563764138
5563770546
5563779213
5563785012
5563793373
5563800514
5563807961
5563815041
5563822792
5563830300
5563835426
5563843178
5563852333
5563858925
5563866188
5563872963
5563880043
5563887123
5563895485
5563904762
5563912575
5563919716
5563926063
5563934303
5563941933
5563949440
5563955665
5563964149
5563977333
5563989418
5564000465
5564008766
5564015968
5564026039
5564035194
5564042579
5564049964
5564057411
5564065895
5564072914
5564080726
5564087745
5564094032
5564101478
5564110389
5564119056
5564125160
5564132057
5564140235
5564146522
5564153053
5564159889
5564168922
5564177283
5564184608
5564192115
5564198829
5564205970
5564213416
5564221961
5564228797
5564237037
5564244178
5564251685
5564257972
5564264930
5564273902
5564282386
5564289710
5564298194
5564305823
5564313514
5564320350
5564329200
5564335242
5564344580
5564352088
5564360266
5564366431
5564375952
5564383277
5564393164
5564400061
5564407874
5564417090
5564425086
5564433081
5564442481
5564451697
5564461340
5564468970
5564477698
5564484595
5564491736
5564498511
5564509070
5564517248
5564524084
5564530615
5564537512
5564544653
5564553259
5564561072
5564567969
5564575415
5564582617
5564589209
5564595984
5564602636
5564609533
5564617102
5564626257
5564632116
5564639929
5564648840
5564655920
5564663671
5564692297
5564701330
5564710302
5564717016
5564725134
5564732397
5564739538
5564746313
5564753637
5564760595
5564767004
5564774084
5564782751
5564790075
5564798254
5564804784
5564812231
5564819005
5564827550
5564834814
5564842992
5564849218
5564856420
5564866552
5564874425
5564881872
5564888585
5564896703
5564905553
5564911840
5564921056
5564928441
5564935643
5564944799
5564955785
5564962255
5564970006
5564974889
5564984593
5564993871
5565001134
5565007848
5565017796
5565026586
5565036351
5565043980
5565051732
5565061498
5565068028
5565075352
5565083592
5565094945
5565103062
5565110203
5565119664
5565129735
5565136326
5565143101
5565151890
5565159459
5565168675
5565176182
5565186741
5565193577
5565201024
5565210423
5565215794
5565224949
5565232273
5565239842
5565246434
5565252293
5565260960
5565267674
5565273594
5565280125
5565287815
5565295323
5565303501
5565311131
5565317234
5565324680
5565332005
5565339451
5565349155
5565356724
5565364170
5565371616
5565379551
5565387485
5565397373
5565409458
5565416843
5565426243
5565433933
5565441379
5565449192
5565455662
5565462497
5565472019
5565479038
5565486240
5565493625
5565500827
5565507846
5565514927
5565523532
5565530490
5565536594
5565543430
5565550205
5565557102
5565564243
5565571140
5565580966
5565587863
5565595554
5565602817
5565608920
5565616611
5565623264
5565632541
5565639377
5565646091
5565653232
5565659641
5565663608
5565674899
5565682346
5565693820
5565698947
5565710239
5565717868
5565725070
5565733188
5565742099
5565750644
5565756137
5565766330
5565773288
5565780612
5565789157
5565797274
5565804232
5565814425
5565821322
5565828036
5565835543
5565844027
5565851535
5565861056
5565867648
5565876376
5565883151
5565891757
5565898654
5565908114
5565914523
5565925143
5565932101
5565938754
5565944186
5565949313
5565955965
5565962374
5565969820
5565975314
5565980502
5565985995
5565993136
5565997835
5566006380
5566011935
5566018160
5566023714
5566029940
5566035433
5566041598
5566047274
5566055391
5566062899
5566072237
5566078829
5566085299
5566093050
5566099093
5566105684
5566111300
5566115877
5566121187
5566126741
5566132357
5566138948
5566144381
5566149263
5566156160
5566162203
5566167696
5566173433
5566178804
5566185396
5566190645
5566198641
5566201570
5566209688
5566216829
5566222322
5566227449
5566233247
5566238924
5566245699
5566250520
5566255891
5566260347
5566266451
5566270845
5566277742
5566283479
5566288911
5566294649
5566301240
5566306001
5566312532
5566317659
5566322359
5566329256
5566334505
5566340852
5566346650
5566351533
5566357026
5566363191
5566368440
5566373445
5566378877
5566384736
5566390535
5566396577
5566402436
5566408479
5566414094
5566419038
5566424165
5566429475
5566434541
5566440766
5566447969
5566452485
5566457307
5566462617
5566469514
5566475495
5566481660
5566487458
5566493379
5566498506
5566503999
5566509187
5566514985
5566520661
5566526032
5566533357
5566538239
5566543794
5566550446
5566555940
5566562226
5566567719
5566573762
5566580598
5566585664
5566590363
5566595429
5566609711
5566616730
5566623261
5566631501
5566636384
5566642914
5566648347
5566654328
5566660554
5566666718
5566671662
5566676239
5566681366
5566686371
5566692719
5566697297
5566702790
5566709504
5566715119
5566721039
5566727875
5566732453
5566737336
5566741791
5566749115
5566754059
5566759369
5566764740
5566770355
5566775604
5566781830
5566787873
5566794037
5566799957
5566804718
5566811493
5566816986
5566822235
5566829254
5566835480
5566839935
5566846100
5566852020
5566857819
5566864960
5566870392
5566876129
5566882355
5566888275
5566894806
5566899872
5566904816
5566910370
5566916717
5566923370
5566929046
5566933807
5566939117
5566944610
5566950287
5566955719
5566961700
5566968170
5566975128
5566980011
5566986664
5566990875
5566997100
5567003387
5567009002
5567015411
5567021759
5567026580
5567031829
5567037933
5567044097
5567051178
5567055999
5567061431
5567067291
5567073455
5567078216
5567084320
5567089996
5567096465
5567101470
5567107574
5567113616
5567118926
5567123931
5567146575
5567154388
5567159393
5567165374
5567171600
5567177276
5567183196
5567187774
5567194060
5567198577
5567204497
5567210418
5567214873
5567221099
5567225982
5567231841
5567236236
5567243499
5567249663
5567254302
5567260222
5567264556
5567271697
5567277373
5567283416
5567289702
5567293914
5567299834
5567305571
5567310210
5567318023
5567322539
5567329375
5567334746
5567339507
5567345610
5567350676
5567357268
5567364897
5567369902
5567374846
5567380644
5567385588
5567391814
5567397856
5567403472
5567407988
5567414641
5567420622
5567425139
5567431181
5567438933
5567443633
5567449309
5567455290
5567460234
5567465056
5567471953
5567477385
5567483305
5567487700
5567491789
5567498808
5567505461
5567512114
5567517058
5567524077
5567528471
5567534331
5567539030
5567545683
5567553740
5567558500
5567564299
5567568693
5567575895
5567582853
5567589140
5567594328
5567600554
5567606352
5567614164
5567619963
5567628385
5567634001
5567639616
5567646147
5567651518
5567658110
5567663420
5567671110
5567677702
5567684477
5567689237
5567695524
5567701811
5567706877
5567713224
5567718473
5567724210
5567729643
5567734098
5567739225
5567745573
5567751859
5567758756
5567763761
5567768278
5567774442
5567780424
5567787015
5567793180
5567798734
5567803495
5567808866
5567814847
5567820768
5567826993
5567832120
5567838041
5567843717
5567849820
5567854947
5567859586
5567868131
5567873868
5567878507
5567885526
5567890653
5567896085
5567902189
5567907926
5567913724
5567918546
5567924527
5567929593
5567935636
5567940213
5567947293
5567953397
5567959439
5567964994
5567970853
5567974759
5567982022
5567987454
5567993375
5567998929
5568004727
5568010037
5568014432
5568020841
5568027127
5568031949
5568037320
5568042935
5568048123
5568053067
5568060574
5568066190
5568072659
5568076810
5568082608
5568088467
5568094449
5568102139
5568109524
5568116055
5568124478
5568131070
5568136380
5568143826
5568148648
5568155240
5568162442
5568167874
5568173428
5568178311
5568185757
5568190457
5568196194
5568201931
5568206265
5568213284
5568218106
5568225247
5568232022
5568236782
5568242276
5568248196
5568252468
5568257778
5568263516
5568270718
5568275418
5568280972
5568287014
5568291470
5568297207
5568303188
5568309170
5568315212
5568322170
5568327419
5568334194
5568339504
5568347378
5568351955
5568357388
5568363430
5568368740
5568373745
5568379787
5568386928
5568391872
5568399013
5568404995
5568414150
5568419948
5568425625
5568431728
5568438015
5568443691
5568450283
5568456264
5568461452
5568467556
5568472988
5568479335
5568485988
5568492275
5568498928
5568503383
5568510463
5568515346
5568522304
5568528225
5568535244
5568540309
5568545925
5568551113
5568557399
5568564113
5568571254
5568576381
5568582668
5568587062
5568592372
5568600673
5568607021
5568616359
5568622035
5568627712
5568633937
5568639003
5568644374
5568650295
5568658412
5568663600
5568668849
5568674953
5568681117
5568685939
5568692714
5568697963
5568704127
5568709193
5568715236
5568720729
5568725856
5568731776
5568737819
5568744410
5568748256
5568754542
5568760951
5568766627
5568772120
5568777919
5568783046
5568788600
5568795314
5568799769
5568806605
5568810939
5568817225
5568822963
5568828273
5568834864
5568840602
5568846156
5568852076
5568858851
5568863368
5568869654
5568874049
5568882105
5568888575
5568892420
5568899561
5568904627
5568910731
5568916224
5568922633
5568928004
5568933985
5568939112
5568944788
5568950343
5568956324
5568963221
5568970972
5568976221
5568983851
5568989466
5568995020
5569001734
5569007593
5569013270
5569018030
5569024561
5569029871
5569035669
5569042322
5569047144
5569053675
5569059656
5569065455
5569070704
5569075403
5569085230
5569091822
5569099939
5569106165
5569111780
5569118982
5569125757
5569131372
5569138513
5569144678
5569150049
5569155054
5569163355
5569169214
5569174158
5569180689
5569185999
5569190820
5569197107
5569202478
5569208704
5569214319
5569220117
5569225000
5569231653
5569237573
5569244714
5569250879
5569256067
5569261133
5569266809
5569273096
5569278039
5569285364
5569290735
5569295801
5569301233
5569308557
5569314294
5569320032
5569326867
5569332055
5569337915
5569343652
5569350793
5569355310
5569361963
5569367822
5569372461
5569378686
5569383996
5569390344
5569396081
5569402063
5569407495
5569412561
5569417688
5569424462
5569430749
5569436853
5569442285
5569447534
5569452844
5569459191
5569465112
5569471581
5569476647
5569483056
5569487695
5569493981
5569498925
5569505334
5569510095
5569517053
5569521935
5569527673
5569533593
5569539147
5569546105
5569550378
5569556786
5569562035
5569567467
5569576806
5569585046
5569591210
5569597924
5569604760
5569610131
5569616601
5569621850
5569628625
5569634362
5569639733
5569645836
5569651391
5569657616
5569663476
5569669823
5569674401
5569681847
5569686425
5569692467
5569698326
5569703637
5569709862
5569716454
5569721703
5569726952
5569732994
5569738854
5569743614
5569749718
5569754296
5569760765
5569766625
5569771446
5569778404
5569784386
5569790245
5569797508
5569804039
5569809471
5569815697
5569822105
5569827538
5569833153
5569837852
5569845726
5569850243
5569857384
5569862328
5569868980
5569873924
5569879234
5569885033
5569890709
5569898216
5569903648
5569908775
5569915001
5569920616
5569925987
5569932396
5569937889
5569944664
5569950584
5569955040
5569961448
5569966270
5569971153
5569977684
5569984398
5569988975
5569994285
5569999534
5570006187
5570012107
5570016868
5570023704
5570028770
5570034507
5570039878
5570045433
5570052452
5570059043
5570066856
5570072776
5570079124
5570085349
5570090598
5570096824
5570103599
5570107749
5570114585
5570119712
5570126731
5570134422
5570139610
5570145286
5570150901
5570156089
5570162864
5570169456
5570174277
5570180686
5570186484
5570191428
5570196433
5570204062
5570209617
5570214805
5570221213
5570227134
5570231833
5570238791
5570244224
5570250510
5570256064
5570261313
5570267173
5570272117
5570279746
5570285788
5570291343
5570296531
5570303000
5570308249
5570314109
5570320212
5570326316
5570331320
5570337302
5570343100
5570348227
5570355246
5570361899
5570368491
5570375266
5570382773
5570387351
5570392966
5570400412
5570406638
5570412741
5570420004
5570425314
5570430441
5570435751
5570443503
5570448019
5570454001
5570459311
5570465903
5570471091
5570477804
5570483359
5570489035
5570494345
5570500571
5570506064
5570511008
5570516684
5570523153
5570528036
5570532431
5570539206
5570546347
5570552389
5570561789
5570567038
5570573874
5570577963
5570583761
5570589865
5570596640
5570601400
5570607077
5570611776
5570619406
5570623800
5570628439
5570635092
5570639669
5570645346
5570651510
5570657247
5570662496
5570670187
5570674825
5570681234
5570686422
5570691854
5570696371
5570702779
5570708822
5570714925
5570720358
5570726583
5570732076
5570736837
5570743917
5570748678
5570755941
5570760519
5570765951
5570772176
5570777364
5570784139
5570790121
5570794454
5570800863
5570805379
5570811361
5570818685
5570823568
5570830037
5570834676
5570839986
5570846151
5570851522
5570858785
5570864278
5570869466
5570875509
5570880819
5570887654
5570893575
5570898824
5570905904
5570911885
5570917928
5570923360
5570927693
5570933248
5570940633
5570945821
5570952291
5570957906
5570963643
5570969441
5570975423
5570980672
5570985616
5570993062
5570997884
5571004781
5571008687
5571016316
5571032002
5571041341
5571048360
5571053242
5571058858
5571064595
5571070210
5571075825
5571081013
5571087544
5571093526
5571099690
5571106648
5571111409
5571117268
5571122456
5571129048
5571134358
5571139790
5571146321
5571152058
5571156941
5571164204
5571170369
5571175557
5571181721
5571186848
5571191609
5571198811
5571204914
5571210041
5571216633
5571222065
5571227253
5571233418
5571239033
5571244282
5571250996
5571255818
5571262837
5571266926
5571271687
5571278217
5571287739
5571293476
5571298725
5571303913
5571310017
5571315632
5571322041
5571327168
5571333759
5571339130
5571344624
5571350849
5571357380
5571363178
5571370014
5571375324
5571380451
5571386310
5571391865
5571398945
5571403766
5571409626
5571415912
5571420978
5571426349
5571432087
5571437458
5571444599
5571447956
5571454975
5571460651
5571466327
5571473102
5571477680
5571483905
5571489582
5571495258
5571502826
5571511371
5571516620
5571523700
5571529926
5571535602
5571541278
5571547199
5571553913
5571560443
5571565997
5571572101
5571577594
5571582904
5571588275
5571594379
5571600726
5571607379
5571611530
5571618366
5571623370
5571629230
5571636066
5571641315
5571647418
5571652728
5571658954
5571663959
5571671771
5571676166
5571683063
5571687701
5571694537
5571698932
5571704791
5571711322
5571716632
5571723041
5571727496
5571732501
5571738666
5571745440
5571752093
5571756427
5571761676
5571767596
5571774432
5571779864
5571785357
5571791095
5571798053
5571802996
5571809161
5571814349
5571821185
5571827899
5571834063
5571839739
5571844805
5571850909
5571857012
5571863299
5571868853
5571877520
5571882586
5571888751
5571894610
5571900958
5571907549
5571912859
5571917315
5571924578
5571929644
5571936480
5571942644
5571947832
5571954241
5571959185
5571965349
5571970721
5571976824
5571985064
5571990313
5571998003
5572004961
5572010393
5572017107
5572024187
5572031267
5572036394
5572042681
5572047991
5572053240
5572058550
5572064470
5572070330
5572076555
5572081072
5572087481
5572092607
5572097612
5572103655
5572110979
5572116838
5572122148
5572127275
5572133623
5572139604
5572144609
5572151995
5572156633
5572161882
5572167986
5572173113
5572179033
5572186723
5572191850
5572199480
5572204973
5572210588
5572217424
5572223100
5572228410
5572232683
5572240129
5572245500
5572250383
5572256364
5572261919
5572267900
5572274980
5572280717
5572286394
5572291276
5572296281
5572301591
5572307023
5572312761
5572319536
5572325639
5572330644
5572337297
5572342241
5572347856
5572354509
5572360185
5572365983
5572371049
5572375810
5572382035
5572386735
5572393876
5572399858
5572406266
5572414201
5572420304
5572426347
5572431779
5572438676
5572443742
5572448564
5572455155
5572460832
5572467179
5572472306
5572478471
5572482865
5572487382
5572493974
5572499833
5572505570
5572512833
5572518143
5572523515
5572528214
5572534501
5572539628
5572548661
5572554581
5572562333
5572567765
5572573868
5572579850
5572585587
5572591630
5572596757
5572604020
5572610428
5572616166
5572622269
5572627518
5572632462
5572639115
5572644974
5572651078
5572657059
5572663163
5572668473
5572673355
5572679276
5572686234
5572692276
5572698258
5572703934
5572708878
5572713944
5572719742
5572725052
5572731583
5572737747
5572743180
5572749710
5572754898
5572761612
5572766800
5572773453
5572778763
5572783829
5572791031
5572797379
5572804581
5572810013
5572816422
5572822220
5572828323
5572835037
5572841446
5572846756
5572851456
5572858963
5572863907
5572869827
5572876846
5572882095
5572886551
5572892715
5572900467
5572905594
5572911880
5572918167
5572923843
5572928726
5572935989
5572941238
5572947220
5572952102
5572958511
5572964248
5572970169
5572975723
5572982559
5572987808
5572994644
5572999038
5573005996
5573011001
5573018875
5573023818
5573029312
5573035964
5573041213
5573046890
5573052688
5573060562
5573066360
5573075271
5573081497
5573087966
5573095351
5573103835
5573110183
5573114883
5573120376
5573125381
5573131911
5573136794
5573142165
5573148574
5573154983
5573160171
5573166457
5573170974
5573176284
5573184279
5573189773
5573194411
5573201430
5573207168
5573212844
5573220229
5573226699
5573231093
5573237563
5573242568
5573246962
5573252761
5573260878
5573267226
5573272902
5573278090
5573283767
5573289260
5573296950
5573302932
5573308608
5573313491
5573319838
5573324050
5573330458
5573337538
5573343337
5573348525
5573353774
5573360304
5573365553
5573371718
5573379164
5573383803
5573390334
5573395522
5573400526
5573405653
5573412550
5573417494
5573423842
5573428664
5573433730
5573440199
5573446425
5573452223
5573456984
5573464308
5573470228
5573475233
5573480910
5573486220
5573493910
5573498610
5573503798
5573510573
5573514662
5573521010
5573526747
5573533827
5573539564
5573544264
5573550367
5573556532
5573563124
5573571363
5573578444
5573585524
5573591627
5573596205
5573601820
5573608778
5573615003
5573619947
5573624952
5573631056
5573637281
5573643202
5573648390
5573654859
5573659681
5573665968
5573671644
5573676222
5573683424
5573688673
5573694715
5573700208
5573705885
5573712354
5573717298
5573722974
5573729261
5573734083
5573741712
5573746229
5573752576
5573757764
5573765699
5573771558
5573776807
5573783399
5573787916
5573793836
5573799512
5573804944
5573812147
5573817090
5573823133
5573828931
5573833387
5573840711
5573846814
5573853284
5573858594
5573863904
5573869275
5573875379
5573881665
5573887342
5573892102
5573898450
5573904492
5573909619
5573916638
5573921643
5573927625
5573933850
5573939893
5573944654
5573950452
5573957166
5573963330
5573968457
5573975049
5573984631
5573989392
5573997022
5574002271
5574007947
5574014722
5574018933
5574026318
5574033154
5574039319
5574044446
5574052808
5574060376
5574068616
5574075024
5574080762
5574088940
5574095410
5574102063
5574106518
5574112500
5574117932
5574125439
5574132153
5574136487
5574144116
5574148938
5574153759
5574160473
5574166455
5574171521
5574177746
5574183056
5574189221
5574194592
5574200329
5574206555
5574213269
5574218395
5574223522
5574229077
5574235974
5574242871
5574247021
5574253430
5574258740
5574263622
5574270397
5574277050
5574283459
5574289440
5574294445
5574300243
5574306103
5574313122
5574319836
5574324657
5574329418
5574336376
5574341320
5574347607
5574352672
5574359630
5574365124
5574370983
5574375683
5574381115
5574385631
5574392528
5574397472
5574402904
5574408642
5574414806
5574420482
5574426281
5574430736
5574435436
5574444469
5574448558
5574455333
5574460216
5574467723
5574473827
5574478283
5574484752
5574491222
5574496776
5574502391
5574508007
5574513866
5574518688
5574524852
5574531322
5574536144
5574545055
5574551952
5574559642
5574566661
5574572765
5574578868
5574583263
5574588817
5574595714
5574601451
5574606517
5574612804
5574616954
5574623546
5574629344
5574634288
5574640819
5574647777
5574652965
5574658397
5574663524
5574670482
5574675303
5574681773
5574687083
5574691844
5574698375
5574704600
5574711314
5574715892
5574722056
5574727122
5574733470
5574738597
5574745616
5574751719
5574758616
5574766002
5574772593
5574778453
5574783458
5574790293
5574796702
5574802867
5574808238
5574813609
5574820689
5574826914
5574833262
5574838755
5574846690
5574852366
5574858408
5574863719
5574870188
5574875559
5574881052
5574887034
5574892222
5574898386
5574904124
5574910593
5574915293
5574921824
5574927134
5574931589
5574937876
5574944529
5574950266
5574955210
5574961741
5574968027
5574972239
5574978159
5574983225
5574990122
5574996409
5575000925
5575005930
5575012644
5575019846
5575025827
5575030832
5575038584
5575044382
5575051584
5575057322
5575074228
5575084055
5575091257
5575099863
5575107065
5575113230
5575119394
5575125376
5575131296
5575137461
5575142343
5575148691
5575153818
5575159494
5575164438
5575169931
5575176706
5575182626
5575187936
5575195322
5575201181
5575204233
5575212717
5575218637
5575223337
5575228586
5575234140
5575239877
5575246591
5575251291
5575256906
5575264596
5575271860
5575277719
5575284555
5575290292
5575298349
5575305612
5575312448
5575318918
5575323922
5575329843
5575334787
5575339975
5575348031
5575354074
5575359994
5575367379
5575374459
5575379586
5575385507
5575390939
5575397653
5575403390
5575408822
5575415292
5575420724
5575427621
5575432137
5575438607
5575443551
5575449899
5575455209
5575461190
5575465768
5575470895
5575477609
5575482552
5575488046
5575493417
5575499886
5575504952
5575510567
5575517525
5575523751
5575528878
5575534615
5575539010
5575545113
5575558907
5575565377
5575573311
5575578621
5575584786
5575591256
5575599312
5575605538
5575611092
5575616341
5575622994
5575629891
5575635018
5575641732
5575647347
5575654732
5575660408
5575665108
5575670967
5575678414
5575683785
5575690132
5575695870
5575701546
5575708504
5575713997
5575719246
5575724190
5575730965
5575737374
5575742684
5575749886
5575755074
5575760506
5575767159
5575771797
5575777107
5575785774
5575790901
5575795601
5575800545
5575807625
5575814217
5575819710
5575826118
5575831856
5575838203
5575843635
5575848518
5575855232
5575860237
5575867439
5575872871
5575879585
5575886360
5575891670
5575896797
5575904365
5575909858
5575917305
5575922554
5575928901
5575934211
5575939277
5575946296
5575951057
5575958320
5575963691
5575969123
5575975166
5575980049
5575987068
5575992012
5575997383
5576003608
5576010261
5576014839
5576021491
5576026374
5576033027
5576038825
5576044624
5576050178
5576056831
5576060981
5576067695
5576072761
5576079475
5576085395
5576091254
5576098090
5576103034
5576110419
5576117561
5576124091
5576131599
5576137946
5576145576
5576151069
5576156745
5576162482
5576169257
5576175117
5576180549
5576187446
5576192023
5576198676
5576204352
5576209235
5576214850
5576221320
5576226081
5576233588
5576239081
5576244574
5576250312
5576256415
5576263678
5576269355
5576276252
5576281684
5576287482
5576292853
5576300238
5576306220
5576311347
5576317877
5576322821
5576329108
5576335944
5576340766
5576347235
5576351996
5576358222
5576364996
5576371344
5576376715
5576383368
5576388556
5576393500
5576400153
5576406195
5576411932
5576418463
5576423346
5576429388
5576434698
5576442755
5576448370
5576453802
5576460150
5576465704
5576472296
5576477972
5576484442
5576490057
5576495062
5576502142
5576507696
5576512518
5576518988
5576523932
5576529669
5576536688
5576543463
5576549566
5576555365
5576561590
5576567205
5576573431
5576578741
5576584417
5576591192
5576596258
5576603338
5576608038
5576615118
5576620001
5576626653
5576631841
5576638555
5576650396
5576658270
5576665655
5576675054
5576682867
5576691167
5576718999
5576735235
5576752202
5576770208
5576787847
5576805303
5576823797
5576841375
5576859868
5576878362
5576899419
5576919621
5576934392
5576943730
5576951543
5576960515
5576973698
5576990788
5577009343
5577027531
5577039799
5577047734
5577056767
5577065068
5577072941
5577082341
5577091557
5577100346
5577109257
5577118351
5577126164
5577134892
5577143254
5577153141
5577161747
5577170292
5577178898
5577187077
5577194340
5577202519
5577213871
5577221867
5577230473
5577238163
5577246891
5577254887
5577264713
5577274296
5577283939
5577291386
5577301029
5577309452
5577316715
5577325504
5577334721
5577344242
5577352054
5577359562
5577369449
5577376774
5577383915
5577395389
5577403019
5577412113
5577419742
5577428775
5577435733
5577443363
5577454837
5577462650
5577471195
5577478946
5577487857
5577495059
5577502994
5577513126
5577522952
5577530277
5577540469
5577548038
5577554019
5577561221
5577570987
5577580142
5577587222
5577596378
5577604678
5577614444
5577623233
5577634952
5577645572
5577653750
5577661136
5577672366
5577682254
5577692752
5577702701
5577712466
5577721743
5577731753
5577740481
5577749575
5577757815
5577766665
5577777774
5577786685
5577795840
5577805667
5577814761
5577823733
5577832766
5577841982
5577850832
5577860720
5577871279
5577879641
5577890017
5577900271
5577909914
5577919009
5577927126
5577937380
5577946169
5577956545
5577964480
5577974978
5577982851
5577993227
5578001162
5578011049
5578020754
5578029116
5578036989
5578046816
5578054689
5578065370
5578075258
5578083315
5578090639
5578098879
5578109194
5578119875
5578129579
5578137941
5578147524
5578155519
5578164430
5578172853
5578185487
5578193422
5578199220
5578204652
5578210573
5578215822
5578223817
5578230592
5578235963
5578240480
5578246705
5578252016
5578258363
5578263551
5578271913
5578279176
5578286195
5578294740
5578300721
5578306459
5578312928
5578319520
5578326356
5578331422
5578337220
5578343507
5578348512
5578356263
5578361512
5578367311
5578372438
5578377320
5578382936
5578389100
5578395936
5578400636
5578407228
5578414491
5578418824
5578426576
5578432435
5578437379
5578442933
5578449159
5578454408
5578459473
5578465333
5578471131
5578478822
5578484803
5578490113
5578495545
5578501038
5578507325
5578513245
5578518738
5578523316
5578530457
5578537720
5578544251
5578550110
5578556763
5578562195
5578567261
5578574158
5578580384
5578585816
5578590821
5578596497
5578601563
5578607911
5578613404
5578619935
5578625122
5578632019
5578638123
5578643921
5578649353
5578654541
5578661072
5578666077
5578670838
5578675965
5578683960
5578689209
5578694397
5578699768
5578705750
5578710633
5578716309
5578723999
5578730652
5578735962
5578741272
5578747681
5578754273
5578759949
5578765625
5578770752
5578777283
5578798462
5578803589
5578810608
5578815735
5578822632
5578828552
5578834289
5578841003
5578847656
5578852417
5578859009
5578864380
5578871338
5578876831
5578883728
5578888977
5578894653
5578899963
5578904846
5578911743
5578916504
5578923828
5578929626
5578934570
5578939697
5578946838
5578952514
5578957580
5578963256
5578969360
5578974731
5578979370
5578985656
5578990295
5578994811
5579000122
5579008422
5579013427
5579018737
5579025634
5579030395
5579035156
5579041381
5579048156
5579053527
5579059020
5579064147
5579068847
5579076415
5579082580
5579086608
5579092101
5579097961
5579103637
5579110351
5579115478
5579123412
5579128295
5579134521
5579140868
5579146422
5579151488
5579156798
5579162292
5579168456
5579173827
5579178893
5579184813
5579190490
5579196105
5579202697
5579209166
5579214232
5579220824
5579225646
5579230956
5579238158
5579242736
5579249816
5579255004
5579260253
5579266295
5579271483
5579276305
5579281066
5579286315
5579309386
5579315734
5579321654
5579327391
5579336546
5579342711
5579348143
5579354430
5579360472
5579367308
5579372740
5579379271
5579386412
5579392455
5579398619
5579405821
5579410704
5579417784
5579423399
5579428465
5579435301
5579440794
5579447264
5579455076
5579459959
5579466612
5579471617
5579478514
5579484495
5579492003
5579498411
5579504088
5579509275
5579516417
5579521544
5579529600
5579536253
5579541502
5579545896
5579553221
5579559812
5579565672
5579572081
5579577146
5579583494
5579588255
5579593870
5579599729
5579606016
5579612303
5579616819
5579623655
5579629087
5579634336
5579638792
5579645139
5579650449
5579657224
5579662840
5579668028
5579673154
5579679380
5579684934
5579690794
5579697752
5579702634
5579708433
5579713315
5579720273
5579725400
5579732847
5579740049
5579745725
5579754087
5579759214
5579765439
5579772031
5579778989
5579785398
5579789975
5579796628
5579802243
5579811155
5579816953
5579825498
5579831540
5579837827
5579844358
5579849363
5579856321
5579860898
5579868650
5579875669
5579881101
5579886838
5579891782
5579897641
5579904843
5579910459
5579917172
5579921689
5579928281
5579933774
5579938535
5579944272
5579950009
5579956601
5579961118
5579967831
5579973630
5579979306
5579985165
5579991269
5579996152
5580001584
5580006894
5580012082
5580017636
5580024106
5580028378
5580035519
5580042172
5580047238
5580052121
5580058835
5580063656
5580069272
5580076657
5580081845
5580087277
5580093258
5580098568
5580103634
5580109372
5580113522
5580120602
5580126583
5580131649
5580137570
5580142392
5580147518
5580152340
5580157711
5580164364
5580169613
5580175167
5580180355
5580184872
5580191342
5580195614
5580202450
5580207455
5580213070
5580218136
5580224911
5580229916
5580236691
5580242245
5580247677
5580255062
5580261166
5580266659
5580272579
5580279293
5580284847
5580291622
5580297359
5580304745
5580310299
5580315304
5580322079
5580328121
5580334896
5580342586
5580348812
5580356930
5580363033
5580369686
5580376827
5580382564
5580389522
5580395015
5580400753
5580406551
5580412227
5580419063
5580424678
5580431575
5580435909
5580443050
5580448726
5580453731
5580460689
5580465572
5580471492
5580478267
5580483455
5580490657
5580496089
5580501766
5580507137
5580513057
5580520259
5580527034
5580533443
5580538997
5580544002
5580550655
5580556270
5580564082
5580568843
5580577510
5580583064
5580589839
5580596980
5580615596
5580622554
5580627925
5580634273
5580639888
5580646419
5580652461
5580658198
5580665461
5580670466
5580675532
5580681636
5580688594
5580693599
5580701106
5580708552
5580715205
5580722346
5580729121
5580734004
5580741572
5580746577
5580753535
5580758845
5580764155
5580770747
5580776179
5580782038
5580789057
5580795649
5580800593
5580806819
5580811762
5580817683
5580824641
5580829646
5580836848
5580842402
5580848750
5580854121
5580859431
5580865046
5580871882
5580878230
5580884150
5580890437
5580896662
5580902399
5580908747
5580915827
5580924311
5580933283
5580940302
5580946100
5580952204
5580959284
5580965265
5580970820
5580976801
5580984125
5580989679
5580994989
5580999750
5581006891
5581012384
5581018915
5581024347
5581029657
5581035150
5581041254
5581046747
5581052118
5581059748
5581064447
5581071161
5581077021
5581083734
5581089350
5581096430
5581101984
5581108087
5581113764
5581120050
5581126032
5581131220
5581137384
5581143854
5581151788
5581156854
5581162836
5581170160
5581175714
5581181512
5581188592
5581193597
5581200372
5581205621
5581210626
5581217950
5581223932
5581229425
5581235712
5581241022
5581247369
5581253717
5581258966
5581265191
5581271539
5581277948
5581284478
5581289117
5581295648
5581301019
5581306939
5581312494
5581319146
5581324823
5581331720
5581337213
5581341912
5581348321
5581353936
5581361749
5581367181
5581371820
5581378961
5581384149
5581388909
5581396050
5581402764
5581408257
5581413751
5581420403
5581425713
5581430596
5581437920
5581458733
5581467706
5581473016
5581479180
5581486077
5581491814
5581496453
5581502557
5581509087
5581514275
5581520928
5581526177
5581531731
5581539422
5581545098
5581552056
5581557732
5581563958
5581569329
5581574456
5581582146
5581587883
5581593010
5581600823
5581605706
5581612358
5581618584
5581623772
5581629204
5581634575
5581640313
5581647637
5581653069
5581658745
5581665642
5581670281
5581676750
5581683098
5581690361
5581695793
5581701225
5581707878
5581713921
5581719231
5581725517
5581732048
5581736687
5581744438
5581749687
5581754448
5581761284
5581765678
5581773125
5581778923
5581785454
5581792229
5581798515
5581803947
5581809441
5581817070
5581823662
5581829277
5581834648
5581841667
5581846977
5581853447
5581859794
5581866386
5581871086
5581878593
5581883537
5581890129
5581896110
5581901603
5581906852
5581913810
5581920890
5581926811
5581932060
5581937431
5581944267
5581949394
5581956169
5581962150
5581968193
5581974540
5581981315
5581989738
5581997001
5582003227
5582008842
5582015800
5582021171
5582027824
5582033317
5582038322
5582044364
5582051078
5582057853
5582062980
5582068107
5582075492
5582081657
5582088370
5582093803
5582099052
5582105949
5582111686
5582118217
5582123160
5582130668
5582137809
5582142692
5582149589
5582153617
5582160331
5582166129
5582172782
5582179740
5582185660
5582190970
5582196586
5582202201
5582208243
5582213370
5582221976
5582227408
5582234122
5582238944
5582246085
5582251029
5582258597
5582264334
5582270804
5582277945
5582283316
5582288809
5582294608
5582301383
5582307242
5582312430
5582319449
5582324515
5582330130
5582337088
5582341971
5582348441
5582353812
5582360342
5582365775
5582371756
5582377371
5582384573
5582389883
5582396109
5582401236
5582407156
5582411917
5582420401
5582426016
5582431265
5582436575
5582439444
5582445120
5582450491
5582454519
5582459463
5582464834
5582468619
5582473562
5582477285
5582483023
5582487539
5582492788
5582497610
5582501822
5582506399
5582513113
5582519155
5582524527
5582529348
5582533865
5582538565
5582544241
5582548330
5582552969
5582558462
5582563345
5582568350
5582573049
5582576711
5582581533
5582584890
5582589102
5582594534
5582598745
5582603445
5582608999
5582613760
5582617910
5582622671
5582626760
5582631399
5582635427
5582640371
5582643850
5582648489
5582653982
5582657827
5582662344
5582666311
5582670827
5582675100
5582681203
5582685476
5582689321
5582693777
5582698354
5582702627
5582708303
5582713552
5582717946
5582722829
5582727041
5582731985
5582736257
5582740713
5582746084
5582751333
5582756093
5582761403
5582766652
5582772085
5582776723
5582781911
5582786550
5582792714
5582796376
5582800771
5582804921
5582809743
5582814077
5582818410
5582823293
5582828115
5582831960
5582836354
5582840383
5582844716
5582848744
5582853200
5582858022
5582863637
5582868886
5582873952
5582879323
5582883718
5582887502
5582893361
5582898549
5582903554
5582907155
5582912709
5582917470
5582922597
5582927297
5582933583
5582936757
5582943349
5582948232
5582950917
5582956471
5582961049
5582966725
5582972523
5582978383
5582984975
5582992177
5582997670
5583002064
5583006825
5583010304
5583015309
5583020131
5583024342
5583030751
5583035328
5583039601
5583043873
5583049305
5583054066
5583059193
5583063466
5583069508
5583074330
5583078541
5583083485
5583088307
5583091908
5583097096
5583103444
5583110402
5583114003
5583121144
5583124440
5583129017
5583134144
5583141957
5583147206
5583149830
5583155628
5583160633
5583167591
5583174000
5583181812
5583186634
5583191761
5583197315
5583201832
5583206349
5583211231
5583216969
5583223011
5583228931
5583234547
5583239857
5583244434
5583248951
5583252735
5583257496
5583263966
5583269276
5583274891
5583280018
5583284595
5583288746
5583293812
5583298328
5583303211
5583310047
5583315418
5583320667
5583325733
5583329700
5583334156
5583338550
5583343738
5583354480
5583360157
5583365589
5583371204
5583376209
5583381885
5583386951
5583392749
5583397876
5583403980
5583409961
5583415271
5583420154
5583426014
5583431201
5583438098
5583443653
5583447376
5583454578
5583458606
5583465808
5583470752
5583474109
5583482837
5583489490
5583510852
5583516712
5583522510
5583527515
5583532031
5583537830
5583542163
5583547595
5583553760
5583558704
5583563892
5583568957
5583574145
5583579517
5583582080
5583589709
5583595386
5583600513
5583605395
5583610766
5583615893
5583621753
5583627429
5583630603
5583637256
5583640368
5583645862
5583650683
5583656115
5583661792
5583666491
5583671435
5583675525
5583680102
5583685778
5583691150
5583694201
5583700915
5583707324
5583715319
5583720935
5583728015
5583733874
5583738879
5583745043
5583750720
5583757250
5583762316
5583768054
5583774157
5583781664
5583787707
5583792224
5583796801
5583801989
5583806994
5583812609
5583817431
5583823962
5583829638
5583834704
5583840929
5583846789
5583852648
5583857958
5583863573
5583868761
5583873949
5583880541
5583886523
5583891650
5583897021
5583901659
5583908251
5583913805
5583918627
5583925341
5583931444
5583937304
5583941759
5583948717
5583953661
5583960070
5583966662
5583971178
5583977160
5583981127
5583987719
5583992052
5583999315
5584002733
5584008776
5584014208
5584021227
5584027025
5584032885
5584038439
5584044603
5584055223
5584064073
5584072191
5584079149
5584084764
5584090318
5584095323
5584100084
5584104906
5584110094
5584114916
5584120958
5584125719
5584130541
5584136339
5584141222
5584145677
5584154100
5584159715
5584164415
5584169969
5584175584
5584180955
5584186876
5584192918
5584198228
5584203477
5584209154
5584214830
5584219774
5584225084
5584230211
5584235155
5584242479
5584248216
5584254319
5584260789
5584266710
5584270738
5584276231
5584282090
5584288560
5584294481
5584300523
5584305955
5584311265
5584316392
5584322435
5584327439
5584332444
5584338426
5584344895
5584349595
5584355332
5584360337
5584366014
5584372666
5584376878
5584383897
5584391282
5584396165
5584402024
5584407029
5584412583
5584418626
5584423325
5584430100
5584436509
5584442185
5584446824
5584453172
5584457505
5584463792
5584468003
5584474839
5584482774
5584485764
5584491685
5584498032
5584503220
5584508225
5584513779
5584518845
5584526414
5584530991
5584536057
5584541062
5584546006
5584550339
5584557297
5584564927
5584569870
5584574631
5584579758
5584585923
5584592270
5584597153
5584603073
5584626267
5584630783
5584636948
5584641953
5584647446
5584651718
5584655564
5584660507
5584664292
5584668625
5584675095
5584680649
5584685532
5584689377
5584693955
5584698105
5584705185
5584710190
5584716782
5584721726
5584726486
5584731186
5584735886
5584741135
5584747360
5584752060
5584756760
5584762436
5584769150
5584773727
5584779648
5584784592
5584791855
5584797958
5584803085
5584807541
5584813339
5584817917
5584823349
5584828598
5584835006
5584840255
5584845749
5584850815
5584856918
5584863632
5584869308
5584874557
5584881698
5584886154
5584891342
5584896652
5584901840
5584906723
5584913253
5584918319
5584925033
5584929977
5584936141
5584941879
5584947128
5584954391
5584959701
5584967330
5584973739
5584979476
5584985519
5584991622
5584996383
5585001937
5585008163
5585013107
5585019882
5585025863
5585031295
5585036849
5585042587
5585048324
5585053268
5585058944
5585065902
5585072616
5585079085
5585085433
5585092269
5585098434
5585105453
5585111190
5585117904
5585122481
5585128829
5585136825
5585146102
5585154097
5585162459
5585169906
5585175887
5585179000
5585186385
5585191878
5585198897
5585204940
5585211715
5585216597
5585222457
5585227706
5585234847
5585240523
5585244918
5585252852
5585258589
5585264083
5585270064
5585275679
5585280867
5585286727
5585291731
5585299910
5585305098
5585310957
5585316695
5585322493
5585328230
5585334151
5585339583
5585345503
5585351851
5585356856
5585362959
5585368269
5585374739
5585379500
5585384627
5585391829
5585398543
5585406050
5585412031
5585418074
5585424116
5585429060
5585435164
5585441267
5585447432
5585452559
5585458174
5585464216
5585468062
5585474348
5585478437
5585485579
5585491987
5585497847
5585503340
5585506391
5585512739
5585518049
5585524885
5585530867
5585535993
5585541120
5585545759
5585553266
5585557661
5585563276
5585568342
5585576765
5585583174
5585588484
5585592756
5585598371
5585604047
5585610090
5585615339
5585622297
5585628523
5585634504
5585639997
5585645979
5585650617
5585655622
5585661970
5585668012
5585674665
5585681501
5585685407
5585693769
5585701398
5585709943
5585715497
5585724103
5585734174
5585742170
5585751996
5585761762
5585769696
5585782453
5585789655
5585800946
5585808454
5585814435
5585823224
5585829694
5585838300
5585844831
5585854047
5585859601
5585867475
5585875409
5585882733
5585892377
5585899457
5585906171
5585914349
5585920026
5585926129
5585932233
5585939923
5585946698
5585955731
5585960492
5585972089
5585979779
5585985150
5585994122
5586002789
5586008099
5586015668
5586022503
5586034161
5586043255
5586048810
5586056622
5586065716
5586072247
5586080365
5586087628
5586095501
5586104718
5586110943
5586121624
5586129864
5586136212
5586145794
5586151654
5586159283
5586166302
5586177105
5586186688
5586192425
5586199261
5586206585
5586214397
5586220623
5586230022
5586238873
5586248211
5586256573
5586262310
5586270061
5586277386
5586283184
5586289898
5586296367
5586301433
5586308330
5586314800
5586320049
5586324566
5586331768
5586336284
5586341900
5586347820
5586355144
5586361004
5586367351
5586374492
5586380596
5586386028
5586390239
5586395916
5586402263
5586408489
5586414348
5586420452
5586426189
5586431621
5586437175
5586441875
5586447734
5586452556
5586460735
5586465801
5586471599
5586478801
5586483745
5586489238
5586495647
5586502239
5586508586
5586513835
5586520976
5586526103
5586531047
5586536418
5586543315
5586557292
5586567363
5586584636
5586594890
5586604594
5586610332
5586615153
5586619853
5586626506
5586632670
5586638469
5586642802
5586648112
5586653422
5586659343
5586664897
5586670817
5586676555
5586681865
5586687907
5586693034
5586698710
5586704203
5586708598
5586715800
5586722575
5586727946
5586732402
5586737773
5586742777
5586747843
5586753276
5586759135
5586763590
5586770976
5586775736
5586781291
5586786051
5586791056
5586796244
5586803690
5586810587
5586814921
5586820536
5586825663
5586829996
5586834574
5586839213
5586847697
5586853800
5586859415
5586864725
5586869730
5586872721
5586878886
5586883463
5586889323
5586896525
5586902262
5586907206
5586911722
5586916300
5586921671
5586926432
5586933024
5586939676
5586946940
5586949991
5586955790
5586960733
5586966837
5586971415
5586977640
5586982401
5586988199
5586993509
5586999308
5587005228
5587009684
5587014444
5587020670
5587026651
5587032877
5587037943
5587042948
5587047952
5587053446
5587058939
5587064066
5587070047
5587077188
5587082437
5587086588
5587091531
5587097574
5587103006
5587108621
5587114664
5587120523
5587125955
5587134622
5587141153
5587149454
5587157693
5587165323
5587171182
5587175821
5587182657
5587186258
5587193948
5587196817
5587204263
5587210000
5587215616
5587218362
5587225015
5587230142
5587235513
5587243203
5587248452
5587254434
5587259317
5587263467
5587268472
5587272989
5587278360
5587284280
5587293679
5587299783
5587305276
5587312295
5587318582
5587323587
5587328164
5587332803
5587336221
5587343484
5587349832
5587355752
5587361062
5587365151
5587370889
5587375405
5587381143
5587387368
5587392434
5587396706
5587401284
5587405679
5587410378
5587415566
5587423623
5587428750
5587433877
5587438454
5587444680
5587452065
5587458108
5587462807
5587470681
5587478127
5587483925
5587488442
5587494240
5587500161
5587506203
5587509438
5587517129
5587524087
5587528176
5587534218
5587539956
5587546059
5587552895
5587558449
5587562722
5587569802
5587576455
5587581032
5587587319
5587593239
5587598244
5587603127
5587608986
5587615822
5587619789
5587626930
5587632485
5587637673
5587643959
5587650673
5587655190
5587660805
5587668007
5587674599
5587681252
5587686562
5587690346
5587697670
5587701576
5587708717
5587716774
5587724525
5587732582
5587738258
5587744057
5587749733
5587754982
5587760597
5587765419
5587775123
5587779213
5587785499
5587791908
5587797767
5587803322
5587808021
5587813148
5587818825
5587823951
5587829323
5587834205
5587839882
5587845131
5587849220
5587856422
5587862465
5587868690
5587874305
5587878395
5587884925
5587890480
5587897560
5587903114
5587907753
5587914039
5587919044
5587924720
5587930335
5587937171
5587941810
5587948280
5587954811
5587960182
5587966773
5587971717
5587978675
5587984290
5587988563
5587994117
5587999061
5588009071
5588015113
5588020911
5588027137
5588033363
5588037330
5588044959
5588049354
5588056434
5588061256
5588067786
5588073829
5588079993
5588085975
5588091651
5588097571
5588104957
5588111426
5588117042
5588122596
5588127784
5588131568
5588138465
5588141761
5588148902
5588153479
5588158912
5588164466
5588170264
5588176551
5588181922
5588189917
5588196509
5588203650
5588206763
5588215125
5588221594
5588225318
5588232154
5588239539
5588244849
5588251502
5588254370
5588261023
5588267066
5588273047
5588280310
5588285071
5588292822
5588299597
5588303687
5588312903
5588321143
5588330237
5588336523
5588341833
5588349707
5588355322
5588361609
5588365698
5588372717
5588377356
5588382849
5588388281
5588394812
5588400061
5588405371
5588410498
5588416601
5588422827
5588429113
5588434240
5588440039
5588445532
5588451513
5588457068
5588462317
5588468603
5588473913
5588479834
5588484655
5588491308
5588497168
5588503271
5588507971
5588514135
5588521337
5588525366
5588530920
5588536230
5588542211
5588548193
5588553503
5588557592
5588563757
5588568945
5588576757
5588581213
5588588110
5588593237
5588597509
5588604833
5588610815
5588616918
5588622717
5588627416
5588637975
5588642431
5588648839
5588655309
5588659887
5588665807
5588670995
5588678136
5588682592
5588689367
5588694738
5588701208
5588706457
5588711706
5588718480
5588724950
5588729955
5588736547
5588741491
5588748204
5588754491
5588758947
5588765844
5588771764
5588774999
5588783422
5588788304
5588794652
5588801122
5588805089
5588810460
5588817113
5588823644
5588828771
5588834935
5588839208
5588845983
5588852452
5588858312
5588862340
5588869298
5588876012
5588881383
5588887853
5588894688
5588900975
5588906712
5588913426
5588919225
5588926732
5588931798
5588939610
5588947301
5588955174
5588961583
5588968602
5588974461
5588978062
5588983311
5588988499
5588995885
5589002354
5589005284
5589011937
5589017918
5589023839
5589028721
5589035008
5589042576
5589047459
5589052525
5589059178
5589064183
5589070225
5589075657
5589082127
5589087559
5589093113
5589099278
5589105259
5589111485
5589117649
5589123997
5589128941
5589135838
5589142552
5589148960
5589154270
5589159886
5589165318
5589171299
5589176792
5589182957
5589186497
5589193394
5589200840
5589204380
5589211643
5589215305
5589222691
5589229832
5589235447
5589241367
5589246616
5589252720
5589257725
5589264011
5589270176
5589277378
5589283115
5589287571
5589293125
5589298862
5589303745
5589309726
5589315952
5589323154
5589327976
5589333286
5589338047
5589342991
5589348179
5589354160
5589360019
5589367160
5589371555
5589378147
5589383518
5589391758
5589395725
5589403110
5589406772
5589412754
5589417758
5589423374
5589428501
5589434238
5589438632
5589445041
5589451816
5589459079
5589464328
5589470676
5589476169
5589482089
5589487460
5589493930
5589499484
5589506259
5589512302
5589518771
5589526157
5589534335
5589540500
5589548068
5589554782
5589562533
5589567905
5589574069
5589578586
5589584750
5589589999
5589595126
5589601840
5589605929
5589613254
5589617160
5589624240
5589629855
5589635653
5589641574
5589647128
5589652316
5589659213
5589664889
5589671115
5589676059
5589682894
5589688143
5589694552
5589701144
5589705477
5589713046
5589718661
5589724581
5589728915
5589734347
5589740267
5589745944
5589751803
5589758517
5589763278
5589769137
5589774935
5589781405
5589786166
5589792147
5589798068
5589805514
5589813998
5589821078
5589826327
5589832491
5589838412
5589845003
5589848238
5589856600
5589862215
5589869051
5589873690
5589881014
5589886324
5589890536
5589898470
5589904085
5589912264
5589917635
5589923678
5589930025
5589935213
5589941317
5589948092
5589951387
5589959444
5589965303
5589972811
5589977022
5589984285
5589989962
5589995272
5590003450
5590008455
5590014803
5590021517
5590026460
5590032259
5590038484
5590045442
5590052034
5590057466
5590063081
5590068453
5590075105
5590081270
5590086519
5590092622
5590099214
5590104585
5590110384
5590118929
5590123872
5590130342
5590135469
5590141267
5590146944
5590153657
5590159761
5590168245
5590175203
5590181123
5590189363
5590198335
5590205598
5590211519
5590217378
5590222200
5590228120
5590234529
5590241365
5590246431
5590251985
5590260835
5590268586
5590276155
5590282258
5590288240
5590294831
5590300569
5590306733
5590313386
5590318635
5590324861
5590332063
5590337495
5590344270
5590350862
5590355683
5590361115
5590367341
5590373689
5590379365
5590386628
5590393281
5590399262
5590405000
5590410310
5590417146
5590422028
5590428315
5590433747
5590439606
5590445649
5590451203
5590456513
5590462006
5590470124
5590475190
5590481415
5590486725
5590493622
5590499848
5590504548
5590511445
5590515656
5590523041
5590528534
5590534455
5590541352
5590547089
5590552765
5590558381
5590563568
5590570282
5590576935
5590582123
5590587372
5590593537
5590600922
5590605133
5590612396
5590617890
5590624115
5590629975
5590635468
5590642609
5590650238
5590655182
5590658783
5590664948
5590670868
5590678253
5590682098
5590689301
5590696442
5590701202
5590707123
5590713409
5590718842
5590724823
5590730682
5590735870
5590741974
5590747650
5590753509
5590760589
5590764862
5590772674
5590778656
5590784759
5590790863
5590798004
5590803619
5590811065
5590817047
5590824737
5590832306
5590840973
5590845428
5590856475
5590861847
5590868927
5590873870
5590879791
5590885467
5590891754
5590896820
5590901336
5590910247
5590915618
5590920257
5590924835
5590931671
5590936553
5590942047
5590948455
5590955047
5590959625
5590965606
5590971038
5590976592
5590981597
5590987640
5590993560
5590997771
5591005645
5591011626
5591017181
5591021148
5591026275
5591033355
5591038299
5591044402
5591051299
5591058440
5591063994
5591069304
5591075347
5591081206
5591086761
5591091338
5591099029
5591103850
5591109893
5591116301
5591120391
5591126555
5591132110
5591137481
5591143889
5591149993
5591153960
5591161040
5591164641
5591171416
5591176726
5591181670
5591188750
5591196013
5591200530
5591206511
5591211760
5591217253
5591224333
5591228789
5591234587
5591241606
5591247832
5591253752
5591259673
5591266081
5591272185
5591278716
5591284880
5591293608
5591300078
5591304289
5591309782
5591315825
5591322050
5591326628
5591334318
5591338408
5591343840
5591350493
5591355925
5591362700
5591366728
5591375334
5591382963
5591387541
5591393522
5591399687
5591408415
5591415739
5591423369
5591430998
5591437651
5591443815
5591450529
5591458158
5591465544
5591473783
5591479216
5591483976
5591489408
5591494169
5591499723
5591505216
5591510771
5591516569
5591522734
5591527372
5591532865
5591537565
5591544340
5591550993
5591555814
5591561979
5591566068
5591571989
5591575529
5591583158
5591587980
5591595365
5591598844
5591605375
5591609159
5591616788
5591623014
5591627042
5591634244
5591639371
5591643949
5591650968
5591655363
5591662809
5591668790
5591674711
5591679166
5591685819
5591691129
5591697965
5591704252
5591710172
5591714628
5591719877
5591726224
5591731839
5591737333
5591743070
5591749051
5591754056
5591760404
5591765775
5591772245
5591776700
5591783170
5591788541
5591795133
5591800748
5591806607
5591812894
5591819791
5591825162
5591829679
5591835965
5591842801
5591846158
5591853848
5591857083
5591864652
5591870450
5591875028
5591883145
5591889066
5591895169
5591900113
5591907132
5591913113
5591919217
5591924954
5591929898
5591938260
5591942288
5591948086
5591955228
5591958890
5591966519
5591972500
5591980313
5591986905
5591993741
5592002347
5592010403
5592016690
5592026577
5592032193
5592041165
5592049038
5592059658
5592067898
5592074246
5592083157
5592093045
5592102261
5592113552
5592121182
5592132107
5592141934
5592151089
5592158413
5592167202
5592173550
5592178738
5592186001
5592194057
5592200893
5592208218
5592215420
5592221096
5592226589
5592231838
5592238430
5592245449
5592251430
5592257290
5592262722
5592270229
5592276577
5592281582
5592287380
5592293972
5592301052
5592306789
5592311672
5592317959
5592323513
5592330288
5592336696
5592342861
5592348964
5592355068
5592361782
5592367397
5592374599
5592381252
5592388027
5592393459
5592399684
5592406703
5592412502
5592419948
5592425624
5592432948
5592438686
5592445522
5592451381
5592455653
5592463771
5592469936
5592476894
5592483119
5592488979
5592493739
5592499904
5592505275
5592510707
5592516627
5592520656
5592529018
5592535304
5592541225
5592546413
5592552638
5592557460
5592562953
5592569118
5592576015
5592582850
5592587916
5592591884
5592598903
5592603358
5592609401
5592615748
5592622523
5592628871
5592635341
5592640651
5592646876
5592653224
5592659144
5592664698
5592672023
5592679103
5592685450
5592690394
5592696437
5592702052
5592707972
5592714259
5592720973
5592726832
5592733546
5592739161
5592745753
5592751551
5592757716
5592763758
5592772425
5592779078
5592789454
5592794947
5592802882
5592809718
5592815455
5592821253
5592828516
5592834437
5592840662
5592846583
5592852930
5592858301
5592863795
5592868616
5592874415
5592880640
5592885218
5592891749
5592897791
5592903345
5592908411
5592913904
5592921534
5592927637
5592932886
5592938746
5592943995
5592948633
5592954248
5592958094
5592966089
5592969995
5592976343
5592983667
5592988245
5592993250
5592999658
5593002771
5593010950
5593017847
5593024561
5593030664
5593036463
5593041589
5593045557
5593053552
5593057703
5593064172
5593071130
5593077966
5593083093
5593087488
5593094568
5593098352
5593105432
5593109338
5593117273
5593123559
5593127588
5593134302
5593139795
5593146936
5593152368
5593157434
5593163965
5593169519
5593176355
5593180688
5593186792
5593191675
5593196924
5593201135
5593209008
5593216394
5593221765
5593225793
5593232629
5593239038
5593243310
5593249292
5593254174
5593263452
5593269311
5593274499
5593280480
5593286279
5593292382
5593296044
5593301721
5593307824
5593315576
5593324670
5593328088
5593334802
5593341027
5593347863
5593353600
5593358910
5593365807
5593371850
5593378075
5593383263
5593387963
5593396630
5593404504
5593411278
5593416283
5593421593
5593428063
5593433617
5593439538
5593445763
5593449486
5593454369
5593461876
5593465050
5593472375
5593477807
5593484215
5593489281
5593494835
5593502526
5593509728
5593517846
5593523644
5593526696
5593535118
5593541405
5593549401
5593556176
5593562218
5593566613
5593572472
5593579064
5593584557
5593589440
5593595238
5593601647
5593608605
5593613610
5593618492
5593625206
5593630089
5593635765
5593640221
5593646019
5593652611
5593658775
5593664513
5593670128
5593675682
5593681786
5593686607
5593692223
5593697960
5593704735
5593710472
5593716515
5593722008
5593725609
5593732994
5593736717
5593741966
5593749473
5593753624
5593761131
5593765343
5593772178
5593777488
5593782921
5593788902
5593794212
5593800316
5593807151
5593812889
5593819297
5593823692
5593829734
5593835228
5593841331
5593845298
5593853050
5593858909
5593862022
5593868614
5593873985
5593880943
5593889244
5593893699
5593901145
5593905662
5593912620
5593917564
5593923118
5593928672
5593934470
5593939414
5593947471
5593953941
5593959617
5593964134
5593969260
5593975547
5593980430
5593986045
5593992393
5593998679
5594007285
5594014365
5594022483
5594029197
5594035483
5594040488
5594046653
5594051719
5594057639
5594062339
5594068137
5594073386
5594077659
5594084433
5594089377
5594095237
5594100119
5594105430
5594112082
5594116721
5594121970
5594127707
5594133200
5594140952
5594145774
5594151267
5594156150
5594161582
5594166892
5594172995
5594178061
5594187277
5594193320
5594199118
5594203940
5594209189
5594214865
5594219504
5594225180
5594230795
5594237937
5594244162
5594249838
5594255698
5594261679
5594266684
5594272177
5594277670
5594284995
5594291769
5594296225
5594305136
5594309042
5594314291
5594320273
5594325888
5594331808
5594339377
5594345114
5594350424
5594357382
5594362570
5594371359
5594378195
5594383810
5594389792
5594396689
5594401815
5594407797
5594412863
5594418966
5594424276
5594430258
5594438620
5594442404
5594450888
