5369744004
5369750657
5369755723
5369761277
5369766221
5369770982
5369775804
5369780076
5369785142
5369789720
5369794541
5369799180
5369804002
5369809251
5369812913
5369818101
5369822495
5369828599
5369833787
5369839524
5369844407
5369849656
5369853806
5369858689
5369863450
5369868028
5369872605
5369877244
5369882127
5369887986
5369892747
5369898362
5369904160
5369908921
5369915452
5369921799
5369927720
5369934128
5369940354
5369947983
5369954514
5369960251
5369966416
5369972641
5369979355
5369985215
5369993393
5370000351
5370007859
5370014512
5370021836
5370027878
5370035691
5370045395
5370051621
5370058213
5370067551
5370074082
5370080979
5370090683
5370097397
5370106247
5370113999
5370121140
5370127792
5370135300
5370142685
5370150986
5370159103
5370165817
5370173447
5370180160
5370187912
5370196213
5370204574
5370212387
5370218246
5370225754
5370232284
5370239731
5370248031
5370256820
5370267380
5370274643
5370282272
5370289108
5370296920
5370304245
5370310897
5370319015
5370326339
5370334274
5370347030
5370360336
5370374069
5370385971
5370396408
5370405502
5370414779
5370422286
5370429305
5370438216
5370444869
5370452621
5370460860
5370468734
5370476607
5370485580
5370495834
5370504134
5370513961
5370520553
5370530929
5370540511
5370549666
5370558272
5370564803
5370572555
5370584029
5370592452
5370600814
5370607650
5370616439
5370626754
5370638289
5370646285
5370652877
5370660201
5370669600
5370675460
5370683882
5370693160
5370699935
5370707015
5370716902
5370725081
5370733565
5370740035
5370749861
5370757246
5370765547
5370773482
5370781294
5370790205
5370796492
5370803450
5370811568
5370817671
5370826704
5370833784
5370841353
5370848067
5370855757
5370863569
5370868818
5370877852
5370884260
5370892439
5370898726
5370907393
5370915083
5370922773
5370929609
5370935652
5370943464
5370952619
5370958113
5370967512
5370978315
5370986250
5370992719
5371001570
5371009748
5371018232
5371026350
5371033735
5371041670
5371050336
5371060651
5371067548
5371075666
5371083417
5371089582
5371097456
5371103132
5371112348
5371119001
5371126691
5371134260
5371140485
5371148298
5371154645
5371166242
5371172956
5371179059
5371186139
5371193586
5371200299
5371206098
5371215680
5371224164
5371230390
5371238019
5371244367
5371252484
5371258039
5371268537
5371276044
5371283917
5371289777
5371297528
5371304669
5371313764
5371322369
5371329144
5371337445
5371345075
5371352887
5371359052
5371367902
5371376752
5371384564
5371392071
5371400006
5371409344
5371417401
5371428082
5371436505
5371442853
5371449933
5371459210
5371466595
5371472149
5371480267
5371488873
5371495099
5371501995
5371509930
5371517376
5371522747
5371530621
5371540997
5371548626
5371554852
5371562237
5371570233
5371575482
5371584088
5371593243
5371601360
5371608196
5371615643
5371624554
5371631207
5371638226
5371647808
5371656780
5371663006
5371673504
5371680889
5371690472
5371697613
5371706890
5371716411
5371724834
5371731609
5371739239
5371746624
5371754009
5371763103
5371770122
5371777385
5371784710
5371791607
5371798687
5371806682
5371815044
5371822673
5371828411
5371837017
5371844341
5371851604
5371858440
5371866741
5371875652
5371883464
5371888042
5371899089
5371905498
5371916179
5371924297
5371930888
5371939128
5371945781
5371953410
5371959819
5371968547
5371976482
5371983256
5371990031
5371997905
5372006694
5372013957
5372022441
5372030192
5372038005
5372045268
5372053325
5372059550
5372067973
5372072856
5372081767
5372088603
5372098185
5372107646
5372115214
5372122294
5372129679
5372137126
5372144328
5372153788
5372163554
5372170268
5372178691
5372186076
5372193522
5372198771
5372204447
5372209452
5372216898
5372222758
5372228129
5372234538
5372240214
5372246622
5372253092
5372258036
5372263346
5372270365
5372275553
5372284037
5372289164
5372295756
5372300944
5372306498
5372312845
5372317850
5372324869
5372330973
5372339762
5372347086
5372352396
5372358439
5372365152
5372372416
5372377848
5372384806
5372389933
5372394877
5372400553
5372406717
5372411356
5372418131
5372423929
5372429239
5372433634
5372440103
5372445047
5372450235
5372456644
5372461527
5372467813
5372473673
5372476969
5372484720
5372490457
5372496927
5372500345
5372506204
5372511881
5372518900
5372524820
5372530801
5372536111
5372542947
5372549783
5372555704
5372562540
5372569131
5372574014
5372580118
5372585367
5372591959
5372596841
5372602762
5372609353
5372615457
5372620096
5372626443
5372633462
5372638650
5372643777
5372648843
5372655923
5372662027
5372667093
5372673806
5372678933
5372685342
5372690713
5372695962
5372702798
5372708108
5372714212
5372718484
5372725137
5372731057
5372736673
5372741860
5372749307
5372754373
5372760842
5372766519
5372771890
5372777078
5372783792
5372789163
5372795327
5372801431
5372806252
5372812661
5372818459
5372823769
5372830605
5372837930
5372844521
5372855080
5372859719
5372867348
5372872903
5372879678
5372886086
5372892007
5372897622
5372904275
5372909157
5372914284
5372921242
5372927163
5372932656
5372939675
5372945351
5372951088
5372955849
5372961464
5372966774
5372972023
5372977211
5372983315
5372989113
5372993264
5372999672
5373004982
5373011391
5373016213
5373022194
5373027932
5373034279
5373038918
5373043923
5373050698
5373055886
5373061501
5373067665
5373073281
5373079140
5373084816
5373090553
5373097328
5373102699
5373107887
5373115334
5373120583
5373125526
5373130714
5373137917
5373143532
5373149025
5373154030
5373159035
5373166664
5373171425
5373177223
5373184242
5373189308
5373195167
5373201088
5373207558
5373211769
5373216896
5373225014
5373230629
5373234840
5373240211
5373244789
5373251869
5373257789
5373263649
5373271278
5373276893
5373282814
5373288063
5373295631
5373300941
5373307106
5373312721
5373318580
5373324623
5373330665
5373335609
5373341285
5373349464
5373355018
5373360633
5373369117
5373375282
5373381996
5373388099
5373394142
5373400367
5373406898
5373411842
5373417701
5373424232
5373430030
5373435767
5373440772
5373447120
5373452979
5373458656
5373463416
5373469642
5373476905
5373482398
5373486915
5373493079
5373498328
5373504188
5373509986
5373516273
5373521949
5373527991
5373533179
5373539161
5373543921
5373550391
5373555884
5373562171
5373567054
5373572730
5373579139
5373584876
5373590125
5373596534
5373602332
5373608069
5373612769
5373619300
5373624305
5373631263
5373636634
5373642371
5373647437
5373653601
5373660071
5373666052
5373670630
5373677283
5373681983
5373687842
5373694495
5373699072
5373706885
5373712561
5373718115
5373723059
5373728430
5373734351
5373741675
5373746680
5373751807
5373757483
5373762671
5373769324
5373774756
5373781836
5373786169
5373793310
5373798620
5373803931
5373810339
5373815710
5373821814
5373826697
5373832556
5373839636
5373845068
5373850989
5373862280
5373867773
5373874548
5373880835
5373887671
5373892920
5373898352
5373905798
5373911352
5373916479
5373921240
5373927648
5373932531
5373937841
5373944372
5373949377
5373956396
5373960790
5373967138
5373972814
5373978369
5373985693
5373990392
5373997534
5374002355
5374008703
5374013586
5374020361
5374025427
5374032018
5374036230
5374042150
5374048254
5374053686
5374060339
5374064916
5374071386
5374077611
5374082311
5374087926
5374094762
5374102453
5374108251
5374115941
5374122289
5374129003
5374135717
5374142125
5374151342
5374158666
5374166845
5374173375
5374181676
5374188573
5374195897
5374204015
5374211766
5374219640
5374225194
5374230382
5374238378
5374245275
5374250951
5374255956
5374262548
5374269994
5374274999
5374280919
5374286473
5374293370
5374299169
5374306004
5374312535
5374316930
5374325719
5374330663
5374336766
5374344273
5374352086
5374358311
5374364232
5374372288
5374379307
5374384984
5374391759
5374398289
5374405675
5374412022
5374416844
5374423558
5374428990
5374435826
5374441319
5374447667
5374452977
5374458897
5374463780
5374469578
5374477208
5374482823
5374489048
5374494542
5374500401
5374505162
5374511387
5374518162
5374524327
5374529515
5374534336
5374540379
5374546360
5374551670
5374556553
5374562718
5374569431
5374574375
5374580052
5374586155
5374591465
5374596592
5374602451
5374608067
5374613194
5374619663
5374624790
5374630894
5374636875
5374643162
5374649998
5374655003
5374661533
5374667026
5374672336
5374678745
5374685154
5374691440
5374698093
5374703098
5374709202
5374716038
5374721836
5374727939
5374733555
5374739780
5374746189
5374751011
5374757724
5374763584
5374768406
5374774021
5374779941
5374785190
5374791233
5374795383
5374802341
5374807407
5374813571
5374819614
5374825778
5374830966
5374836887
5374843051
5374850376
5374855686
5374861484
5374866672
5374873569
5374881137
5374888584
5374895603
5374902438
5374911411
5374919528
5374925082
5374930576
5374936374
5374941562
5374947604
5374952731
5374959201
5374965915
5374972324
5374977023
5374983737
5374989596
5374996676
5375002414
5375008578
5375014987
5375020724
5375026950
5375032504
5375038485
5375043857
5375050692
5375055941
5375061190
5375066989
5375072238
5375076693
5375083590
5375089450
5375095004
5375099887
5375105624
5375111666
5375116061
5375122287
5375127536
5375133517
5375139437
5375144564
5375150302
5375156405
5375161227
5375167025
5375171969
5375177218
5375182406
5375189913
5375194064
5375200350
5375207125
5375212069
5375217318
5375222933
5375229952
5375235384
5375240328
5375248080
5375253085
5375258334
5375263277
5375267977
5375274447
5375278963
5375285982
5375292391
5375298372
5375303499
5375308748
5375314242
5375319552
5375324495
5375331698
5375337130
5375341585
5375347933
5375353060
5375358187
5375363924
5375370333
5375378511
5375386690
5375391939
5375399507
5375405733
5375412264
5375416841
5375426729
5375433077
5375437776
5375443636
5375449556
5375456087
5375461946
5375468111
5375474214
5375479097
5375485201
5375491976
5375498384
5375502840
5375509615
5375514436
5375521394
5375525606
5375532320
5375538362
5375543733
5375550569
5375555147
5375561677
5375568391
5375576448
5375580842
5375587373
5375593599
5375598482
5375604585
5375610872
5375616853
5375621431
5375628572
5375633027
5375639375
5375645906
5375652192
5375657930
5375664277
5375671052
5375676057
5375682100
5375689546
5375695344
5375700837
5375707612
5375712190
5375718537
5375724275
5375730012
5375736054
5375742829
5375747651
5375753572
5375758698
5375763581
5375770478
5375776582
5375781892
5375788117
5375794953
5375800446
5375805329
5375811066
5375817109
5375823273
5375828645
5375834260
5375841279
5375847077
5375852204
5375858247
5375864594
5375869294
5375876313
5375884064
5375890656
5375897919
5375907929
5375914643
5375922150
5375933198
5375940888
5375947052
5375952240
5375957184
5375964753
5375970185
5375974579
5375981781
5375988190
5375993622
5375998932
5376005341
5376009980
5376015778
5376022431
5376027497
5376032990
5376038300
5376044403
5376050934
5376056183
5376060822
5376066986
5376073822
5376078949
5376084442
5376089691
5376096100
5376101471
5376107819
5376113861
5376120087
5376125275
5376130524
5376137543
5376142731
5376148407
5376154144
5376160248
5376165314
5376170013
5376175201
5376182526
5376188751
5376193451
5376200592
5376205841
5376211273
5376216766
5376223114
5376228119
5376233612
5376240570
5376245392
5376250152
5376257049
5376264312
5376270050
5376275055
5376280120
5376286956
5376294159
5376299957
5376305877
5376310943
5376316741
5376323150
5376329498
5376336029
5376342864
5376348968
5376356780
5376362335
5376369109
5376373809
5376379546
5376386199
5376391326
5376399566
5376405608
5376412566
5376419097
5376426299
5376434356
5376441497
5376447601
5376454803
5376462371
5376466277
5376472808
5376477935
5376484710
5376492461
5376498015
5376504851
5376509917
5376515288
5376522368
5376525908
5376533111
5376540252
5376545623
5376550506
5376556548
5376561431
5376568389
5376573394
5376578399
5376584380
5376590850
5376595671
5376601409
5376605742
5376611785
5376617766
5376624297
5376629485
5376635039
5376639800
5376646147
5376651885
5376656462
5376662871
5376668547
5376674407
5376679656
5376685698
5376690886
5376696928
5376704009
5376709074
5376715056
5376720061
5376725188
5376732939
5376740569
5376745695
5376750700
5376757048
5376762114
5376767363
5376772124
5376779997
5376787077
5376792082
5376799528
5376806364
5376812712
5376820463
5376826384
5376832609
5376837919
5376843168
5376847746
5376855131
5376862822
5376867765
5376872831
5376879972
5376883879
5376890104
5376895353
5376901884
5376906584
5376912931
5376919340
5376923735
5376931913
5376940275
5376949369
5376957670
5376967619
5376973356
5376979582
5376987638
5376993437
5376999235
5377004484
5377010831
5377015592
5377020780
5377027921
5377033048
5377039274
5377046110
5377051237
5377056852
5377062101
5377068876
5377074064
5377080228
5377086271
5377091215
5377096525
5377102750
5377109342
5377114408
5377119840
5377125760
5377132352
5377137418
5377143644
5377149137
5377155729
5377160306
5377166715
5377171048
5377176297
5377182828
5377189298
5377195829
5377200345
5377206754
5377211820
5377218228
5377223844
5377228665
5377234159
5377240872
5377245999
5377251920
5377258328
5377263028
5377269498
5377276334
5377281156
5377286893
5377292874
5377298856
5377305020
5377310147
5377317593
5377322293
5377328397
5377334561
5377339139
5377345608
5377350674
5377356595
5377362942
5377367764
5377372769
5377377835
5377382901
5377389310
5377395657
5377402249
5377406521
5377413052
5377419766
5377425015
5377430447
5377435696
5377442532
5377449551
5377456448
5377465969
5377473111
5377481533
5377491604
5377497708
5377505032
5377510525
5377515225
5377521572
5377527127
5377531460
5377537808
5377542202
5377549710
5377553921
5377560024
5377566555
5377572353
5377577053
5377582119
5377587551
5377594448
5377601711
5377607449
5377613064
5377618252
5377624233
5377629299
5377635342
5377640652
5377649441
5377654629
5377660427
5377666592
5377672085
5377678066
5377683254
5377690578
5377696071
5377701565
5377707485
5377712124
5377718593
5377723781
5377729824
5377736232
5377740688
5377747463
5377752224
5377758510
5377763088
5377769436
5377774685
5377780788
5377786525
5377795803
5377800685
5377806362
5377812526
5377818264
5377823879
5377829982
5377834438
5377840541
5377845302
5377852992
5377858669
5377864162
5377869045
5377876125
5377881496
5377886501
5377893703
5377898525
5377904872
5377909572
5377915126
5377921413
5377926418
5377933009
5377939235
5377943507
5377949550
5377954005
5377961818
5377967738
5377976527
5377984828
5377990687
5377996730
5378002040
5378007533
5378013881
5378021754
5378027064
5378032069
5378038112
5378044764
5378049281
5378054469
5378060267
5378066798
5378071559
5378076686
5378083277
5378088099
5378094569
5378099696
5378106105
5378110804
5378115687
5378122828
5378128382
5378134242
5378139002
5378146754
5378151881
5378157069
5378163172
5378169459
5378174220
5378179591
5378186060
5378190943
5378197657
5378203700
5378208277
5378214075
5378220240
5378225733
5378231531
5378237818
5378242884
5378247645
5378254175
5378258082
5378266749
5378271998
5378277979
5378283167
5378287928
5378293421
5378299463
5378305506
5378310755
5378316736
5378321802
5378327051
5378332666
5378338587
5378344629
5378351343
5378355921
5378363001
5378366968
5378372889
5378379175
5378385462
5378392237
5378396692
5378404077
5378408838
5378413416
5378418909
5378426111
5378431726
5378436548
5378442713
5378448328
5378454004
5378459253
5378465967
5378471643
5378478723
5378484338
5378490198
5378496851
5378502771
5378510645
5378515894
5378524683
5378530542
5378536279
5378541894
5378547082
5378553369
5378560083
5378564050
5378569116
5378575891
5378579492
5378586877
5378593408
5378598230
5378603662
5378609399
5378615197
5378620385
5378625696
5378631189
5378637414
5378640893
5378648828
5378654016
5378658349
5378665246
5378670922
5378675927
5378682397
5378686486
5378693078
5378697595
5378702966
5378709558
5378716638
5378721826
5378726953
5378732141
5378737939
5378743432
5378748620
5378755090
5378760278
5378766503
5378772851
5378778100
5378783227
5378787377
5378792687
5378800866
5378806176
5378811059
5378817162
5378821801
5378827843
5378832848
5378841027
5378846154
5378851281
5378857201
5378861657
5378869103
5378873925
5378880578
5378885094
5378890099
5378896081
5378901757
5378906701
5378912499
5378918908
5378925011
5378930016
5378938805
5378944542
5378950280
5378955407
5378961266
5378967186
5378972435
5378976891
5378984154
5378989464
5378997582
5379006798
5379013451
5379020165
5379025658
5379031029
5379038292
5379045250
5379049950
5379054833
5379061607
5379067345
5379072289
5379077416
5379084740
5379091393
5379096642
5379102867
5379108055
5379112999
5379119469
5379125999
5379130699
5379136986
5379143028
5379147606
5379153343
5379158531
5379165367
5379170555
5379175865
5379180992
5379187095
5379192467
5379197899
5379203392
5379209495
5379216026
5379221885
5379228172
5379233360
5379238182
5379244957
5379250328
5379256065
5379260887
5379267356
5379272239
5379278404
5379283653
5379289085
5379299583
5379304771
5379310447
5379315635
5379322532
5379329185
5379333885
5379339561
5379344261
5379350730
5379356590
5379361045
5379369346
5379374717
5379380332
5379387595
5379392539
5379398154
5379403342
5379409995
5379415549
5379420432
5379426902
5379433066
5379437583
5379442649
5379450523
5379455039
5379461753
5379466270
5379471824
5379477683
5379484214
5379490745
5379496543
5379503745
5379509055
5379514548
5379522117
5379527671
5379534751
5379540793
5379546164
5379552146
5379559165
5379563376
5379569785
5379576682
5379582114
5379586997
5379592795
5379599021
5379604514
5379610312
5379615988
5379621115
5379628073
5379633017
5379638815
5379643698
5379650168
5379657736
5379663352
5379668723
5379674216
5379680380
5379685141
5379691245
5379697897
5379703513
5379709189
5379714438
5379719809
5379726218
5379731039
5379736166
5379742880
5379747641
5379754355
5379760458
5379765646
5379773825
5379779196
5379786337
5379791464
5379796469
5379801779
5379807882
5379814962
5379820089
5379825522
5379830893
5379836813
5379841818
5379846396
5379852621
5379857321
5379865194
5379870443
5379875265
5379880331
5379887350
5379892111
5379899008
5379903585
5379909872
5379914327
5379920248
5379926168
5379931173
5379936117
5379943014
5379948751
5379954977
5379960897
5379966085
5379971334
5379977255
5379983358
5379988607
5379994588
5380000692
5380006246
5380012106
5380017477
5380024496
5380030172
5380036642
5380043416
5380049337
5380056173
5380061361
5380069295
5380074483
5380079366
5380084737
5380091817
5380097005
5380103353
5380109517
5380115682
5380121846
5380126241
5380131490
5380138631
5380143392
5380149984
5380155111
5380160848
5380166036
5380172872
5380180196
5380186177
5380192098
5380197225
5380203694
5380209249
5380216146
5380221334
5380227132
5380232259
5380238973
5380244710
5380249227
5380255757
5380260396
5380268025
5380273152
5380279195
5380284444
5380289998
5380295247
5380301472
5380308003
5380312642
5380318806
5380325093
5380330525
5380336323
5380342366
5380347310
5380351765
5380360188
5380365254
5380370930
5380376668
5380382039
5380388386
5380393025
5380399373
5380405049
5380410725
5380416218
5380422261
5380427632
5380432209
5380440754
5380446186
5380452839
5380457783
5380464192
5380469929
5380474873
5380481465
5380486653
5380493000
5380497700
5380503681
5380507954
5380515644
5380519795
5380525410
5380533161
5380538960
5380544392
5380551594
5380557636
5380565266
5380572651
5380578510
5380583576
5380588825
5380596760
5380603474
5380608051
5380614887
5380620624
5380625812
5380632770
5380637958
5380643513
5380649006
5380654438
5380660358
5380666523
5380670795
5380677021
5380682697
5380688556
5380693683
5380699543
5380706318
5380710590
5380717365
5380721943
5380727619
5380733844
5380740009
5380745319
5380751056
5380755878
5380760700
5380766437
5380773029
5380777790
5380784626
5380790180
5380797077
5380802570
5380808307
5380814044
5380820453
5380826373
5380831195
5380836139
5380840839
5380847431
5380853900
5380860614
5380865497
5380870502
5380876361
5380882037
5380887470
5380894977
5380900226
5380906085
5380911212
5380915424
5380921832
5380926471
5380934100
5380939288
5380946368
5380951861
5380956378
5380963275
5380970172
5380977435
5380983783
5380990497
5380996051
5381001178
5381007525
5381013568
5381020465
5381024920
5381031329
5381037677
5381045123
5381051898
5381058734
5381067401
5381075335
5381082293
5381087786
5381094500
5381102130
5381109088
5381114520
5381121966
5381128436
5381133990
5381140460
5381145892
5381151995
5381157732
5381165423
5381171282
5381175982
5381183123
5381190936
5381196673
5381204729
5381209856
5381217242
5381222124
5381227007
5381235308
5381242388
5381248003
5381253985
5381260149
5381265459
5381270037
5381276568
5381282549
5381287493
5381294024
5381300310
5381304827
5381311297
5381316729
5381321489
5381327959
5381334490
5381338762
5381345293
5381350969
5381354204
5381361589
5381368120
5381373430
5381379656
5381385027
5381390703
5381397417
5381402361
5381407610
5381415117
5381422075
5381427263
5381432329
5381438432
5381443254
5381449907
5381455400
5381462602
5381467180
5381473894
5381478777
5381484331
5381490984
5381497392
5381505571
5381510210
5381516618
5381521135
5381526689
5381532793
5381539445
5381545427
5381554521
5381561479
5381568620
5381577836
5381585527
5381593828
5381601640
5381607744
5381616044
5381623979
5381633928
5381641130
5381647050
5381654191
5381660478
5381666337
5381672807
5381677873
5381684098
5381689164
5381696672
5381701615
5381708573
5381713761
5381719499
5381725785
5381732682
5381739091
5381743791
5381750077
5381755326
5381762650
5381767533
5381773209
5381779557
5381785722
5381794816
5381801041
5381807267
5381811906
5381817277
5381821915
5381828080
5381833878
5381839921
5381845536
5381850114
5381855057
5381861039
5381866105
5381873063
5381880265
5381885697
5381892350
5381899186
5381905289
5381910721
5381915787
5381923844
5381930252
5381935440
5381942459
5381949662
5381956131
5381961930
5381968033
5381973648
5381980667
5381987931
5381991471
5381999100
5382005570
5382011063
5382018204
5382023697
5382031204
5382034805
5382042862
5382050064
5382055313
5382061722
5382067276
5382073380
5382079910
5382084732
5382092972
5382098404
5382105118
5382110672
5382115677
5382122269
5382128921
5382136612
5382142959
5382149551
5382155777
5382162735
5382168167
5382175613
5382182754
5382188492
5382192703
5382199173
5382204666
5382209976
5382216873
5382221389
5382226699
5382233108
5382238601
5382243057
5382248428
5382252639
5382259964
5382265274
5382270828
5382275894
5382280288
5382285415
5382290908
5382296462
5382300674
5382307205
5382311843
5382317153
5382323867
5382329421
5382334426
5382341201
5382345901
5382351821
5382356948
5382362441
5382367446
5382371536
5382377883
5382384353
5382389602
5382394912
5382400893
5382407180
5382412185
5382418227
5382425246
5382430556
5382436599
5382442519
5382449172
5382454848
5382459487
5382466140
5382471023
5382476211
5382480605
5382485732
5382492019
5382496840
5382502883
5382508132
5382512771
5382519851
5382525771
5382531264
5382536574
5382542556
5382547560
5382553542
5382560744
5382566115
5382571669
5382576003
5382582656
5382587294
5382592543
5382599013
5382603957
5382609267
5382615431
5382619948
5382626174
5382631423
5382636061
5382642958
5382648390
5382655043
5382664931
5382674208
5382680800
5382688246
5382699171
5382705153
5382711562
5382716811
5382722304
5382727248
5382734022
5382739516
5382744032
5382750136
5382754835
5382761061
5382768019
5382772963
5382778090
5382783034
5382788099
5382794447
5382800062
5382805067
5382811415
5382816664
5382821608
5382827894
5382833754
5382839186
5382846388
5382850904
5382856703
5382861708
5382866346
5382871046
5382877638
5382883375
5382889234
5382895216
5382901686
5382907362
5382912306
5382917677
5382922315
5382929090
5382933668
5382938429
5382945081
5382950758
5382956068
5382962965
5382969007
5382974683
5382979749
5382986280
5382991346
5382995985
5383001234
5383006788
5383012403
5383018507
5383024488
5383029798
5383035169
5383041639
5383046338
5383051038
5383058240
5383063795
5383068738
5383073926
5383079542
5383084607
5383090284
5383096021
5383102674
5383107801
5383112867
5383118055
5383122632
5383127820
5383134168
5383139478
5383145887
5383151136
5383160718
5383166577
5383172315
5383180310
5383188855
5383197522
5383206128
5383212537
5383217969
5383226270
5383232922
5383238599
5383244580
5383250562
5383255444
5383261731
5383268140
5383273511
5383280530
5383286023
5383291028
5383295972
5383302624
5383309888
5383315808
5383321728
5383327283
5383333203
5383339978
5383345349
5383350110
5383355542
5383362378
5383365857
5383371716
5383377148
5383383740
5383388379
5383393017
5383400219
5383405529
5383410840
5383416699
5383423108
5383429089
5383434521
5383441784
5383445935
5383452832
5383458630
5383463269
5383470471
5383476025
5383483532
5383488476
5383493969
5383500622
5383506909
5383512890
5383519116
5383524243
5383531017
5383536938
5383541882
5383548657
5383553967
5383558605
5383564343
5383570141
5383574902
5383581432
5383586620
5383591625
5383598034
5383603466
5383608898
5383614391
5383619457
5383624584
5383629772
5383635631
5383641003
5383646190
5383651989
5383659130
5383664501
5383669628
5383676830
5383681835
5383688244
5383693493
5383699779
5383704845
5383711071
5383715831
5383727428
5383740245
5383745555
5383756542
5383766613
5383772167
5383777660
5383783519
5383788890
5383793224
5383799083
5383802989
5383810314
5383815746
5383822643
5383827403
5383833934
5383839000
5383846385
5383852306
5383858470
5383864696
5383870555
5383875621
5383880321
5383886363
5383892772
5383897899
5383902782
5383908214
5383915172
5383920787
5383925914
5383932139
5383937327
5383944163
5383949473
5383956431
5383961986
5383967479
5383972484
5383977244
5383982432
5383989024
5383994761
5384001292
5384006663
5384011485
5384018321
5384023387
5384029307
5384036021
5384041453
5384047679
5384053538
5384059031
5384065684
5384070872
5384076365
5384081919
5384113413
5384120432
5384126597
5384131602
5384138743
5384143565
5384148325
5384155100
5384160716
5384166026
5384171641
5384178355
5384183421
5384189097
5384194895
5384201060
5384206003
5384211191
5384216807
5384223276
5384233652
5384239084
5384246592
5384254282
5384260935
5384270273
5384277659
5384285227
5384289805
5384295908
5384301767
5384306101
5384312632
5384319040
5384324839
5384329660
5384334970
5384340097
5384345102
5384351206
5384358042
5384361948
5384368784
5384374521
5384380442
5384386301
5384390512
5384396128
5384401743
5384407602
5384411875
5384418039
5384424387
5384429880
5384436411
5384442636
5384448007
5384455087
5384460703
5384467111
5384474130
5384481271
5384485849
5384491281
5384498178
5384502634
5384508554
5384513132
5384519296
5384524911
5384529367
5384536020
5384542856
5384548166
5384553354
5384558969
5384568185
5384572702
5384581064
5384586007
5384591440
5384598336
5384602914
5384608224
5384614938
5384621408
5384626718
5384633065
5384638070
5384644357
5384649545
5384656381
5384662423
5384666940
5384672921
5384677865
5384685067
5384692452
5384698007
5384703378
5384709115
5384714425
5384719979
5384726998
5384731393
5384737496
5384744882
5384750131
5384758248
5384764535
5384770089
5384778634
5384783944
5384789681
5384796334
5384801949
5384807259
5384813485
5384820443
5384825326
5384832345
5384837655
5384843453
5384849557
5384856942
5384861153
5384866524
5384873238
5384879525
5384884285
5384891915
5384898568
5384903939
5384909310
5384915780
5384921456
5384927803
5384933602
5384939278
5384946297
5384951607
5384957405
5384964485
5384969429
5384975960
5384981270
5384986031
5384992745
5384997444
5385004769
5385010323
5385016426
5385023689
5385029244
5385034676
5385040474
5385048348
5385055428
5385061165
5385067390
5385073677
5385079109
5385084907
5385090523
5385097114
5385102669
5385108223
5385114876
5385121040
5385126350
5385131599
5385138496
5385144905
5385149727
5385155525
5385160774
5385168403
5385173408
5385178108
5385185188
5385190559
5385196418
5385203560
5385208809
5385214241
5385219246
5385225837
5385231330
5385236946
5385243598
5385249214
5385257942
5385263435
5385268623
5385274421
5385279853
5385285530
5385292976
5385299690
5385305305
5385310798
5385318427
5385324775
5385331001
5385337592
5385346137
5385351447
5385358955
5385364143
5385369636
5385374885
5385380988
5385386420
5385392768
5385398322
5385404792
5385410468
5385415900
5385421210
5385426948
5385434028
5385440131
5385443671
5385451728
5385458137
5385462592
5385468268
5385474921
5385480231
5385487372
5385492926
5385498481
5385504584
5385509955
5385516242
5385521857
5385529059
5385533881
5385540168
5385545111
5385552191
5385557563
5385564948
5385570807
5385577399
5385583319
5385589179
5385595893
5385601630
5385607794
5385613165
5385620123
5385625372
5385631659
5385637885
5385642767
5385649054
5385653815
5385661078
5385666693
5385672125
5385678778
5385684454
5385690070
5385696478
5385702460
5385708807
5385713873
5385720221
5385725836
5385732306
5385737250
5385743902
5385750921
5385754645
5385761419
5385768438
5385773810
5385779913
5385785650
5385792547
5385797796
5385804388
5385809515
5385815008
5385821295
5385828009
5385836004
5385841192
5385846685
5385854559
5385859503
5385864813
5385871405
5385882452
5385889105
5385894720
5385902349
5385909002
5385916448
5385921880
5385927313
5385934148
5385939275
5385944708
5385950384
5385957342
5385963811
5385970525
5385975774
5385981878
5385987249
5385994268
5385999944
5386005437
5386012639
5386018133
5386023443
5386030157
5386035100
5386040410
5386045843
5386052984
5386058355
5386065008
5386077215
5386082586
5386088323
5386094915
5386100774
5386105596
5386111577
5386118230
5386124822
5386130559
5386135442
5386142156
5386147466
5386153447
5386158269
5386164434
5386170354
5386176641
5386182134
5386189031
5386194463
5386200749
5386207219
5386212346
5386219670
5386226445
5386231633
5386239568
5386245000
5386251347
5386257146
5386263921
5386269353
5386275944
5386280156
5386286443
5386292668
5386297856
5386304509
5386310734
5386315068
5386322392
5386326481
5386333012
5386338444
5386344426
5386352055
5386357060
5386361455
5386367680
5386373967
5386379521
5386389897
5386396977
5386402775
5386408818
5386416447
5386422306
5386430302
5386436344
5386441716
5386446720
5386452641
5386459416
5386464054
5386472538
5386477543
5386484013
5386489994
5386495426
5386500736
5386506474
5386511906
5386518620
5386523808
5386530094
5386535709
5386541447
5386546452
5386552128
5386556950
5386564091
5386570011
5386575199
5386581303
5386586979
5386592960
5386598575
5386603763
5386609501
5386615299
5386620487
5386626896
5386631840
5386636967
5386643741
5386648685
5386653812
5386660953
5386667362
5386672916
5386678287
5386683841
5386687687
5386694217
5386702030
5386707157
5386713749
5386719486
5386724430
5386731571
5386737857
5386743778
5386749088
5386755374
5386760990
5386765933
5386772281
5386778385
5386783634
5386789310
5386795596
5386800113
5386806339
5386812198
5386817630
5386824344
5386828800
5386835758
5386840701
5386846866
5386852359
5386859500
5386863528
5386871768
5386878726
5386884036
5386889896
5386897342
5386904910
5386911746
5386916995
5386924563
5386929935
5386935428
5386942386
5386947940
5386952395
5386956973
5386963443
5386970645
5386976565
5386983279
5386988406
5386993960
5387000857
5387007937
5387011477
5387018557
5387024112
5387030093
5387035281
5387044375
5387048831
5387055911
5387062380
5387069583
5387075869
5387081668
5387086672
5387092715
5387099429
5387105166
5387110171
5387116763
5387122012
5387127261
5387132815
5387139346
5387144961
5387150881
5387156496
5387161990
5387170229
5387176638
5387181887
5387189577
5387195803
5387200686
5387206789
5387212221
5387217531
5387223269
5387228396
5387233645
5387244204
5387250734
5387257448
5387264162
5387268740
5387274843
5387280581
5387286379
5387291994
5387297731
5387305117
5387310366
5387316164
5387320925
5387326906
5387332643
5387339052
5387343752
5387349550
5387355287
5387360659
5387367433
5387372804
5387378969
5387384096
5387393068
5387399660
5387405397
5387411012
5387417543
5387425661
5387432253
5387439150
5387445863
5387450502
5387455934
5387462709
5387467958
5387474306
5387480165
5387485048
5387491457
5387496583
5387501588
5387508668
5387513246
5387519288
5387525026
5387531068
5387537721
5387541810
5387549623
5387553773
5387560365
5387567018
5387572816
5387578492
5387583680
5387589113
5387595460
5387602113
5387607301
5387612245
5387618287
5387623475
5387630189
5387636354
5387642457
5387647645
5387651918
5387657899
5387664857
5387671388
5387677369
5387683045
5387690614
5387695313
5387701295
5387706727
5387713624
5387719361
5387724915
5387730103
5387737000
5387742616
5387747559
5387754334
5387759949
5387764039
5387769898
5387775452
5387781678
5387787781
5387793030
5387798707
5387803773
5387810303
5387815674
5387821961
5387827393
5387834839
5387839905
5387846375
5387851319
5387857789
5387864686
5387871827
5387880372
5387887879
5387893982
5387904358
5387912598
5387921448
5387929932
5387936402
5387942749
5387948975
5387953308
5387960449
5387965271
5387972290
5387977173
5387982971
5387989624
5387995728
5388001221
5388007752
5388014465
5388019348
5388026062
5388031250
5388036743
5388041992
5388047730
5388053528
5388059509
5388065674
5388071716
5388081665
5388089477
5388098144
5388107300
5388115539
5388123962
5388132202
5388140381
5388150635
5388158935
5388167236
5388176086
5388183838
5388193481
5388200744
5388210754
5388220214
5388228759
5388235839
5388245117
5388253723
5388263427
5388272338
5388282104
5388289611
5388300170
5388308105
5388318237
5388327392
5388336242
5388345519
5388354858
5388363158
5388372192
5388381469
5388390868
5388399169
5388410216
5388418212
5388427184
5388435424
5388446410
5388456237
5388464171
5388473510
5388483886
5388493224
5388501830
5388508971
5388518615
5388530760
5388537657
5388548339
5388559142
5388569274
5388577818
5388588316
5388598692
5388606139
5388617491
5388625853
5388634032
5388643858
5388651854
5388662657
5388670714
5388680601
5388688597
5388696532
5388707579
5388714842
5388725096
5388733336
5388744200
5388751463
5388759031
5388767515
5388777830
5388787413
5388797117
5388807310
5388813719
5388822264
5388831297
5388839842
5388848997
5388857359
5388865904
5388876402
5388885740
5388894041
5388902158
5388910642
5388919431
5388927732
5388936704
5388945860
5388953550
5388962339
5388970274
5388979185
5388986326
5388994871
5389001890
5389009702
5389020078
5389028440
5389036497
5389044736
5389053098
5389062131
5389071958
5389079038
5389089048
5389097654
5389104917
5389114255
5389122556
5389132627
5389139951
5389150449
5389157041
5389164060
5389171262
5389178281
5389187131
5389194211
5389200620
5389210629
5389217709
5389226315
5389233212
5389240048
5389248471
5389256528
5389261410
5389271786
5389278989
5389286130
5389292233
5389302182
5389309323
5389316952
5389324765
5389334836
5389342282
5389348874
5389357113
5389367428
5389376156
5389381833
5389384823
5389391659
5389396847
5389401059
5389405148
5389411129
5389414852
5389419369
5389424679
5389429379
5389434750
5389440426
5389446041
5389451901
5389456173
5389461483
5389466000
5389470272
5389474911
5389479733
5389484860
5389489010
5389493343
5389498715
5389502682
5389507626
5389513729
5389517330
5389521908
5389527157
5389532528
5389536190
5389541256
5389546627
5389551510
5389555965
5389559933
5389564938
5389569332
5389573910
5389578548
5389584408
5389589352
5389594417
5389599117
5389603451
5389607784
5389611751
5389616878
5389621944
5389627804
5389632564
5389636959
5389641048
5389645443
5389649776
5389655391
5389660457
5389665401
5389669735
5389673336
5389678280
5389682674
5389688533
5389693050
5389698482
5389702632
5389708614
5389714290
5389720027
5389725826
5389731014
5389735530
5389740840
5389745662
5389749752
5389753963
5389759151
5389762813
5389770564
5389776180
5389781917
5389788692
5389794856
5389801021
5389806453
5389812312
5389817561
5389823482
5389827815
5389833247
5389837276
5389843623
5389847774
5389854549
5389858821
5389863826
5389869563
5389874019
5389879573
5389884700
5389889583
5389895442
5389899898
5389905025
5389908015
5389914485
5389919795
5389925715
5389929805
5389933955
5389939692
5389944392
5389949397
5389956111
5389961909
5389967585
5389973384
5389979548
5389984980
5389990657
5389995967
5390002009
5390008174
5390014155
5390019831
5390025325
5390031245
5390036982
5390042231
5390048701
5390056513
5390062129
5390067378
5390073054
5390078791
5390084345
5390089839
5390096247
5390101374
5390106928
5390111933
5390117121
5390123286
5390128840
5390133967
5390140009
5390146967
5390152705
5390157954
5390163691
5390168879
5390174433
5390179987
5390184809
5390192499
5390198603
5390204401
5390207941
5390214777
5390220392
5390225153
5390230158
5390238398
5390244013
5390249201
5390254389
5390260187
5390265253
5390270441
5390276484
5390282648
5390289362
5390294550
5390299189
5390307184
5390314203
5390319452
5390327631
5390334589
5390341303
5390347589
5390352167
5390358515
5390365839
5390372370
5390379205
5390384210
5390389093
5390394647
5390399774
5390404901
5390411493
5390417047
5390423578
5390428705
5390435114
5390441217
5390445978
5390451776
5390458429
5390465265
5390472284
5390477838
5390482355
5390487970
5390493768
5390499261
5390504693
5390510797
5390516351
5390522272
5390529229
5390534540
5390539361
5390544977
5390551385
5390557916
5390564691
5390570367
5390574823
5390582025
5390587518
5390593072
5390598504
5390604425
5390609979
5390616143
5390621636
5390627252
5390632928
5390638421
5390643975
5390650079
5390657159
5390664544
5390669976
5390676263
5390681207
5390686883
5390692986
5390698419
5390704339
5390712518
5390717706
5390723199
5390729363
5390734612
5390740716
5390748528
5390754754
5390761285
5390765679
5390771844
5390777459
5390783379
5390790948
5390797173
5390803338
5390808709
5390814324
5390819512
5390826714
5390831292
5390838433
5390846856
5390853875
5390861687
5390870781
5390877129
5390886223
5390892998
5390902459
5390911797
5390922478
5390929436
5390938835
5390947380
5390957207
5390965080
5390973259
5390983574
5390990471
5391001701
5391011955
5391017876
5391024284
5391032280
5391039238
5391046379
5391054008
5391060844
5391068718
5391076042
5391083916
5391090080
5391097893
5391102165
5391111015
5391120659
5391128105
5391135429
5391142814
5391148735
5391155754
5391163566
5391167411
5391176689
5391184135
5391192680
5391197074
5391204826
5391211540
5391217155
5391224479
5391229301
5391236381
5391243278
5391248771
5391252921
5391259818
5391264152
5391271232
5391276420
5391282768
5391289176
5391294792
5391299735
5391305290
5391311759
5391317191
5391323051
5391329093
5391333549
5391340629
5391346061
5391351737
5391357291
5391363395
5391370109
5391374991
5391381217
5391387321
5391393485
5391399100
5391404349
5391410514
5391416617
5391423270
5391429252
5391436088
5391441825
5391447806
5391453849
5391459769
5391466910
5391474112
5391479422
5391486808
5391492484
5391495047
5391501761
5391509574
5391515372
5391524344
5391530448
5391536002
5391541434
5391547049
5391552542
5391558768
5391564993
5391572257
5391579031
5391585562
5391592703
5391601309
5391609793
5391618155
5391629202
5391636832
5391647696
5391655569
5391666739
5391672354
5391684805
5391690420
5391700796
5391707693
5391716238
5391722403
5391730520
5391735403
5391743155
5391749319
5391757437
5391765493
5391771536
5391780386
5391787832
5391792593
5391799246
5391806448
5391810293
5391817251
5391822256
5391830068
5391836172
5391841055
5391846731
5391852835
5391858572
5391864431
5391870718
5391877554
5391883657
5391889822
5391895437
5391900442
5391905935
5391912344
5391915762
5391923635
5391929861
5391934988
5391939992
5391946340
5391951223
5391957998
5391964956
5391971975
5391978017
5391984243
5391989736
5391995534
5392001211
5392005666
5392011037
5392019887
5392026540
5392031057
5392036245
5392043813
5392049855
5392053640
5392060537
5392069143
5392074941
5392080312
5392085256
5392090627
5392095998
5392101430
5392109487
5392114125
5392122792
5392126821
5392132802
5392138539
5392144399
5392150563
5392158193
5392166738
5392172719
5392181142
5392188527
5392195058
5392200490
5392206532
5392212636
5392219289
5392225392
5392231496
5392237294
5392243153
5392248708
5392254811
5392264088
5392276723
5392283864
5392293141
5392300160
5392307118
5392313405
5392320607
5392327137
5392336232
5392342457
5392348256
5392353993
5392358937
5392364125
5392368458
5392373219
5392379383
5392384755
5392390309
5392396656
5392401722
5392407337
5392413319
5392419361
5392425343
5392435963
5392441822
5392447987
5392455494
5392464283
5392469105
5392475025
5392481068
5392486866
5392492420
5392498280
5392502552
5392507984
5392513905
5392519764
5392526478
5392531727
5392537891
5392543629
5392548511
5392554920
5392558033
5392566334
5392570850
5392578052
5392584705
5392590565
5392594349
5392601490
5392605884
5392612842
5392619007
5392623829
5392629566
5392636402
5392640369
5392646778
5392653125
5392658069
5392664417
5392668995
5392674610
5392681324
5392687061
5392693042
5392698169
5392702564
5392708545
5392714954
5392720630
5392726551
5392732105
5392738391
5392743701
5392750171
5392756214
5392760120
5392766834
5392773181
5392778980
5392785266
5392789905
5392795032
5392798999
5392808093
5392814807
5392820483
5392827014
5392831714
5392837573
5392844470
5392850940
5392856616
5392865466
5392871203
5392875842
5392883288
5392887439
5392893237
5392900500
5392908252
5392915210
5392922534
5392930285
5392935107
5392941516
5392947741
5392954821
5392960559
5392966967
5392972766
5392978869
5392984484
5392990039
5392995959
5393000048
5393006396
5393012622
5393019274
5393025073
5393029772
5393033373
5393039660
5393044604
5393050524
5393054980
5393061144
5393064257
5393070178
5393074450
5393077929
5393085131
5393088610
5393095934
5393103503
5393109179
5393114489
5393118456
5393124010
5393130175
5393134570
5393139941
5393145739
5393151049
5393156908
5393162340
5393165697
5393172777
5393177599
5393180895
5393189318
5393196093
5393201220
5393205492
5393216173
5393223803
5393228930
5393235888
5393240099
5393247057
5393252611
5393259020
5393263964
5393271227
5393276598
5393280199
5393288073
5393293749
5393300585
5393305651
5393312242
5393317491
5393323290
5393329271
5393334947
5393340929
5393347765
5393353746
5393359300
5393365404
5393370348
5393375658
5393381212
5393385118
5393393236
5393399400
5393405687
5393409105
5393416063
5393421068
5393427110
5393431444
5393438524
5393445299
5393450792
5393454820
5393462022
5393467332
5393473497
5393478746
5393483262
5393490404
5393497301
5393502916
5393509324
5393517381
5393521043
5393528673
5393536302
5393543931
5393550950
5393556749
5393562791
5393567186
5393571763
5393578050
5393583116
5393589952
5393595872
5393600816
5393606919
5393611680
5393616563
5393623521
5393629746
5393634568
5393641648
5393647019
5393652818
5393658738
5393663865
5393670579
5393677476
5393682664
5393687730
5393693711
5393699509
5393705064
5393709580
5393713548
5393718919
5393725816
5393732774
5393738694
5393746079
5393752854
5393758347
5393764573
5393769578
5393773850
5393780503
5393784043
5393791001
5393795334
5393802476
5393808579
5393812851
5393819809
5393825364
5393831162
5393838120
5393842026
5393847458
5393852463
5393858445
5393866318
5393872544
5393879929
5393885971
5393892746
5393900009
5393905808
5393910263
5393916794
5393923569
5393931015
5393936508
5393942673
5393947861
5393955368
5393960068
5393966293
5393972275
5393975998
5393981552
5393987351
5393993149
5393998154
5394001694
5394008224
5394015915
5394022202
5394028915
5394035202
5394039169
5394046066
5394051681
5394058212
5394063095
5394069626
5394077194
5394081711
5394088058
5394095566
5394103134
5394109359
5394116928
5394126938
5394133957
5394141769
5394148544
5394156540
5394163925
5394171066
5394176864
5394183517
5394189437
5394195968
5394202072
5394208786
5394215438
5394221115
5394227035
5394232894
5394238937
5394245956
5394252303
5394256942
5394264144
5394269576
5394274459
5394280685
5394286666
5394293929
5394299178
5394304122
5394310470
5394316207
5394322799
5394328475
5394332931
5394340011
5394345016
5394350936
5394356795
5394359908
5394367477
5394374984
5394381026
5394387801
5394393050
5394396834
5394403121
5394409896
5394415206
5394420943
5394426619
5394431929
5394438216
5394444014
5394448470
5394454329
5394459945
5394465255
5394473067
5394476973
5394483687
5394488875
5394494796
5394500838
5394506392
5394510482
5394517378
5394521834
5394528243
5394535018
5394540022
5394545577
5394551192
5394557784
5394562056
5394569991
5394575301
5394582015
5394586287
5394592207
5394598799
5394604903
5394611433
5394616927
5394622115
5394628950
5394634688
5394641157
5394647810
5394652693
5394658003
5394667830
5394678450
5394685408
5394691450
5394700056
5394708784
5394716230
5394721235
5394732344
5394739180
5394747236
5394757429
5394763472
5394770979
5394780683
5394789045
5394797590
5394808027
5394816938
5394822737
5394831953
5394846418
5394854536
5394860944
5394864790
5394875349
5394884138
5394890363
5394899091
5394906660
5394912885
5394919233
5394928571
5394932539
5394941328
5394949018
5394955854
5394962141
5394970258
5394975751
5394983014
5394989789
5394996686
5395003034
5395011152
5395016950
5395025678
5395030866
5395040693
5395045392
5395053571
5395061628
5395069562
5395075483
5395083966
5395091657
5395098432
5395108441
5395115766
5395122357
5395128888
5395137616
5395144147
5395151410
5395158673
5395170270
5395180402
5395189374
5395195660
5395203717
5395212079
5395219525
5395225323
5395234051
5395241070
5395249982
5395258404
5395264508
5395272015
5395279828
5395287030
5395292950
5395302228
5395307354
5395318646
5395324444
5395332684
5395339886
5395344769
5395351727
5395359478
5395367169
5395371746
5395380352
5395388043
5395394879
5395402874
5395408612
5395416058
5395421002
5395425701
5395435284
5395444256
5395451153
5395459271
5395467327
5395473675
5395481365
5395488140
5395496258
5395503216
5395510174
5395517864
5395526348
5395533245
5395541180
5395545574
5395553570
5395561199
5395568462
5395576763
5395584209
5395589763
5395599102
5395606426
5395611370
5395620708
5395626751
5395635662
5395645305
5395656841
5395663372
5395669841
5395678081
5395685466
5395690898
5395698223
5395708354
5395716289
5395720073
5395726848
5395732036
5395737163
5395742229
5395745342
5395752788
5395758769
5395764262
5395769206
5395775371
5395780315
5395787761
5395791484
5395798015
5395804057
5395809123
5395814555
5395820598
5395826213
5395831157
5395837138
5395843120
5395848857
5395855022
5395860820
5395865520
5395871135
5395876811
5395881816
5395888652
5395892192
5395900798
5395906779
5395912639
5395918193
5395923564
5395928080
5395935527
5395939982
5395946025
5395952128
5395957072
5395961467
5395968852
5395973490
5395979045
5395984538
5395992350
5395998210
5396006083
5396011820
5396016886
5396023051
5396029154
5396033488
5396038615
5396046855
5396052714
5396057841
5396062785
5396068644
5396074015
5396079020
5396084635
5396090800
5396097269
5396102396
5396108988
5396114481
5396119486
5396125040
5396131510
5396136454
5396148539
5396155192
5396161295
5396166605
5396171549
5396178263
5396182779
5396189249
5396195658
5396201273
5396206705
5396212870
5396220743
5396224161
5396230692
5396240397
5396247416
5396256449
5396266825
5396274393
5396280802
5396288675
5396298258
5396303263
5396309671
5396314981
5396320474
5396326334
5396332742
5396338297
5396343363
5396348245
5396354593
5396361734
5396366861
5396370584
5396377847
5396381937
5396387064
5396392496
5396399332
5396404703
5396410074
5396414346
5396419839
5396426004
5396431314
5396435953
5396441568
5396447488
5396453470
5396458230
5396464090
5396470254
5396476053
5396481485
5396487100
5396493203
5396496805
5396504495
5396508279
5396515970
5396522073
5396524881
5396531717
5396536844
5396543252
5396548684
5396555398
5396561929
5396569009
5396572366
5396579446
5396584512
5396590432
5396596475
5396601663
5396608071
5396613687
5396619790
5396625161
5396630715
5396635598
5396642129
5396647317
5396652322
5396661050
5396666970
5396672829
5396676308
5396683144
5396688454
5396693398
5396699380
5396706155
5396711343
5396716897
5396723000
5396728127
5396732949
5396739480
5396745156
5396751687
5396757546
5396763100
5396767495
5396773903
5396780678
5396786782
5396792214
5396798745
5396804360
5396810463
5396816811
5396822609
5396825661
5396832375
5396837319
5396843361
5396849953
5396859963
5396865517
5396871987
5396878823
5396885353
5396891518
5396898598
5396903725
5396909218
5396914223
5396919350
5396924843
5396930214
5396935463
5396940468
5396947182
5396952980
5396957619
5396962990
5396969399
5396975258
5396979408
5396984108
5396991798
5396997597
5397003578
5397007057
5397014503
5397019813
5397025185
5397029640
5397035622
5397043739
5397047401
5397054115
5397059242
5397064247
5397070350
5397075722
5397081703
5397088295
5397094215
5397098671
5397104469
5397110817
5397116371
5397121376
5397127357
5397132911
5397139015
5397144569
5397149452
5397155616
5397160438
5397165504
5397171058
5397178932
5397184181
5397187904
5397194068
5397201576
5397205909
5397211463
5397217018
5397223670
5397229102
5397235511
5397241737
5397247230
5397252479
5397257728
5397262672
5397269202
5397274757
5397282081
5397287086
5397293128
5397298927
5397304420
5397308875
5397315833
5397321387
5397327491
5397333045
5397338904
5397345679
5397351111
5397355811
5397364112
5397370704
5397377295
5397382300
5397389441
5397394996
5397399085
5397405066
5397412085
5397419593
5397423194
5397431128
5397437232
5397443885
5397450171
5397456275
5397462928
5397469825
5397479224
5397485083
5397492163
5397497901
5397502295
5397507361
5397514319
5397520239
5397526282
5397530249
5397537879
5397541297
5397548010
5397553015
5397560767
5397566016
5397572119
5397577612
5397582800
5397587744
5397593359
5397600378
5397607703
5397612891
5397618201
5397623938
5397629736
5397635229
5397640967
5397646521
5397653418
5397658911
5397664953
5397670386
5397676550
5397682043
5397687536
5397693213
5397701269
5397711523
5397721228
5397731115
5397738928
5397745825
5397751745
5397758764
5397762365
5397769506
5397775366
5397781164
5397787329
5397792883
5397797705
5397803503
5397808874
5397814611
5397821996
5397827551
5397832372
5397837805
5397842626
5397848425
5397854223
5397859899
5397866979
5397871557
5397877477
5397883459
5397888219
5397893835
5397899938
5397907018
5397914037
5397918676
5397924718
5397929479
5397935277
5397940343
5397945714
5397952062
5397959081
5397964025
5397969518
5397974523
5397980016
5397985692
5397992040
5397997472
5398006566
5398014074
5398021398
5398027684
5398033788
5398038854
5398045018
5398051732
5398058446
5398067357
5398074620
5398081578
5398087377
5398093175
5398100804
5398106359
5398114354
5398119908
5398126683
5398131444
5398139256
5398144566
5398148168
5398157750
5398163548
5398170201
5398173497
5398181004
5398186864
5398192235
5398197240
5398202367
5398208470
5398214268
5398219701
5398225804
5398230138
5398236546
5398242161
5398248082
5398251927
5398259617
5398265660
5398271458
5398277501
5398281834
5398286778
5398291844
5398298558
5398306065
5398311558
5398316685
5398323155
5398328770
5398333714
5398340672
5398345982
5398353062
5398357945
5398364781
5398370091
5398376255
5398380894
5398386509
5398391758
5398398167
5398405003
5398411350
5398416905
5398422337
5398427281
5398432408
5398438206
5398443333
5398450596
5398457127
5398462620
5398468113
5398472935
5398478489
5398483616
5398491001
5398494724
5398503330
5398506443
5398513462
5398518650
5398524204
5398530979
5398535923
5398541538
5398548435
5398552769
5398558384
5398564182
5398569675
5398575290
5398581394
5398586887
5398592869
5398597568
5398605381
5398612522
5398617954
5398626377
5398634250
5398639682
5398649021
5398656223
5398662265
5398668186
5398674106
5398680393
5398688877
5398697238
5398704379
5398710178
5398716403
5398721347
5398726474
5398732333
5398737399
5398744052
5398751010
5398754550
5398763156
5398767490
5398773288
5398778903
5398788730
5398793979
5398800388
5398805698
5398810641
5398815829
5398821506
5398826755
5398832980
5398841220
5398846530
5398851291
5398856906
5398862155
5398868197
5398873080
5398879855
5398887057
5398891879
5398897799
5398903231
5398909091
5398914706
5398917880
5398924716
5398932833
5398936496
5398942111
5398948458
5398954013
5398960849
5398966098
5398971957
5398979647
5398985140
5398988803
5398997836
5399003268
5399011813
5399018038
5399023348
5399031100
5399036471
5399042208
5399048800
5399053988
5399058321
5399064791
5399071017
5399077059
5399083529
5399089022
5399093417
5399098910
5399104159
5399109530
5399116366
5399122957
5399128878
5399132967
5399139437
5399145479
5399150973
5399157625
5399163912
5399170260
5399177096
5399183199
5399189242
5399194979
5399199617
5399206148
5399210238
5399216707
5399221773
5399229830
5399235811
5399243868
5399249849
5399255220
5399260164
5399267122
5399275728
5399282808
5399291048
5399296724
5399303377
5399309969
5399315950
5399322664
5399330782
5399336702
5399342500
5399347139
5399351961
5399356722
5399361238
5399367830
5399375154
5399381990
5399387849
5399391939
5399397615
5399404329
5399407869
5399413850
5399419038
5399426668
5399432588
5399437837
5399443391
5399446809
5399454500
5399458223
5399465242
5399471895
5399478242
5399483247
5399488374
5399493928
5399500398
5399506135
5399511079
5399516938
5399523286
5399529267
5399534455
5399540498
5399546479
5399552095
5399557038
5399564363
5399570832
5399576997
5399582917
5399586457
5399593110
5399598542
5399602082
5399610017
5399616364
5399621674
5399628327
5399633271
5399639069
5399643830
5399649384
5399654878
5399662202
5399667756
5399673493
5399679902
5399685090
5399690522
5399696259
5399701447
5399708893
5399714997
5399720978
5399726838
5399730744
5399738068
5399743622
5399748200
5399753205
5399760224
5399766572
5399773224
5399778840
5399783356
5399789093
5399795136
5399799775
5399806427
5399812653
5399818146
5399823456
5399828583
5399834137
5399840973
5399846161
5399854218
5399857758
5399867829
5399871857
5399879730
5399885590
5399891449
5399899750
5399905670
5399914704
5399921967
5399928314
5399933319
5399938690
5399944977
5399950897
5399956085
5399962128
5399968109
5399975128
5399980988
5399987152
5399992950
5399999359
5400004303
5400009857
5400015961
5400022064
5400026153
5400031647
5400038238
5400044159
5400048736
5400057281
5400065094
5400070465
5400075897
5400080902
5400086334
5400091339
5400097442
5400103363
5400108917
5400115142
5400120819
5400125885
5400131561
5400136138
5400144012
5400150787
5400155181
5400160858
5400167022
5400171539
5400176422
5400182464
5400188384
5400195770
5400202178
5400208099
5400213836
5400220306
5400226959
5400232818
5400237151
5400245757
5400250823
5400257476
5400263213
5400268218
5400274749
5400278594
5400284515
5400291595
5400299041
5400304290
5400308379
5400316619
5400321990
5400325774
5400332976
5400337676
5400346648
5400352324
5400358794
5400364470
5400370696
5400377288
5400383208
5400386260
5400393950
5400402984
5400407012
5400414824
5400420256
5400424590
5400432524
5400438079
5400443633
5400450713
5400457610
5400463103
5400468047
5400473479
5400478850
5400484892
5400490203
5400497161
5400505034
5400510222
5400519194
5400524687
5400532439
5400539153
5400545317
5400552031
5400557524
5400563628
5400570341
5400576018
5400580840
5400586882
5400592924
5400597014
5400604887
5400610747
5400615874
5400621916
5400627714
5400633269
5400638029
5400643828
5400651091
5400656767
5400660307
5400667509
5400674650
5400679594
5400685576
5400691191
5400698332
5400705351
5400711576
5400716887
5400721708
5400727995
