3988690716
3988696759
3988702984
3988708660
3988713421
3988719220
3988724713
3988730023
3988735882
3988741375
3988746563
3988756146
3988764569
3988772198
3988777325
3988782025
3988789410
3988795513
3988802227
3988808514
3988813946
3988821331
3988827251
3988833416
3988840191
3988846539
3988854717
3988861126
3988868389
3988876385
3988881756
3988889263
3988897075
3988903911
3988912395
3988917095
3988925518
3988933635
3988942119
3988948833
3988956646
3988963237
3988971599
3988978374
3988985515
3988995403
3989002178
3989008892
3989016887
3989022319
3989030437
3989038127
3989044963
3989051006
3989058940
3989065532
3989074748
3989081157
3989088603
3989095989
3989103130
3989110332
3989118205
3989127727
3989138164
3989145183
3989151714
3989158794
3989167033
3989174358
3989180827
3989188762
3989195048
3989203105
3989210246
3989216655
3989225444
3989231791
3989240458
3989246867
3989255900
3989260234
3989269023
3989275126
3989284098
3989291606
3989298869
3989306315
3989313517
3989321025
3989328532
3989336039
3989343608
3989352213
3989358134
3989368876
3989375224
3989384196
3989388773
3989398478
3989406046
3989413615
3989422343
3989429789
3989436503
3989444071
3989451395
3989458964
3989467081
3989474894
3989481058
3989488688
3989496378
3989503824
3989511637
3989518961
3989525675
3989533243
3989541422
3989549051
3989556620
3989562296
3989571634
3989577372
3989586405
3989594583
3989601114
3989609232
3989616190
3989627237
3989635050
3989641519
3989651346
3989659220
3989666666
3989673441
3989680765
3989689554
3989696939
3989702982
3989710489
3989719095
3989726663
3989735025
3989740823
3989750467
3989756326
3989764505
3989772684
3989780008
3989786416
3989795206
3989802896
3989810159
3989814798
3989825357
3989840921
3989850137
3989858316
3989867471
3989875161
3989882608
3989891641
3989897744
3989905374
3989913552
3989920144
3989928567
3989936013
3989942300
3989950906
3989958718
3989966714
3989974648
3989982644
3989989907
3989998879
3990007607
3990013894
3990021706
3990028115
3990036660
3990041543
3990052834
3990063882
3990072732
3990080361
3990087746
3990096230
3990105019
3990115090
3990121865
3990128823
3990136513
3990143898
3990150307
3990161904
3990170815
3990179055
3990187172
3990196144
3990203591
3990211708
3990219887
3990226906
3990236061
3990242836
3990250282
3990258400
3990268166
3990275307
3990284157
3990289772
3990300453
3990306679
3990314613
3990322914
3990330177
3990338783
3990345497
3990352760
3990360207
3990367165
3990375648
3990384071
3990391884
3990397987
3990405311
3990411903
3990420448
3990430153
3990434547
3990443702
3990451332
3990458534
3990462745
3990471717
3990482215
3990488258
3990496498
3990503883
3990511756
3990527137
3990535804
3990544349
3990552223
3990560096
3990568519
3990576698
3990583167
3990590980
3990597694
3990605445
3990612952
3990620399
3990627357
3990634498
3990641883
3990649818
3990657508
3990664710
3990673194
3990681006
3990688209
3990695533
3990703589
3990710853
3990717627
3990726905
3990734229
3990741492
3990750220
3990758033
3990767127
3990773841
3990781714
3990790747
3990798255
3990804358
3990813391
3990821082
3990829138
3990837317
3990845557
3990852149
3990858191
3990865759
3990873572
3990881445
3990889014
3990896399
3990903479
3990910742
3990917944
3990926794
3990933874
3990942175
3990949133
3990959204
3990964270
3990973364
3990979285
3990989233
3990995886
3991003882
3991009558
3991018164
3991025549
3991032690
3991036902
3991048437
3991055883
3991062536
3991072180
3991076391
3991084814
3991092565
3991098486
3991105200
3991111425
3991116857
3991122961
3991129736
3991135168
3991143896
3991149145
3991154638
3991161047
3991166906
3991173376
3991178503
3991184118
3991192236
3991198461
3991206457
3991213232
3991219640
3991227819
3991233007
3991240026
3991246801
3991254430
3991260595
3991266759
3991273351
3991279638
3991286718
3991291479
3991299535
3991304662
3991311437
3991316564
3991323705
3991329809
3991336034
3991341771
3991350560
3991357702
3991364110
3991370885
3991376317
3991384069
3991391393
3991397557
3991404637
3991410436
3991418126
3991425572
3991433080
3991441136
3991445409
3991455846
3991462132
3991467259
3991474645
3991481725
3991485936
3991495763
3991501744
3991509129
3991513341
3991522984
3991527318
3991536168
3991540807
3991550938
3991555150
3991564061
3991570225
3991577550
3991583470
3991590794
3991598179
3991605259
3991613560
3991620152
3991625767
3991632725
3991639866
3991647252
3991653294
3991661961
3991667576
3991675328
3991682530
3991688572
3991695774
3991699925
3991709263
3991717442
3991725010
3991731602
3991737522
3991742344
3991752720
3991757298
3991765598
3991772007
3991781651
3991789097
3991797276
3991803257
3991810093
3991818027
3991826084
3991832554
3991839756
3991848057
3991852695
3991863499
3991868442
3991877903
3991883030
3991893711
3991899997
3991911167
3991918308
3991929783
3991934055
3991943638
3991948459
3991958469
3991967868
3991974216
3991982456
3991990573
3991995273
3992004673
3992011325
3992018711
3992026767
3992035007
3992041110
3992048740
3992056674
3992063266
3992071201
3992077853
3992086276
3992094394
3992100803
3992105502
3992115329
3992123264
3992129245
3992136264
3992143832
3992150546
3992160678
3992167209
3992176730
3992182895
3992190463
3992198520
3992201144
3992212558
3992221286
3992229892
3992232516
3992243441
3992248202
3992258395
3992262973
3992272372
3992280673
3992289523
3992296054
3992303561
3992310153
3992318576
3992327304
3992335299
3992342379
3992350802
3992355807
3992366244
3992370333
3992379366
3992383822
3992393099
3992403170
3992411227
3992418612
3992423983
3992436495
3992443148
3992450838
3992458651
3992468294
3992476839
3992485018
3992492953
3992498507
3992506991
3992513643
3992520846
3992529574
3992537020
3992543062
3992551302
3992558016
3992568880
3992576815
3992587679
3992593355
3992600801
3992606844
3992616915
3992625154
3992635103
3992641695
3992650240
3992658357
3992667574
3992674837
3992683199
3992690340
3992697603
3992706697
3992712495
3992722444
3992727144
3992736177
3992743928
3992750215
3992760347
3992766572
3992771516
3992782197
3992786958
3992796907
3992804231
3992809968
3992820222
3992828279
3992833223
3992842988
3992847810
3992857209
3992861909
3992870149
3992881868
3992888703
3992897370
3992903596
3992911470
3992919648
3992924409
3992934541
3992942780
3992950410
3992958466
3992965058
3992972627
3992979890
3992986665
3992994965
3993002717
3993009003
3993017121
3993024628
3993031281
3993038972
3993045441
3993051423
3993060151
3993068146
3993074250
3993082062
3993090180
3993096222
3993103974
3993110077
3993121308
3993128144
3993132660
3993142182
3993149750
3993155976
3993163849
3993170197
3993180634
3993188690
3993195648
3993203644
3993208344
3993216339
3993224701
3993230683
3993241486
3993247528
3993251984
3993262787
3993267853
3993276947
3993281769
3993291779
3993299347
3993307709
3993314178
3993323761
3993330597
3993338959
3993345795
3993354034
3993361969
3993367767
3993376495
3993384491
3993392853
3993398407
3993410492
3993420318
3993428192
3993435455
3993444427
3993450714
3993457061
3993464508
3993473541
3993481292
3993487701
3993495636
3993502777
3993511566
3993519683
3993525726
3993535613
3993543792
3993551544
3993559356
3993566619
3993572845
3993580230
3993588531
3993597442
3993604522
3993613250
3993619170
3993626800
3993634490
3993641204
3993649871
3993658477
3993665679
3993672210
3993679717
3993687774
3993693999
3993701934
3993710784
3993719329
3993725432
3993731902
3993739592
3993744597
3993754607
3993762358
3993768462
3993774382
3993784697
3993789214
3993799163
3993804045
3993816130
3993821135
3993828520
3993837309
3993847197
3993851836
3993861296
3993865813
3993875334
3993880095
3993890410
3993898833
3993907866
3993915984
3993922514
3993930266
3993937590
3993943754
3993953032
3993962004
3993968046
3993975249
3993982878
3993989348
3993997160
3994004912
3994011992
3994020475
3994029326
3994035185
3994043486
3994051420
3994057463
3994065947
3994072721
3994082060
3994088713
3994095854
3994104704
3994112150
3994117765
3994125395
3994133878
3994144193
3994151579
3994159757
3994166593
3994173490
3994181852
3994189298
3994195707
3994204313
3994211393
3994220304
3994226102
3994234891
3994240690
3994249723
3994256437
3994265043
3994271329
3994280362
3994286100
3994294462
3994302396
3994308927
3994315458
3994324308
3994332059
3994341520
3994348478
3994358060
3994366910
3994376126
3994379361
3994391690
3994398892
3994407865
3994417020
3994423734
3994433866
3994441007
3994449246
3994455533
3994463345
3994469754
3994479031
3994483853
3994494351
3994499234
3994509183
3994513760
3994522488
3994526883
3994537625
3994542935
3994551663
3994558804
3994568448
3994576443
3994582303
3994588589
3994596829
3994603543
3994613064
3994617825
3994626919
3994633511
3994640774
3994647122
3994655056
3994661831
3994670132
3994678189
3994687771
3994693203
3994703152
3994711514
3994719387
3994726223
3994733181
3994742397
3994750515
3994757046
3994764553
3994771389
3994779202
3994785549
3994793850
3994802151
3994810085
3994817226
3994823269
3994831448
3994839626
3994845669
3994854030
3994861049
3994870022
3994877346
3994885769
3994894558
3994901149
3994910610
3994918422
3994928981
3994936611
3994944240
3994950649
3994957546
3994963832
3994970241
3994981349
3994988185
3994994594
3995002284
3995008693
3995017543
3995022121
3995032131
3995038295
3995048671
3995053188
3995063808
3995068507
3995078212
3995083339
3995091396
3995101588
3995107631
3995115626
3995122279
3995129298
3995136989
3995143214
3995152980
3995161647
3995170253
3995175014
3995184657
3995190028
3995199366
3995204005
3995213344
3995219203
3995228602
3995233790
3995244715
3995252223
3995260524
3995268214
3995275660
3995284022
3995291651
3995299891
3995305567
3995316065
3995322352
3995330042
3995337061
3995347132
3995353968
3995362025
3995370509
3995377100
3995385035
3995391993
3995400599
3995407557
3995414759
3995423914
3995430140
3995437830
3995444239
3995452540
3995458765
3995466822
3995474756
3995482569
3995488733
3995496241
3995504053
3995510218
3995516687
3995526148
3995532190
3995539942
3995547815
3995553919
3995562464
3995571192
3995577539
3995586878
3995594995
3995601587
3995608972
3995616724
3995623377
3995632532
3995639551
3995649317
3995657983
3995665674
3995672571
3995680689
3995688989
3995697168
3995704431
3995714380
3995719385
3995730005
3995735498
3995746545
3995753015
3995761072
3995769372
3995775842
3995785852
3995792932
3995800988
3995808435
3995816369
3995823571
3995831689
3995839380
3995846948
3995854943
3995863061
3995870324
3995877038
3995886804
3995894433
3995902490
3995908410
3995917260
3995923730
3995932336
3995941003
3995950341
3995957726
3995965295
3995972985
3995979333
3995987328
3995993493
3996003320
3996010094
3996017785
3996023583
3996031274
3996039757
3996047997
3996056420
3996062890
3996070580
3996077721
3996085351
3996093773
3996099267
3996106652
3996115807
3996123619
3996130211
3996138512
3996147850
3996155785
3996163414
3996170861
3996181542
3996188378
3996196800
3996203026
3996211876
3996217980
3996225121
3996234703
3996243736
3996250084
3996257469
3996265770
3996273399
3996279137
3996287437
3996293724
3996302452
3996308556
3996317528
3996323387
3996332054
3996338341
3996346397
3996354881
3996362327
3996370445
3996378746
3996385338
3996394737
3996402366
3996411461
3996419578
3996428306
3996433311
3996443382
3996451194
3996458580
3996464622
3996474327
3996482872
3996489097
3996497459
3996505638
3996513816
3996521201
3996530784
3996539451
3996546409
3996554466
3996562095
3996569358
3996577354
3996584312
3996592857
3996599998
3996607932
3996614463
3996622214
3996630393
3996637351
3996644858
3996651389
3996661460
3996671164
3996678061
3996685996
3996693259
3996699485
3996707908
3996714743
3996725119
3996731223
3996740134
3996745932
3996753745
3996759482
3996768027
3996775778
3996786704
3996796042
3996803366
3996810141
3996819418
3996829184
3996837729
3996844504
3996853354
3996862509
3996868979
3996877524
3996883566
3996891562
3996899252
3996909079
3996915976
3996923483
3996931479
3996934164
3996945456
3996952292
3996960348
3996968161
3996973959
3996983664
3996990439
3996998434
3997005758
3997013815
3997021261
3997030722
3997039144
3997046652
3997055136
3997061361
3997066366
3997078024
3997085104
3997093344
3997100851
3997108419
3997115988
3997122030
3997131368
3997139974
3997148824
3997155721
3997164632
3997172201
3997181600
3997187093
3997196310
3997205160
3997213277
3997221151
3997227254
3997232015
3997242635
3997250265
3997257467
3997266988
3997273092
3997282247
3997288350
3997296102
3997304158
3997309835
3997318258
3997327108
3997333699
3997338155
3997348226
3997354512
3997362142
3997367086
3997377156
3997385152
3997391683
3997396565
3997407857
3997412679
3997422322
3997427632
3997437703
3997444051
3997453999
3997458699
3997469197
3997475972
3997483479
3997490376
3997498372
3997505574
3997511739
3997519307
3997527180
3997533589
3997541524
3997549031
3997557332
3997565510
3997572346
3997579854
3997587422
3997593464
3997601338
3997609700
3997616047
3997624958
3997631184
3997639180
3997646870
3997649922
3997660786
3997668904
3997675862
3997686909
3997693806
3997701801
3997707600
3997715595
3997723591
3997730488
3997737751
3997747028
3997755024
3997762470
3997770527
3997776569
3997784199
3997786884
3997798176
3997803486
3997813251
3997817951
3997829182
3997836750
3997844318
3997851032
3997859699
3997867450
3997875446
3997882221
3997888813
3997898395
3997904865
3997913837
3997920795
3997929950
3997937397
3997947101
3997954669
3997964496
3997970233
3997981952
3997990985
3997997089
3998004718
3998010517
3998015094
3998025714
3998033038
3998039813
3998049091
3998055255
3998059833
3998070392
3998075702
3998084735
3998089435
3998100604
3998108722
3998116839
3998124225
3998130023
3998134540
3998144916
3998150226
3998162799
3998171100
3998178119
3998186358
3998194598
3998203875
3998209796
3998220477
3998230059
3998238116
3998245440
3998251300
3998260882
3998267596
3998275347
3998283526
3998291339
3998297991
3998308184
3998312945
3998325213
3998332964
3998338519
3998345721
3998352190
3998361590
3998367388
3998374957
3998380389
3998389605
3998399676
3998406267
3998414141
3998421953
3998429034
3998436114
3998443560
3998449969
3998458574
3998463823
3998469988
3998476946
3998484331
3998490252
3998496416
3998504412
3998512590
3998519060
3998527849
3998534685
3998541521
3998547014
3998554277
3998561174
3998570574
3998578020
3998583513
3998590715
3998597612
3998605303
3998613359
3998621233
3998629045
3998637224
3998646135
3998654436
3998661821
3998669817
3998678239
3998687639
3998693132
3998703447
3998711748
3998719438
3998726701
3998733049
3998741105
3998749101
3998756975
3998762834
3998770646
3998778520
3998785905
3998793046
3998801591
3998809648
3998817033
3998823198
3998830766
3998836869
3998841630
3998852006
3998856767
3998866471
3998870988
3998880387
3998888810
3998894853
3998902116
3998911759
3998917558
3998928544
3998933671
3998942765
3998950089
3998957963
3998963090
3998974320
3998983414
3998989579
3998997819
3999005387
3999012772
3999019242
3999023820
3999034989
3999042130
3999050309
3999058549
3999064530
3999072770
3999078812
3999083695
3999094498
3999103104
3999109940
3999114396
3999124283
3999131424
3999138871
3999145768
3999152664
3999160782
3999169083
3999176346
3999184342
3999190811
3999198502
3999203262
3999212357
3999221695
3999229996
3999234573
3999243973
3999249100
3999258377
3999263077
3999272659
3999280350
3999288834
3999293838
3999303726
3999308792
3999318130
3999325760
3999332290
3999339615
3999349869
3999354996
3999363968
3999369217
3999379837
3999384964
3999396194
3999403396
3999411941
3999418960
3999426712
3999433792
3999441665
3999448135
3999457412
3999464065
3999472488
3999478958
3999485671
3999495620
3999500442
3999511550
3999516860
3999527236
3999531997
3999542190
3999547134
3999556533
3999565444
3999571975
3999580947
3999589126
3999595168
3999603408
3999608169
3999618056
3999623000
3999633925
3999643813
3999650649
3999659682
3999668166
3999676040
3999682021
3999690993
3999697463
3999706923
3999713454
3999720778
3999728591
3999734938
3999742812
3999747328
3999756423
3999763991
3999774428
3999778945
3999788039
3999795546
3999804640
3999812026
3999821791
3999831069
3999839308
3999846632
3999856215
3999860976
3999871596
3999879469
3999889235
3999897169
3999904982
3999914320
3999920302
3999927626
3999935194
3999943495
3999950880
3999958754
3999967054
3999972670
3999980665
3999987623
3999993605
4000000441
4000008192
4000015028
4000021986
4000026564
4000033461
4000039015
4000047926
4000051649
4000059828
4000067030
4000072157
4000078260
4000085218
4000091505
4000095411
4000103834
4000111402
4000118482
4000124769
4000131788
4000138441
4000145399
4000151441
4000158949
4000162305
4000169691
4000173231
4000181348
4000188001
4000194776
4000202405
4000209913
4000216505
4000223218
4000228712
4000234815
4000240735
4000247571
4000253736
4000258863
4000264600
4000270459
4000277112
4000282666
4000288709
4000295240
4000302259
4000308240
4000313672
4000319715
4000325147
4000329541
4000336194
4000341992
4000347180
4000354077
4000358533
4000364820
4000370374
4000377332
4000382215
4000387525
4000395886
4000412183
4000418164
4000424756
4000430371
4000436841
4000442944
4000448254
4000455396
4000461987
4000467908
4000473706
4000479260
4000484692
4000490063
4000495984
4000503308
4000508801
4000515271
4000523633
4000528760
4000534985
4000539013
4000547497
4000553723
4000560681
4000567456
4000574109
4000581372
4000588574
4000594799
4000602246
4000608166
4000615795
4000622204
4000628247
4000635510
4000642346
4000650463
4000657543
4000663830
4000670605
4000677136
4000684521
4000690563
4000697033
4000704174
4000709057
4000715710
4000722668
4000728954
4000734142
4000739758
4000746227
4000753857
4000760693
4000766491
4000772472
4000778149
4000783764
4000791088
4000797863
4000802807
4000809826
4000816418
4000823192
4000830700
4000836925
4000844921
4000852733
4000859142
4000864269
4000869945
4000878734
4000884594
4000890514
4000897899
4000902782
4000909496
4000914440
4000922069
4000925853
4000934276
4000941906
4000946910
4000953929
4000959178
4000967052
4000974071
4000981578
4000988658
4000993663
4001000560
4001007396
4001012584
4001020030
4001026866
4001032237
4001039317
4001044627
4001051219
4001056773
4001065013
4001072520
4001077769
4001085094
4001091746
4001098338
4001104930
4001111522
4001118907
4001125987
4001131419
4001139842
4001145640
4001152537
4001158580
4001168284
4001172984
4001182261
4001186595
4001195567
4001199717
4001208995
4001213145
4001221873
4001228526
4001239146
4001245494
4001252757
4001258860
4001266123
4001272410
4001280711
4001288951
4001295359
4001303172
4001308543
4001315806
4001323496
4001329173
4001337473
4001344920
4001350840
4001358530
4001366038
4001373789
4001379343
4001387583
4001393748
4001402842
4001406992
4001416758
4001420908
4001430124
4001434519
4001444834
4001452707
4001458384
4001465830
4001471445
4001480173
4001486521
4001494394
4001503244
4001510324
4001515696
4001525034
4001531076
4001538523
4001544199
4001552866
4001562326
4001569345
4001576425
4001584543
4001591013
4001598825
4001601389
4001613962
4001622385
4001631113
4001638376
4001645090
4001653757
4001660165
4001668832
4001677866
4001685556
4001693002
4001698862
4001706491
4001714059
4001721322
4001728158
4001736154
4001743966
4001746530
4001757760
4001764169
4001771920
4001779550
4001787423
4001794503
4001802804
4001808725
4001816171
4001822824
4001830148
4001838143
4001845162
4001850717
4001861825
4001868905
4001876901
4001883431
4001890756
4001896371
4001904488
4001912423
4001918710
4001926522
4001932504
4001941048
4001947823
4001956490
4001965096
4001973031
4001981087
4001987252
4001995064
4002002755
4002008431
4002016854
4002025826
4002033028
4002039437
4002048348
4002055489
4002063363
4002072213
4002078621
4002087838
4002095894
4002102242
4002110421
4002116402
4002124092
4002128609
4002139778
4002148323
4002154305
4002162300
4002168404
4002174751
4002182747
4002189583
4002197151
4002204476
4002214363
4002222359
4002228157
4002234627
4002243355
4002248177
4002258919
4002264717
4002273994
4002278755
4002288948
4002293587
4002304024
4002311287
4002317451
4002325752
4002334114
4002340400
4002348274
4002356147
4002363105
4002370552
4002380195
4002388679
4002396553
4002402534
4002409919
4002416389
4002424202
4002431526
4002439949
4002447456
4002453437
4002463752
4002471443
4002480293
4002487922
4002499152
4002505378
4002514900
4002521919
4002530402
4002537727
4002546882
4002551337
4002561713
4002566962
4002576728
4002581428
4002591193
4002595710
4002604743
4002612617
4002619208
4002627570
4002635566
4002643683
4002650336
4002658942
4002666388
4002673529
4002680182
4002689399
4002696235
4002707099
4002714606
4002724555
4002732550
4002742621
4002748480
4002758429
4002765326
4002772345
4002779120
4002787787
4002794623
4002801459
4002809577
4002819647
4002824408
4002832709
4002839056
4002847479
4002855414
4002861395
4002870734
4002879217
4002885809
4002893561
4002902106
4002909125
4002915350
4002923529
4002931647
4002939764
4002946295
4002954474
4002961676
4002968145
4002976324
4002983587
4002990728
4002998785
4003006964
4003013555
4003019293
4003027471
4003033758
4003041143
4003050909
4003057623
4003065313
4003075201
4003082098
4003091375
4003101446
4003114935
4003121221
4003130071
4003139104
4003147955
4003156377
4003163580
4003171819
4003180852
4003189580
4003198980
4003201909
4003212713
4003219610
4003227483
4003233526
4003240423
4003249639
4003255742
4003260381
4003271611
4003276494
4003285405
4003292485
4003300847
4003306157
4003317937
4003324590
4003332891
4003340886
4003346868
4003351934
4003361455
4003370366
4003378850
4003384892
4003392400
4003400029
4003406011
4003413701
4003420720
4003427922
4003436345
4003444157
4003451909
4003456548
4003466862
4003471562
4003482243
4003490727
4003497136
4003502263
4003513432
4003517949
4003527226
4003536259
4003544316
4003552556
4003559453
4003567997
4003573796
4003580937
4003588261
4003594792
4003603337
4003611393
4003620488
4003628300
4003636235
4003646488
4003651982
4003662907
4003671757
4003679997
4003687260
4003696293
4003702580
4003710209
4003716801
4003725040
4003732182
4003739872
4003747013
4003756351
4003764347
4003770206
4003777592
4003786075
4003794987
4003802616
4003809940
4003817631
4003825626
4003833011
4003839847
4003847721
4003854068
4003862247
4003869510
4003877750
4003886356
4003892215
4003906253
4003912418
4003923343
4003929325
4003937259
4003944889
4003951541
4003960758
4003968265
4003975772
4003984256
4003992069
4003999942
4004005740
4004013431
4004021915
4004028934
4004036990
4004045779
4004052005
4004060306
4004068301
4004074649
4004082889
4004090030
4004099307
4004107486
4004115848
4004121768
4004130252
4004136538
4004144534
4004150882
4004158816
4004167483
4004173953
4004181582
4004187930
4004195864
4004200381
4004212283
4004219790
4004229312
4004237796
4004243960
4004252749
4004261111
4004269961
4004276553
4004284670
4004293093
4004300356
4004306643
4004314883
4004321841
4004330691
4004339602
4004347720
4004354250
4004363894
4004368594
4004377016
4004383547
4004391665
4004398867
4004408388
4004414919
4004422182
4004428652
4004436281
4004445192
4004451845
4004458986
4004467958
4004474672
4004481691
4004488161
4004497621
4004504335
4004512026
4004521181
4004531496
4004536623
4004545046
4004551576
4004560793
4004565492
4004574953
4004581789
4004589784
4004596315
4004604189
4004610658
4004619630
4004624391
4004633913
4004642091
4004651979
4004656618
4004666261
4004671388
4004679872
4004686464
4004693361
4004700685
4004710878
4004715394
4004724977
4004731508
4004739015
4004745485
4004754823
4004759889
4004771058
4004776002
4004785829
4004790467
4004799195
4004805665
4004815492
4004820314
4004830445
4004837159
4004844972
4004851808
4004859010
4004865418
4004875062
4004882630
4004890626
4004897401
4004904908
4004911317
4004919862
4004926026
4004935120
4004943421
4004951356
4004958314
4004965638
4004973878
4004979554
4004988709
4004998597
4005004395
4005013672
4005021180
4005031067
4005038636
4005046631
4005053894
4005062867
4005069886
4005076050
4005085083
4005091126
4005099305
4005105286
4005113282
4005122010
4005130310
4005136780
4005144715
4005151184
4005164124
4005171631
4005181885
4005187317
4005198303
4005204834
4005213257
4005221008
4005228882
4005235474
4005243042
4005247925
4005258789
4005267456
4005276489
4005285034
4005291687
4005300598
4005308105
4005318664
4005324035
4005333130
4005337707
4005346801
4005353271
4005362060
4005366821
4005377136
4005384643
4005392578
4005400146
4005406311
4005411071
4005421752
4005430480
4005436645
4005444213
4005452941
4005459228
4005467346
4005474914
4005482421
4005491638
4005498229
4005506591
4005513915
4005518920
4005527404
4005534972
4005544616
4005553283
4005559569
4005567687
4005575866
4005582580
4005590575
4005598266
4005605590
4005613891
4005622313
4005630736
4005636657
4005645079
4005651122
4005660460
4005666869
4005675658
4005682189
4005690123
4005696776
4005705748
4005710265
4005721678
4005729308
4005737425
4005746031
4005753783
4005762999
4005770018
4005779967
4005787291
4005795836
4005803160
4005811522
4005816283
4005826292
4005830931
4005840514
4005847411
4005856139
4005862669
4005869871
4005876280
4005885069
4005891539
4005900084
4005908629
4005917479
4005922850
4005932432
4005939024
4005946226
4005952818
4005962095
4005966978
4005977781
4005982542
4005992063
4005998838
4006006895
4006013792
4006021604
4006028257
4006037840
4006043211
4006052671
4006061765
4006069395
4006076414
4006085203
4006093565
4006099424
4006108030
4006115110
4006122739
4006129575
4006138242
4006146055
4006155820
4006162473
4006169248
4006177427
4006184385
4006191038
4006197324
4006206663
4006216794
4006223386
4006230954
4006237302
4006246946
4006253232
4006262632
4006269223
4006278318
4006286130
4006293882
4006302182
4006310727
4006317380
4006325986
4006332944
4006340085
4006348813
4006355710
4006365048
4006370358
4006380856
4006385800
4006395871
4006400693
4006411008
4006419247
4006425595
4006430112
4006442502
4006451047
4006457211
4006466916
4006473263
4006483456
4006490903
4006500607
4006507992
4006515805
4006523251
4006532650
4006537228
4006546017
4006552975
4006561703
4006568478
4006578488
4006583187
4006592831
4006600643
4006606686
4006611203
4006622372
4006630184
4006636654
4006641476
4006651608
4006659725
4006665768
4006670529
4006681088
4006689449
4006697323
4006702755
4006712826
4006720333
4006726192
4006732845
4006742428
4006748165
4006758907
4006765743
4006774593
4006782406
4006788936
4006795589
4006804134
4006810970
4006818783
4006825374
4006833065
4006839290
4006846981
4006855220
4006861934
4006870418
4006878902
4006885433
4006893062
4006899593
4006907711
4006913387
4006922176
4006930782
4006939205
4006945918
4006952327
4006961482
4006968746
4006976436
4006986629
4006995723
4007006160
4007011104
4007021419
4007027766
4007036861
4007043025
4007053767
4007062617
4007070613
4007076289
4007085505
4007089961
4007101741
4007107966
4007117305
4007126521
4007154353
4007161189
4007170710
4007177790
4007186640
4007191401
4007201777
4007209651
4007216120
4007224604
4007233760
4007241816
4007248469
4007257197
4007266902
4007277583
4007286005
4007297480
4007303523
4007314204
4007319453
4007329645
4007336787
4007345209
4007352473
4007361994
4007370783
4007377253
4007383600
4007392573
4007397333
4007406916
4007411738
4007422114
4007431330
4007437800
4007442377
4007452631
4007457331
4007465204
4007471247
4007481928
4007487238
4007497065
4007504877
4007512628
4007517450
4007526850
4007535578
4007542536
4007550470
4007558161
4007566217
4007572809
4007581171
4007589410
4007595514
4007605768
4007612604
4007621637
4007629510
4007636102
4007643793
4007649286
4007660150
4007665155
4007674249
4007681634
4007691095
4007696100
4007704400
4007711847
4007721002
4007729242
4007735772
4007744195
4007752130
4007759027
4007767022
4007775262
4007783441
4007790887
4007798944
4007806939
4007813775
4007821893
4007828912
4007837457
4007844476
4007853509
4007861382
4007867608
4007875176
4007884271
4007889642
4007899773
4007907403
4007915643
4007922784
4007930962
4007937493
4007945977
4007952630
4007958916
4007968804
4007977471
4007983941
4007990349
4007996758
4008005364
4008012566
4008023674
4008029168
4008040337
4008045769
4008054375
4008062432
4008070366
4008075737
4008085930
4008093682
4008101311
4008108269
4008115837
4008123223
4008129265
4008136650
4008145561
4008154534
4008160881
4008169121
4008174187
4008184135
4008189751
4008199272
4008204521
4008214287
4008222038
4008228142
4008236565
4008243278
4008251457
4008258598
4008266960
4008276298
4008281120
4008289482
4008296074
4008305351
4008309807
4008320732
4008328972
4008337089
4008342888
4008352043
4008356681
4008365654
4008373771
4008380119
4008387687
4008396049
4008403373
4008409355
4008417289
4008423759
4008432304
4008438835
4008448905
4008456046
4008462882
4008470207
4008478202
4008484061
4008489249
4008498161
4008506217
4008514213
4008519096
4008528617
4008533561
4008543204
4008548148
4008559501
4008564994
4008575492
4008580619
4008589896
4008594596
4008603568
4008608451
4008618583
4008623404
4008632621
4008637381
4008646964
4008653495
4008662711
4008667838
4008676688
4008683463
4008691764
4008698477
4008706778
4008711844
4008720755
4008725882
4008735343
4008742667
4008751639
4008760489
4008768607
4008773612
4008781668
4008788443
4008797415
4008804739
4008813650
4008821585
4008829153
4008836600
4008842032
4008850699
4008858084
4008866568
4008873526
4008878103
4008889883
4008898245
4008907339
4008915823
4008922903
4008932608
4008939016
4008948294
4008955557
4008963003
4008969656
4008980459
4008988333
4008996206
4009003836
4009011465
4009017568
4009026235
4009033682
4009042349
4009049978
4009055837
4009064077
4009072683
4009080007
4009085928
4009096914
4009105093
4009112356
4009119009
4009127553
4009134389
4009141103
4009150808
4009158681
4009166921
4009176198
4009182790
4009191579
4009197866
4009204580
4009210561
4009219228
4009225698
4009232961
4009240285
4009246877
4009252980
4009259511
4009266408
4009270009
4009278920
4009284719
4009291371
4009296987
4009301747
4009310658
4009316945
4009322621
4009329030
4009335256
4009341481
4009345693
4009353688
4009361379
4009367970
4009373586
4009380238
4009387624
4009392873
4009399342
4009405751
4009412282
4009419789
4009426137
4009433034
4009440114
4009445363
4009451955
4009457997
4009465138
4009469105
4009477406
4009482838
4009489613
4009496998
4009502980
4009507985
4009513478
4009518910
4009525197
4009530568
4009536244
4009541981
4009547596
4009553517
4009557911
4009565052
4009570362
4009575856
4009582569
4009587147
4009592579
4009597035
4009605152
4009611561
4009617909
4009624134
4009629078
4009635731
4009642750
4009649281
4009655079
4009660877
4009667469
4009674122
4009679615
4009685902
4009692249
4009698902
4009705006
4009710499
4009717945
4009723743
4009731312
4009736500
4009743824
4009749927
4009756153
4009762317
4009769092
4009775745
4009782581
4009788440
4009795765
4009804493
4009808765
4009817188
4009823169
4009830616
4009837085
4009843860
4009851062
4009855396
4009863514
4009870410
4009877124
4009883594
4009888843
4009896717
4009902515
4009909473
4009916858
4009922962
4009929675
4009935413
4009942737
4009947559
4009955066
4009958972
4009969348
4009975696
4009980823
4009988330
4009994128
4010002429
4010008105
4010021289
4010033618
4010042834
4010051013
4010059619
4010064929
4010073474
4010079333
4010086657
4010093127
4010099902
4010107470
4010114795
4010123034
4010130236
4010137133
4010144641
4010151599
4010158068
4010165271
4010173144
4010179553
4010184558
4010192065
4010199511
4010208117
4010215258
4010223010
4010232714
4010239855
4010249133
4010255969
4010265429
4010274157
4010282519
4010292773
4010299059
4010309191
4010315905
4010323595
4010330614
4010342333
4010346911
4010355944
4010363634
4010370897
4010378588
4010387011
4010395128
4010400805
4010411181
4010418200
4010427599
4010434984
4010442797
4010450548
4010461290
4010468920
4010476427
4010484178
4010493029
4010499742
4010507677
4010515184
4010522386
4010530504
4010538927
4010548448
4010554979
4010562486
4010570543
4010576463
4010585252
4010591295
4010599962
4010606920
4010613512
4010621263
4010628892
4010636705
4010644639
4010652635
4010658433
4010666856
4010673570
4010684007
4010692918
4010700914
4010710069
4010717088
4010726915
4010733751
4010742418
4010748826
4010758226
4010762986
4010772447
4010777818
4010787339
4010793809
4010803025
4010812913
4010821153
4010833726
4010842942
4010854356
4010862229
4010871629
4010879441
4010890733
4010899522
4010907761
4010918381
4010927781
4010935044
4010945420
4010953049
4010963364
4010972031
4010982712
4010990708
4011001938
4011009934
4011021531
4011030686
4011042893
4011050949
4011058762
4011067246
4011075180
4011082871
4011091538
4011100632
4011109177
4011118088
4011125229
4011132370
4011139572
4011147568
4011153793
4011160141
4011168198
4011175583
4011181564
4011191330
4011199692
4011205673
4011211533
4011219040
4011226242
4011234360
4011240829
4011248520
4011256149
4011262253
4011274154
4011284408
4011297165
4011308029
4011316818
4011325424
4011336166
4011343429
4011349472
4011356979
4011363815
4011370346
4011376571
4011386642
4011394271
4011401779
4011408554
4011415328
4011422714
4011429916
4011436813
4011444503
4011455917
4011465499
4011474471
4011485885
4011497054
4011506881
4011515426
4011528121
4011534225
4011546981
4011553695
4011565047
4011573165
4011582015
4011591353
4011601790
4011609420
4011622786
4011630111
4011638716
4011648665
4011659346
4011668257
4011675887
4011684737
4011692244
4011702315
4011709883
4011720870
4011726424
4011737593
4011742903
4011754439
4011762801
4011769820
4011777388
4011787032
4011796614
4011804549
4011812361
4011819197
4011828291
4011836348
4011844771
4011853499
4011860396
4011869429
4011876997
4011883528
4011889692
4011896467
4011905317
4011913923
4011919477
4011927778
4011935163
4011943953
4011950361
4011958235
4011967268
4011973066
4011977156
4011985945
4011994367
4012001142
4012006697
4012017011
4012026716
4012034406
4012039961
4012046980
4012053754
4012058698
4012066877
4012074201
4012082868
4012087995
4012094770
4012103620
4012113386
4012122297
4012132123
4012142621
4012149457
4012158857
4012167158
4012175397
4012186139
4012193891
4012203717
4012214460
4012221967
4012231855
4012241620
4012249494
4012259992
4012272504
4012281537
4012293683
4012303571
4012312482
4012322431
4012330975
4012340741
4012348981
4012358929
4012368451
4012378033
4012385785
4012397137
4012403119
4012414166
4012422833
4012431866
4012439068
4012448773
4012455914
4012463116
4012470257
4012480023
4012484906
4012494854
4012501996
4012510235
4012517743
4012527386
4012536541
4012542767
4012553448
4012558270
4012568157
4012576092
4012581890
4012590618
4012598248
4012603008
4012614483
4012620648
4012628826
4012635967
4012644024
4012651226
4012657208
4012667461
4012674847
4012682720
4012689129
4012697369
4012704327
4012711651
4012718426
4012728313
4012734112
4012741985
4012747906
4012755962
4012764019
4012772320
4012778362
4012785198
4012794414
4012803814
4012810222
4012817363
4012824443
4012832683
4012840435
4012846782
4012854778
4012864116
4012870708
4012877361
4012885967
4012892192
4012901470
4012909892
4012917400
4012925334
4012932353
4012939983
4012946330
4012954387
4012960490
4012971660
4012977092
4012985881
4012993266
4013001323
4013008464
4013017619
4013022441
4013033427
4013038859
4013048442
4013053691
4013066264
4013073771
4013080302
4013088847
4013095500
4013103923
4013111613
4013117106
4013126994
4013134684
4013142436
4013149516
4013158183
4013166667
4013172587
4013181742
4013188273
4013194682
4013203288
4013211894
4013219096
4013228373
4013233073
4013242960
4013249552
4013256998
4013263468
4013270976
4013277811
4013286356
4013293314
4013301127
4013307535
4013315409
4013322672
4013333231
4013340372
4013350016
4013354777
4013363382
4013370096
4013377909
4013385355
4013393900
4013398661
4013409647
4013414408
4013424845
4013434793
4013441629
4013450418
4013459330
4013467203
4013473673
4013481302
4013488199
4013495462
4013503641
4013511087
4013518289
4013527811
4013534403
4013543253
4013549844
4013556986
4013564005
4013572488
4013579996
4013591592
4013597147
4013607706
4013612466
4013622537
4013627237
4013639871
4013648538
4013654397
4013664346
4013670999
4013678567
4013685403
4013692239
4013701211
4013709695
4013716836
4013724710
4013730447
4013739297
4013745217
4013753701
4013763772
4013769998
4013778359
4013784829
4013790872
4013798013
4013805886
4013812539
4013821755
4013829568
4013839028
4013846291
4013852639
4013861611
4013870400
4013876870
4013886758
4013894204
4013901772
4013910012
4013916726
4013924111
4013930825
4013940529
4013947548
4013957680
4013962502
4013972451
4013977273
4013987221
4013992653
4014001748
4014008278
4014018471
4014025612
4014033425
4014041237
4014047402
4014056984
4014066506
4014074379
4014081215
4014089089
4014096474
4014103859
4014111000
4014120216
4014126991
4014135780
4014142983
4014151283
4014159645
4014168007
4014176064
4014182960
4014192726
4014198769
4014207436
4014213234
4014221168
4014226967
4014237160
4014246437
4014253517
4014259437
4014268226
4014274147
4014282692
4014288795
4014296547
4014305275
4014312111
4014319984
4014327430
4014333717
4014342506
4014348670
4014357399
4014365211
4014371986
4014380958
4014387428
4014395912
4014401954
4014407935
4014416847
4014424903
4014431556
4014438392
4014446510
4014455055
4014461524
4014467445
4014477760
4014484962
4014493507
4014500098
4014507484
4014513404
4014522559
4014529334
4014538550
4014545447
4014553687
4014560340
4014568519
4014576270
4014583716
4014590735
4014599891
4014604712
4014613990
4014621253
4014630347
4014635230
4014645545
4014653174
4014662268
4014671790
4014681311
4014688330
4014694922
4014702918
4014710486
4014716712
4014726904
4014735022
4014743628
4014750830
4014756751
4014764807
4014773718
4014782019
4014790930
4014797949
4014804114
4014813330
4014819189
4014829748
4014837561
4014845129
4014852270
4014861303
4014867834
4014876074
4014883093
4014890417
4014898474
4014906714
4014913916
4014923803
4014928625
4014936682
4014943151
4014952124
4014958959
4014968298
4014973242
4014983190
4014989721
4014998876
4015003454
4015013586
4015018224
4015028784
4015034460
4015044775
4015049413
4015058996
4015063634
4015074377
4015079198
4015088110
4015097509
4015104406
4015109472
4015122472
4015129980
4015138463
4015147191
4015153356
4015162450
4015170812
4015177770
4015184179
4015192785
4015199498
4015206884
4015213414
4015222631
4015229161
4015237828
4015245580
4015253575
4015259008
4015268041
4015275731
4015284093
4015292027
4015299657
4015302587
4015314488
4015324376
4015332738
4015341405
4015349095
4015357823
4015367284
4015375096
4015382603
4015390599
4015401280
4015409947
4015416844
4015424412
4015431309
4015440098
4015447789
4015457310
4015464207
4015475132
4015483433
4015491551
4015501255
4015510044
4015517674
4015526646
4015535313
4015543797
4015550816
4015557469
4015564793
4015570896
4015580479
4015588902
4015597263
4015604221
4015610569
4015619358
4015624546
4015634556
4015641758
4015648838
4015657688
4015663303
4015670750
4015677891
4015684116
4015693699
4015701084
4015707126
4015714512
4015722019
4015731235
4015735874
4015746738
4015753635
4015761326
4015768650
4015775852
4015782932
4015789524
4015797275
4015805088
4015812778
4015820896
4015826816
4015834568
4015841342
4015848850
4015854587
4015863010
4015871189
4015877597
4015885837
4015891330
4015899814
4015903476
4015913608
4015920505
4015928500
4015935947
4015943088
4015951572
4015959323
4015969272
4015975742
4015984470
4015990634
4015999728
4016007663
4016014743
4016019198
4016029452
4016037570
4016044528
4016050631
4016057712
4016067660
4016075473
4016083346
4016090121
4016098849
4016106906
4016115390
4016120517
4016129916
4016134921
4016145297
4016155978
4016161898
4016169833
4016178439
4016184298
4016192721
4016200656
4016207064
4016214938
4016224337
4016230624
4016237032
4016246188
4016251925
4016263888
4016271029
4016279024
4016285555
4016294344
4016300082
4016308504
4016315340
4016323031
4016329928
4016340365
4016346834
4016355074
4016362032
4016369661
4016376253
4016383883
4016392794
4016400606
4016407015
4016415132
4016421602
4016428499
4016435274
4016444063
4016450960
4016460420
4016465303
4016475191
4016480257
4016489351
4016494661
4016508455
4016515352
4016524141
4016531831
4016540193
4016546053
4016553621
4016560823
4016570772
4016578950
4016584871
4016593416
4016599397
4016607881
4016614656
4016624544
4016631441
4016640535
4016647188
4016654817
4016661226
4016668000
4016675081
4016683686
4016690583
4016698579
4016705171
4016714631
4016721223
4016728852
4016735627
4016743135
4016749787
4016759126
4016765901
4016776582
4016782563
4016793611
4016801118
4016809663
4016820588
4016827119
4016835297
4016843415
4016850007
4016858857
4016866608
4016875703
4016881623
4016890412
4016897736
4016903962
4016911347
4016919648
4016926789
4016937287
4016944123
4016952118
4016959626
4016966279
4016974335
4016980439
4016988923
4016997712
4017004792
4017011017
4017018891
4017026947
4017032929
4017040253
4017049347
4017058686
4017066803
4017074066
4017082062
4017088532
4017097199
4017103974
4017112518
4017119598
4017128815
4017135956
4017143463
4017149994
4017157135
4017165558
4017171966
4017179230
4017188141
4017194977
4017202240
4017208587
4017217682
4017224823
4017234405
4017241058
4017248321
4017254852
4017262054
4017270355
4017276519
4017283233
4017292816
4017299530
4017309234
4017314117
4017323822
4017328460
4017337188
4017344451
4017354400
4017361785
4017370269
4017377654
4017383331
4017391692
4017398223
4017406768
4017414703
4017423003
4017429595
4017438079
4017445220
4017452422
4017458465
4017466155
4017475860
4017483550
4017489959
4017497710
4017506011
4017512237
4017519073
4017527373
4017537017
4017543181
4017549163
4017558684
4017566192
4017575042
4017582488
4017591704
4017598418
4017608245
4017616729
4017624724
4017632170
4017638396
4017648345
4017654936
4017662993
4017669768
4017679167
4017686308
4017696867
4017708281
4017718901
4017730681
4017741606
4017749785
4017759673
4017768767
4017775236
4017783537
4017792937
4017799834
4017807402
4017814848
4017824125
4017829741
4017842314
4017847929
4017857939
4017866545
4017874601
4017882353
4017888273
4017896025
4017906157
4017912687
4017920256
4017927885
4017935575
4017941984
4017950224
4017958219
4017966886
4017974638
4017981291
4017988737
4017996366
4018003324
4018012296
4018018949
4018028043
4018036466
4018042448
4018050993
4018057340
4018064909
4018072660
4018078702
4018088834
4018097074
4018104642
4018110685
4018118680
4018124906
4018133939
4018141202
4018150724
4018159086
4018165067
4018173551
4018179410
4018188321
4018194913
4018203763
4018210538
4018220548
4018225431
4018235074
4018239774
4018249906
4018255094
4018264859
4018272183
4018278775
4018286282
4018295010
4018300137
4018310147
4018318997
4018327847
4018335782
4018341641
4018349576
4018355801
4018364529
4018372220
4018380398
4018387906
4018396573
4018404507
4018412503
4018419095
4018426663
4018434659
4018442471
4018451077
4018459012
4018465359
4018473904
4018481656
4018489834
4018496304
4018505947
4018512417
4018522061
4018528836
4018535977
4018542568
4018551846
4018558560
4018566189
4018573025
4018583340
4018588223
4018598782
4018605373
4018614040
4018618923
4018628750
4018634975
4018645718
4018649136
4018660488
4018669460
4018679897
4018687771
4018694485
4018702053
4018705349
4018714809
4018719570
4018724941
4018731899
4018738003
4018744961
4018750148
4018758327
4018765529
4018770412
4018776394
4018782436
4018788845
4018793117
4018800502
4018806118
4018811306
4018815883
4018822902
4018828639
4018834255
4018840846
4018846767
4018851406
4018857753
4018863429
4018869655
4018874233
4018881252
4018886745
4018891872
4018898586
4018904140
4018910732
4018915065
4018922328
4018925319
4018932277
4018938014
4018945766
4018953029
4018958400
4018964381
4018970363
4018977016
4018985316
4018989711
4018997401
4019002711
4019009547
4019015040
4019021266
4019027125
4019033290
4019037501
4019043788
4019048671
4019055629
4019060389
4019067286
4019073207
4019078639
4019083888
4019089259
4019095362
4019101588
4019107447
4019113002
4019120021
4019126429
4019131800
4019137049
4019142726
4019151332
4019156947
4019164088
4019171046
4019176478
4019184229
4019188868
4019196314
4019203883
4019209803
4019215723
4019222498
4019229151
4019236414
4019243616
4019250513
4019256983
4019262354
4019268641
4019275416
4019280237
4019288416
4019294092
4019300806
4019305811
4019313257
4019316919
4019326441
4019331873
4019339991
4019347071
4019351587
4019358728
4019363733
4019370325
4019375269
4019384424
4019391748
4019397547
4019403528
4019409815
4019417810
4019421472
4019430811
4019438196
4019445215
4019450830
4019455835
4019462915
4019467859
4019475427
4019479273
4019487268
4019493982
4019499902
4019506555
4019512659
4019518945
4019524255
4019532373
4019538721
4019544824
4019551233
4019556726
4019564966
4019571313
4019578393
4019586938
4019593469
4019600427
4019605981
4019613794
4019619409
4019626672
4019633691
4019639978
4019646325
4019654748
4019661401
4019668420
4019675378
4019680932
4019685876
4019693750
4019699365
4019706445
4019713281
4019720971
4019726708
4019734277
4019742028
4019748437
4019757409
4019764489
4019771020
4019777245
4019784753
4019791100
4019796716
4019804711
4019810387
4019819299
4019825951
4019832848
4019839684
4019846764
4019854821
4019861230
4019869652
4019877343
4019883568
4019891625
4019899010
4019905297
4019912560
4019920739
4019928368
4019934166
4019941613
4019948021
4019956688
4019960839
4019969872
4019978234
4019985863
4019991967
4019999108
4020006981
4020014611
4020021080
4020027367
4020037071
4020043480
4020050682
4020056847
4020063866
4020070458
4020080162
4020085350
4020096275
4020103783
4020111534
4020117882
4020124229
4020134117
4020141563
4020151207
4020158165
4020164207
4020173057
4020182579
4020191368
4020198631
4020208030
4020214561
4020222252
4020228538
4020240745
4020249656
4020257469
4020264000
4020271141
4020279136
4020287742
4020293357
4020303306
4020309837
4020319175
4020328086
4020336997
4020343589
4020351890
4020357810
4020365501
4020373863
4020382224
4020389976
4020398399
4020404136
4020412254
4020418174
4020429343
4020437095
4020444907
4020452048
4020461936
4020466941
4020476401
4020482871
4020491721
4020496482
4020506919
4020511741
4020521872
4020529136
4020537619
4020545371
4020553977
4020561484
4020567405
4020576194
4020582175
4020590476
4020597556
4020607077
4020613730
4020622763
4020629538
4020639304
4020645163
4020656455
4020665244
4020672019
4020680441
4020688620
4020696005
4020703818
4020711142
4020717673
4020727316
4020734213
4020743491
4020749533
4020757407
4020765951
4020771200
4020780051
4020787558
4020796957
4020804526
4020810934
4020818075
4020826803
4020834189
4020840170
4020848349
4020856833
4020865133
4020870993
4020879049
4020887106
4020894613
4020900534
4020909567
4020915792
4020924887
4020933737
4020940328
4020946615
4020955953
4020962362
4020970236
4020979757
4020987203
4020993246
4021001669
4021009664
4021016012
4021024068
4021032369
4021038412
4021046835
4021055196
4021061849
4021069906
4021076253
4021084371
4021091451
4021098348
4021107381
4021114705
4021123250
4021130636
4021138753
4021145406
4021153402
4021160115
4021168172
4021175008
4021183187
4021192098
4021198934
4021206014
4021213582
4021220357
4021228963
4021237264
4021243855
4021250630
4021258260
4021266622
4021273641
4021282857
4021290242
4021297322
4021305074
4021310872
4021317891
4021325520
4021333760
4021340901
4021349629
4021355122
4021363850
4021368306
4021378194
4021382405
4021393635
4021403645
4021408833
4021416951
4021426655
4021434346
4021441121
4021450825
4021457844
4021465718
4021474629
4021482258
4021488484
4021496113
4021503926
4021511860
4021521076
4021527363
4021535237
4021542805
4021549824
4021556355
4021564106
4021572773
4021580097
4021588093
4021594929
4021603107
4021605976
4021617085
4021623066
4021632709
4021641315
4021647602
4021656025
4021663471
4021670795
4021678974
4021688190
4021696064
4021704426
4021713276
4021720600
4021728718
4021734821
4021742695
4021749286
4021758686
4021767658
4021773517
4021781635
4021789508
4021795124
4021803852
4021810810
4021818988
4021827594
4021835651
4021842670
4021850299
4021856342
4021864154
4021870075
4021881122
4021888141
4021894000
4021902667
4021910724
4021917255
4021925128
4021932147
4021941974
4021949725
4021957599
4021964984
4021970843
4021978961
4021985003
4021993976
4022002643
4022012042
4022019916
4022026568
4022034808
4022042498
4022048358
4022059100
4022067096
4022073687
4022079913
4022087176
4022095416
4022103167
4022110308
4022118365
4022125872
4022132098
4022139361
4022147112
4022154009
4022160052
4022170306
4022177386
4022184466
4022191607
4022198992
4022207293
4022214556
4022223589
4022228350
4022238238
4022243792
4022251971
4022259295
4022266253
4022274004
4022281756
4022287737
4022295427
4022302996
4022310076
4022315142
4022321734
4022325762
4022337847
4022346026
4022351763
4022360857
4022366289
4022373552
4022380876
4022390215
4022399248
4022407793
4022414995
4022422685
4022429460
4022437700
4022445146
4022453813
4022461015
4022470720
4022475725
4022486101
4022490984
4022501604
4022512407
4022521562
4022527849
4022535966
4022543291
4022551591
4022558610
4022564592
4022573137
4022579973
4022588273
4022596696
4022601884
4022610734
4022618120
4022624589
4022632707
4022639421
4022648210
4022654191
4022661943
4022670732
4022678056
4022685197
4022693620
4022702714
4022708757
4022717546
4022724565
4022732072
4022739823
4022745805
4022755448
4022764543
4022770951
4022779313
4022785172
4022793656
4022800675
4022807511
4022818009
4022824479
4022832474
4022837907
4022848588
4022853776
4022865006
4022867692
4022879471
4022888566
4022894791
4022902604
4022908402
4022913041
4022924210
4022933121
4022942398
4022949051
4022957108
4022963395
4022971024
4022979203
4022986893
4022993363
4023001847
4023010391
4023016434
4023023880
4023031998
4023039688
4023045975
4023055130
4023064102
4023070389
4023078507
4023085404
4023093094
4023100845
4023106400
4023116531
4023125442
4023132217
4023139969
4023146805
4023154983
4023161148
4023169510
4023174209
4023185135
4023190384
4023200149
4023208267
4023214004
4023222854
4023230911
4023236404
4023246597
4023255508
4023261551
4023269180
4023276870
4023282913
4023290298
4023298416
4023307266
4023313980
4023321670
4023330154
4023336501
4023341140
4023350173
4023356704
4023367080
4023372085
4023381667
4023386245
4023396133
4023401565
4023411819
4023419265
4023426101
4023433425
4023441177
4023448073
4023457412
4023464553
4023472060
4023478835
4023486281
4023493117
4023502517
4023509658
4023519851
4023525771
4023537673
4023544997
4023553603
4023561782
4023568496
4023576308
4023582595
4023592116
4023598098
4023605666
4023614272
4023622939
4023629408
4023637831
4023644911
4023652175
4023659133
4023668105
4023675917
4023683730
4023690871
4023700270
4023705092
4023714980
4023719435
4023732191
4023739760
4023747450
4023753554
4023761244
4023768324
4023776076
4023782240
4023791212
4023800551
4023806532
4023814283
4023822279
4023829237
4023837416
4023844862
4023853590
4023861647
4023869703
4023876661
4023884291
4023887037
4023897657
4023902723
4023913832
4023919203
4023929090
4023937391
4023945509
4023952345
4023958570
4023966627
4023975904
4023984022
4023990247
4023998365
4024006666
4024011610
4024021375
4024026197
4024038343
4024046705
4024054334
4024061109
4024069166
4024075330
4024083082
4024091932
4024101392
4024107862
4024115857
4024121045
4024131299
4024137464
4024145276
4024149732
4024161206
4024169141
4024174939
4024183606
4024190137
4024195142
4024206128
4024214124
4024221753
4024228162
4024237500
4024245679
4024252820
4024261243
4024268140
4024275830
4024284619
4024291760
4024298352
4024307874
4024316357
4024323010
4024327893
4024341138
4024349621
4024355664
4024364697
4024370617
4024378003
4024385876
4024388440
4024402112
4024410595
4024416699
4024425366
4024431347
4024439526
4024445813
4024450268
4024461987
4024467602
4024478161
4024485546
4024491406
4024500195
4024505993
4024514050
4024522839
4024529736
4024538220
4024544933
4024550976
4024557385
4024566357
4024570690
4024583324
4024591137
4024597057
4024602184
4024612316
4024616711
4024627148
4024631725
4024641552
4024647289
4024658214
4024666515
4024672191
4024679455
4024687938
4024695934
4024703869
4024711315
4024719799
4024727977
4024734447
4024741527
4024750988
4024759533
4024764354
4024775219
4024784069
4024792064
4024799755
4024808055
4024814403
4024823314
4024830516
4024836376
4024845104
4024851634
4024859874
4024866283
4024876048
4024882396
4024891795
4024898326
4024906444
4024912364
4024921031
4024928661
4024936839
4024946788
4024955089
4024962657
4024971995
4024977672
4024989146
4024996776
4025006053
4025013499
4025020945
4025023631
4025035106
4025041697
4025049693
4025057017
4025065196
4025073374
4025079295
4025083811
4025094004
4025098582
4025110240
4025114756
4025125010
4025130259
4025140452
4025147898
4025155528
4025162669
4025168528
4025173289
4025186778
4025192942
4025201182
4025205943
4025215098
4025223399
4025230662
4025239695
4025247629
4025254832
4025262461
4025269846
4025276011
4025284128
4025292917
4025300364
4025309763
4025316843
4025325022
4025333017
4025338938
4025346262
4025353647
4025361399
4025369821
4025378061
4025387033
4025393320
4025400949
4025407968
4025414133
4025423349
4025431955
4025440439
4025448129
4025455820
4025464304
4025470285
4025476328
4025485361
4025494150
4025500742
4025506723
4025516000
4025522409
4025531076
4025536935
4025544809
4025553781
4025561288
4025569406
4025577218
4025583444
4025590768
4025599008
4025606881
4025615731
4025622262
4025630258
4025637887
4025644418
4025649057
4025659677
4025668649
4025676095
4025684579
4025692147
4025700143
4025707040
4025715158
4025723031
4025731759
4025737618
4025747323
4025754769
4025762215
4025768746
4025776864
4025782845
4025790719
4025799447
4025805611
4025813973
4025820992
4025827950
4025836312
4025845162
4025853219
4025862923
4025870736
4025877328
4025885994
4025892220
4025900460
4025907357
4025916695
4025926339
4025932503
4025937142
4025947152
4025954781
4025962532
4025967110
4025977791
4025985482
4025991768
4026001168
4026007576
4026014717
4026022408
4026028023
4026036751
4026045052
4026052437
4026059822
4026065804
4026070625
4026080696
4026089729
4026099068
4026105171
4026113472
4026122505
4026128609
4026137398
4026144417
4026153389
4026159248
4026170112
4026177437
4026188240
4026193367
4026203682
4026208503
4026220710
4026228706
4026236396
4026243599
4026251655
4026258674
4026266548
4026271308
4026283210
4026290412
4026298103
4026305732
4026312141
4026320014
4026326118
4026333137
4026342780
4026347968
4026356635
4026363532
4026371711
4026378120
4026388251
4026393195
4026403999
4026409125
4026418342
4026426765
4026433112
4026440314
4026447761
4026452888
4026464850
4026472236
4026480475
4026485480
4026495856
4026502204
4026510077
4026517157
4026525336
4026532721
4026541022
4026547797
4026556708
4026562873
4026570807
4026579108
4026588202
4026595404
4026602545
4026610419
