4243121156
4243127321
4243133363
4243138734
4243144410
4243148866
4243154664
4243161378
4243166322
4243171693
4243177003
4243182252
4243187501
4243194459
4243201234
4243207704
4243212220
4243217713
4243226503
4243233033
4243238832
4243244691
4243251710
4243258424
4243263368
4243271424
4243278993
4243285340
4243291078
4243298951
4243307801
4243316041
4243321961
4243327943
4243335572
4243344056
4243352113
4243360963
4243368104
4243375794
4243382508
4243389710
4243398804
4243404969
4243410340
4243418030
4243423279
4243431031
4243439026
4243446473
4243456116
4243461548
4243468995
4243474427
4243483155
4243489624
4243500611
4243509705
4243516724
4243525757
4243536988
4243546387
4243555237
4243562378
4243569519
4243576966
4243584656
4243593262
4243600342
4243606751
4243614807
4243620117
4243628845
4243636108
4243644592
4243654114
4243660828
4243669739
4243678101
4243684570
4243694031
4243702942
4243709106
4243718323
4243730469
4243738708
4243746643
4243752441
4243761108
4243769470
4243776611
4243785827
4243794433
4243801818
4243809326
4243818542
4243827819
4243835693
4243844238
4243850280
4243858825
4243867187
4243875976
4243881652
4243890869
4243900085
4243907104
4243916015
4243923827
4243930114
4243939147
4243946044
4243954406
4243962524
4243970519
4243979430
4243986022
4243994689
4243999755
4244009215
4244017577
4244024657
4244032958
4244041747
4244052062
4244059630
4244070433
4244077758
4244085143
4244092589
4244100951
4244107726
4244115050
4244124144
4244134032
4244140990
4244150939
4244162657
4244170897
4244181822
4244188597
4244199095
4244206053
4244216612
4244224242
4244230162
4244239561
4244245848
4244255064
4244262755
4244270994
4244280760
4244287047
4244296568
4244303648
4244312193
4244320982
4244329710
4244337217
4244346068
4244353087
4244360350
4244367369
4244375670
4244388914
4244396177
4244404173
4244412657
4244419859
4244427366
4244437193
4244443113
4244451658
4244460874
4244466123
4244474668
4244480528
4244491209
4244499571
4244506956
4244516416
4244522031
4244531248
4244538267
4244547544
4244554258
4244562864
4244570310
4244576841
4244584714
4244592832
4244601377
4244608335
4244617185
4244624448
4244631406
4244638181
4244647886
4244653440
4244663633
4244671323
4244676694
4244685605
4244692441
4244703000
4244710080
4244719052
4244727292
4244734433
4244742063
4244749814
4244758725
4244766782
4244773801
4244780759
4244788815
4244795957
4244808164
4244817136
4244826230
4244834042
4244842160
4244851010
4244858884
4244865903
4244875424
4244882260
4244889584
4244896786
4244905453
4244913571
4244921933
4244929135
4244937436
4244944150
4244950314
4244959958
4244967282
4244974423
4244982846
4244989804
4244994870
4245003659
4245009823
4245018368
4245026303
4245033749
4245040707
4245048763
4245058224
4245066220
4245073605
4245081967
4245089169
4245096676
4245104794
4245112240
4245119686
4245127255
4245134884
4245143978
4245152401
4245159176
4245166561
4245173031
4245182247
4245187374
4245196285
4245204586
4245213131
4245219967
4245225399
4245233272
4245238888
4245248104
4245255916
4245263118
4245269527
4245279781
4245287899
4245294124
4245303463
4245310543
4245319515
4245324886
4245334163
4245342708
4245350826
4245358577
4245365169
4245376033
4245383052
4245391658
4245396968
4245406245
4245415096
4245423152
4245432063
4245441768
4245447200
4245454646
4245461909
4245468440
4245476375
4245482417
4245488338
4245494685
4245503352
4245511104
4245518855
4245525508
4245538020
4245543940
4245551814
4245560847
4245567683
4245573970
4245581782
4245586726
4245594600
4245601802
4245609004
4245615779
4245620906
4245629267
4245636286
4245642695
4245648066
4245655818
4245662165
4245670161
4245676447
4245683344
4245689631
4245696162
4245702448
4245709345
4245715998
4245722407
4245730036
4245735590
4245742304
4245749628
4245756281
4245762873
4245769160
4245774164
4245782465
4245789484
4245795832
4245800715
4245808893
4245814142
4245821650
4245829584
4245837214
4245842646
4245851679
4245857538
4245864374
4245869806
4245878473
4245883905
4245893061
4245899103
4245908197
4245913507
4245920648
4245928339
4245932794
4245941095
4245946344
4245955866
4245961420
4245971063
4245976618
4245986139
4245991815
4246000055
4246007623
4246014642
4246022028
4246028192
4246035638
4246043817
4246051508
4246058343
4246064874
4246072137
4246078790
4246086053
4246094415
4246101922
4246107904
4246115777
4246121637
4246132440
4246138238
4246146356
4246153985
4246159723
4246168084
4246175286
4246182489
4246189752
4246197320
4246208428
4246216790
4246225274
4246237420
4246244622
4246254510
4246261407
4246269097
4246278314
4246284783
4246293267
4246299798
4246307000
4246315118
4246322076
4246328118
4246336114
4246342217
4246346734
4246353814
4246361748
4246370476
4246378838
4246387261
4246393792
4246403130
4246411187
4246419365
4246427178
4246434624
4246441643
4246448052
4246457085
4246463921
4246471184
4246477105
4246485772
4246491570
4246500176
4246505974
4246513726
4246522820
4246528130
4246535515
4246543022
4246552422
4246560906
4246566338
4246574944
4246581596
4246589287
4246596489
4246603935
4246612236
4246619621
4246625481
4246633110
4246641228
4246648552
4246654716
4246661430
4246671318
4246675957
4246684257
4246690849
4246699028
4246704887
4246712700
4246721306
4246726616
4246735344
4246743339
4246749382
4246756645
4246764824
4246772270
4246778556
4246786308
4246793266
4246801567
4246809501
4246816642
4246824211
4246831596
4246836845
4246848930
4246855644
4246862052
4246872794
4246879203
4246887443
4246893974
4246902091
4246911185
4246919730
4246927177
4246932304
4246941581
4246949271
4246958366
4246965446
4246972220
4246982108
4246993522
4247004447
4247015616
4247025016
4247033500
4247041434
4247049003
4247057242
4247062125
4247070609
4247077567
4247084159
4247090262
4247097831
4247107169
4247114371
4247121817
4247129630
4247137320
4247145255
4247152762
4247161795
4247167349
4247176566
4247182181
4247191580
4247199210
4247205924
4247213309
4247220389
4247228140
4247236807
4247244009
4247251639
4247258475
4247266531
4247273184
4247280447
4247289053
4247296927
4247305533
4247312979
4247319693
4247327383
4247333365
4247341971
4247347830
4247355764
4247364309
4247369925
4247379141
4247386709
4247393606
4247401968
4247409231
4247417471
4247425161
4247432363
4247442068
4247449148
4247457815
4247465017
4247470388
4247478689
4247489797
4247496450
4247504751
4247513784
4247519949
4247529531
4247535757
4247544179
4247553091
4247560842
4247568960
4247578237
4247584707
4247592458
4247598379
4247603750
4247612783
4247618886
4247628835
4247634816
4247642751
4247650869
4247660573
4247666555
4247676137
4247686208
4247692189
4247701406
4247710866
4247719716
4247726979
4247732411
4247741261
4247749867
4247762502
4247770070
4247777516
4247786488
4247795338
4247801686
4247811024
4247819508
4247827260
4247835377
4247844472
4247851979
4247859425
4247865224
4247873646
4247881703
4247889210
4247896718
4247902943
4247909779
4247918934
4247925770
4247933644
4247940663
4247948719
4247954762
4247962269
4247968129
4247976185
4247984059
4247989491
4247998463
4248007679
4248015431
4248021229
4248030079
4248035938
4248045765
4248054127
4248060414
4248068958
4248076588
4248084095
4248091785
4248099598
4248105946
4248112659
4248120472
4248127064
4248138172
4248156788
4248164051
4248171497
4248179798
4248185718
4248194080
4248201587
4248210560
4248216358
4248224659
4248232349
4248238880
4248246387
4248255115
4248262256
4248270435
4248279895
4248286243
4248295581
4248301136
4248310352
4248319385
4248325733
4248334094
4248341724
4248349903
4248358447
4248363696
4248373889
4248378772
4248388355
4248395740
4248404895
4248412097
4248417346
4248427173
4248433154
4248442371
4248451709
4248460864
4248468860
4248476611
4248484912
4248491626
4248499682
4248508532
4248513843
4248525622
4248533313
4248540698
4248548205
4248556567
4248565478
4248575000
4248584277
4248592456
4248602404
4248609118
4248619433
4248626940
4248636157
4248645373
4248653246
4248661425
4248668627
4248677172
4248684557
4248691332
4248698779
4248704760
4248713366
4248721850
4248726855
4248735827
4248741625
4248750658
4248758288
4248766283
4248772326
4248781298
4248788805
4248795214
4248802721
4248810656
4248818224
4248824144
4248831469
4248846849
4248856371
4248862719
4248871325
4248877245
4248884752
4248893846
4248902819
4248908800
4248916368
4248925096
4248933275
4248939318
4248946703
4248955126
4248962755
4248969713
4248977220
4248984361
4248991991
4248998888
4249006151
4249015306
4249022752
4249032640
4249039842
4249047777
4249054307
4249063341
4249069688
4249077928
4249086595
4249094957
4249102403
4249110643
4249117723
4249125901
4249132554
4249139756
4249148545
4249155015
4249165147
4249171739
4249179917
4249188462
4249194688
4249204209
4249210435
4249218980
4249227403
4249235093
4249243211
4249252732
4249258225
4249267747
4249274949
4249280442
4249291428
4249299546
4249306016
4249312241
4249322861
4249328782
4249338303
4249344468
4249352097
4249359482
4249369431
4249376328
4249385666
4249394150
4249401719
4249411423
4249419358
4249427109
4249436448
4249443345
4249453965
4249462143
4249468125
4249476670
4249483506
4249492111
4249500046
4249506882
4249515000
4249521713
4249529282
4249536545
4249548325
4249556076
4249570908
4249578842
4249590134
4249596848
4249604355
4249613388
4249618881
4249627060
4249634750
4249642197
4249649826
4249657822
4249662765
4249674118
4249679306
4249687729
4249694381
4249702560
4249709396
4249718490
4249725082
4249732528
4249741439
4249748397
4249754501
4249763046
4249771591
4249776413
4249785446
4249791244
4249802108
4249808151
4249817184
4249829086
4249835128
4249840988
4249850875
4249858932
4249864791
4249872299
4249879806
4249887252
4249895248
4249902328
4249908858
4249915633
4249921737
4249928695
4249936507
4249944015
4249952621
4249958541
4249966964
4249974471
4249980575
4249986983
4249995040
4250000899
4250011092
4250017318
4250025802
4250031722
4250039351
4250047286
4250052718
4250061019
4250069258
4250078047
4250083907
4250090926
4250098433
4250105574
4250112227
4250120894
4250126937
4250137007
4250144209
4250148970
4250159712
4250164595
4250173811
4250186324
4250197127
4250205061
4250215803
4250224287
4250233015
4250241133
4250249617
4250256453
4250265425
4250272017
4250280317
4250287092
4250291914
4250302534
4250307600
4250316511
4250326826
4250332747
4250341414
4250348310
4250356977
4250363142
4250370710
4250377729
4250385725
4250395002
4250402510
4250409101
4250416609
4250423322
4250429853
4250439008
4250446699
4250457258
4250465559
4250472578
4250480268
4250487470
4250494978
4250502363
4250508955
4250518171
4250525800
4250532819
4250539655
4250547285
4250554059
4250561445
4250570173
4250577009
4250583051
4250590497
4250598615
4250606183
4250614667
4250620710
4250629499
4250637922
4250644941
4250653119
4250660382
4250667707
4250675153
4250684430
4250690290
4250699445
4250707868
4250714398
4250722638
4250732282
4250738263
4250747052
4250755292
4250762006
4250770245
4250779279
4250784467
4250794232
4250802167
4250808453
4250816022
4250825299
4250833661
4250842938
4250848126
4250857464
4250865521
4250873639
4250878583
4250887799
4250896039
4250904583
4250915265
4250924359
4250933148
4250943890
4250953717
4250963604
4250974530
4250983319
4250992169
4251001629
4251008526
4251015728
4251023052
4251029705
4251038067
4251048931
4251056439
4251062664
4251069256
4251075726
4251082073
4251088665
4251095867
4251102520
4251108929
4251115337
4251121685
4251129192
4251134930
4251141399
4251149151
4251155926
4251161968
4251169109
4251176128
4251183025
4251190593
4251197735
4251205486
4251212505
4251217449
4251224041
4251233440
4251238628
4251246685
4251254741
4251262432
4251269268
4251274883
4251283245
4251288677
4251295879
4251302898
4251310710
4251319011
4251326579
4251333415
4251341106
4251347942
4251355632
4251362346
4251372295
4251378886
4251386272
4251393352
4251400066
4251409465
4251414226
4251422649
4251431377
4251437480
4251445964
4251451884
4251460490
4251467570
4251473674
4251481120
4251489604
4251497600
4251504741
4251512431
4251519999
4251527507
4251534098
4251541728
4251548808
4251555644
4251564372
4251571086
4251580607
4251587199
4251594889
4251600749
4251609233
4251615946
4251627177
4251633769
4251642314
4251648905
4251657023
4251666239
4251674479
4251680521
4251689249
4251698405
4251706644
4251713785
4251723002
4251729227
4251735697
4251745890
4251753153
4251762247
4251773050
4251781107
4251789042
4251797281
4251803812
4251812723
4251821268
4251830362
4251836283
4251844400
4251853189
4251860636
4251866617
4251874185
4251881205
4251889078
4251898050
4251903665
4251911905
4251919351
4251925699
4251932535
4251940347
4251947183
4251957254
4251964945
4251971536
4251978311
4251985818
4251991922
4252001627
4252007547
4252018594
4252028238
4252035135
4252042764
4252050760
4252055520
4252065164
4252072061
4252080606
4252087381
4252096414
4252103006
4252110574
4252116555
4252124551
4252133218
4252138833
4252147988
4252153848
4252163491
4252169168
4252178628
4252186990
4252194009
4252202249
4252211160
4252219644
4252225320
4252232644
4252242165
4252249490
4252257607
4252267007
4252274636
4252281655
4252289285
4252295815
4252304116
4252313027
4252321389
4252327981
4252336342
4252345437
4252350625
4252360207
4252367409
4252374856
4252382180
4252392006
4252399392
4252407814
4252414406
4252423134
4252431801
4252437722
4252446633
4252454811
4252461891
4252470925
4252478493
4252485573
4252493813
4252501076
4252510231
4252516884
4252525795
4252532326
4252542885
4252549599
4252556068
4252567177
4252577065
4252584023
4252592689
4252600868
4252610634
4252619423
4252629982
4252635841
4252643471
4252651039
4252658546
4252667579
4252675331
4252681251
4252688759
4252696937
4252704506
4252712623
4252717567
4252726539
4252734474
4252742775
4252750221
4252756507
4252763160
4252770790
4252780311
4252788246
4252794898
4252804237
4252810645
4252819068
4252826759
4252834998
4252842994
4252852577
4252860023
4252867286
4252874915
4252881629
4252891212
4252897864
4252905616
4252913001
4252920936
4252930335
4252937903
4252944251
4252955604
4252962562
4252968726
4252977515
4252985145
4252991736
4253000281
4253007605
4253015784
4253024756
4253029883
4253038611
4253045813
4253054480
4253061011
4253071204
4253077552
4253085913
4253094580
4253103064
4253109473
4253117835
4253126563
4253134863
4253142310
4253150671
4253157935
4253165381
4253175024
4253182349
4253190222
4253196875
4253206213
4253212744
4253218848
4253229468
4253237829
4253245032
4253253149
4253260534
4253269079
4253276037
4253283239
4253291967
4253299353
4253307348
4253313818
4253323156
4253329748
4253339025
4253347143
4253355505
4253362585
4253371496
4253379125
4253387548
4253396154
4253402136
4253414709
4253422888
4253430761
4253439306
4253448217
4253456762
4253466894
4253473547
4253478551
4253489233
4253495946
4253502172
4253509740
4253517248
4253524816
4253532751
4253540563
4253547521
4253554967
4253562475
4253570226
4253577550
4253585424
4253592809
4253603002
4253609227
4253616552
4253625402
4253632604
4253640111
4253649511
4253655858
4253662450
4253673863
4253680883
4253690892
4253697423
4253705480
4253713231
4253722203
4253729039
4253736363
4253747167
4253755406
4253761815
4253769017
4253777623
4253784276
4253793858
4253800511
4253810338
4253816930
4253825719
4253834508
4253840489
4253848790
4253856968
4253864598
4253872960
4253880894
4253888157
4253896214
4253903477
4253911595
4253918003
4253927525
4253934239
4253943699
4253951145
4253959385
4253967198
4253975437
4253983311
4253988377
4253998265
4254005711
4254014500
4254020970
4254030308
4254037022
4254045322
4254052830
4254061070
4254069431
4254078037
4254085606
4254093723
4254100620
4254108066
4254116672
4254123936
4254132297
4254138950
4254149387
4254155918
4254164280
4254173374
4254179722
4254187900
4254196079
4254203769
4254212253
4254219028
4254226230
4254234775
4254245273
4254252475
4254262424
4254270236
4254277500
4254289585
4254301853
4254309848
4254317417
4254324924
4254332614
4254340183
4254347812
4254354587
4254361179
4254370029
4254376743
4254384311
4254391208
4254399081
4254405063
4254413608
4254422153
4254430209
4254436984
4254445590
4254451999
4254460360
4254470126
4254478183
4254487338
4254494845
4254504550
4254512057
4254522799
4254533358
4254541903
4254546664
4254555575
4254562472
4254570468
4254577304
4254586276
4254593295
4254600985
4254609774
4254617953
4254624667
4254633639
4254641024
4254649142
4254655856
4254661898
4254670748
4254679354
4254688204
4254696444
4254704562
4254712984
4254719454
4254726839
4254735934
4254743380
4254753512
4254760897
4254768343
4254774874
4254783785
4254790316
4254798678
4254806734
4254815157
4254822542
4254831026
4254838350
4254845858
4254854097
4254861238
4254869844
4254876314
4254887605
4254894014
4254903169
4254909944
4254918245
4254927705
4254933870
4254942598
4254950838
4254957613
4254964937
4254973054
4254980196
4254986299
4254992830
4254998262
4255007844
4255014192
4255021333
4255029451
4255034089
4255042451
4255049592
4255055696
4255063997
4255070955
4255078157
4255083772
4255091462
4255098359
4255105745
4255112092
4255120088
4255123994
4255132478
4255138337
4255143037
4255151033
4255155793
4255164460
4255169709
4255175813
4255182588
4255188935
4255194184
4255200654
4255208283
4255214997
4255220612
4255225739
4255232758
4255237885
4255243501
4255249360
4255255036
4255265168
4255271272
4255277009
4255282929
4255290009
4255295930
4255302094
4255308137
4255314423
4255319245
4255325837
4255332856
4255338776
4255344452
4255349885
4255355378
4255362214
4255367829
4255373566
4255379120
4255385529
4255392853
4255397065
4255403046
4255409272
4255415924
4255420868
4255426850
4255434662
4255439972
4255445710
4255452423
4255458527
4255464813
4255471039
4255476471
4255483795
4255489838
4255496369
4255501984
4255508026
4255514313
4255520966
4255528839
4255535065
4255542206
4255548065
4255553741
4255561615
4255566254
4255574066
4255581085
4255587677
4255592804
4255600250
4255606354
4255613006
4255619354
4255626312
4255632904
4255643524
4255651459
4255658233
4255665252
4255672699
4255680572
4255692047
4255698517
4255705108
4255711395
4255718048
4255724395
4255731231
4255737396
4255744110
4255750457
4255755889
4255763946
4255769500
4255776031
4255783172
4255789459
4255796234
4255802642
4255809356
4255815704
4255823089
4255830413
4255835418
4255841827
4255849395
4255856475
4255861541
4255868621
4255876678
4255883514
4255890166
4255896697
4255903838
4255909453
4255916595
4255922332
4255929656
4255935760
4255942962
4255947967
4255955230
4255961760
4255969024
4255975554
4255981109
4255988860
4255994536
4256000579
4256007781
4256013640
4256020903
4256026946
4256032439
4256040313
4256045989
4256053740
4256059294
4256066680
4256072173
4256079497
4256085051
4256092375
4256097869
4256106230
4256113066
4256118559
4256124968
4256133635
4256142424
4256149321
4256156523
4256163420
4256170317
4256177824
4256184904
4256191862
4256199553
4256206755
4256213591
4256220061
4256226164
4256233488
4256239653
4256246794
4256254728
4256262541
4256268767
4256275969
4256282377
4256289518
4256298124
4256305815
4256313322
4256322477
4256329069
4256339445
4256345915
4256354521
4256361357
4256368742
4256377348
4256383879
4256389860
4256397978
4256404081
4256412321
4256418424
4256425810
4256431242
4256439726
4256445097
4256452482
4256460477
4256467374
4256473478
4256481229
4256490018
4256495634
4256504728
4256510282
4256520109
4256525846
4256534757
4256542447
4256550077
4256554777
4256563199
4256569913
4256578885
4256585660
4256594022
4256600553
4256609586
4256616300
4256623624
4256632413
4256640103
4256645963
4256651517
4256661038
4256669095
4256674954
4256682767
4256691129
4256698941
4256706143
4256713834
4256721097
4256728848
4256735379
4256742276
4256750089
4256756863
4256765469
4256772366
4256780118
4256786038
4256791653
4256802151
4256807950
4256817410
4256822964
4256831814
4256839688
4256848233
4256854275
4256863003
4256871792
4256878628
4256885891
4256893887
4256900296
4256910244
4256916897
4256925503
4256932095
4256940213
4256948757
4256957363
4256964993
4256970425
4256979946
4256987087
4256995144
4257004543
4257014675
4257019680
4257029141
4257035671
4257044521
4257050869
4257059353
4257068325
4257077236
4257085903
4257092007
4257100124
4257109402
4257119106
4257124660
4257135219
4257143154
4257151882
4257159450
4257167385
4257176235
4257183559
4257190212
4257198269
4257204372
4257213100
4257219204
4257227748
4257233852
4257241481
4257250820
4257256557
4257264980
4257272792
4257279933
4257287502
4257294399
4257301967
4257310268
4257315151
4257324062
4257330898
4257341579
4257346584
4257356960
4257364223
4257371913
4257378444
4257388087
4257395106
4257406459
4257412623
4257420375
4257428309
4257436488
4257442592
4257450465
4257458766
4257466456
4257475795
4257481776
4257489833
4257497950
4257506434
4257511500
4257520533
4257527735
4257536341
4257545497
4257553309
4257559779
4257568751
4257575221
4257583521
4257592005
4257598292
4257607569
4257615809
4257623927
4257629298
4257643519
4257651514
4257660181
4257667933
4257676966
4257684290
4257693018
4257699366
4257705408
4257715906
4257721949
4257731714
4257740870
4257749781
4257757776
4257765894
4257772120
4257779627
4257786768
4257796534
4257804468
4257814234
4257821741
4257829676
4257835657
4257841333
4257850183
4257855799
4257864405
4257872217
4257882471
4257891687
4257900781
4257910547
4257917017
4257926477
4257933252
4257950098
4257958337
4257965784
4257974023
4257982934
4257991724
4257997644
4258005212
4258014184
4258020776
4258030054
4258036889
4258044824
4258051721
4258058801
4258067407
4258076318
4258082910
4258090966
4258097680
4258106530
4258113366
4258121362
4258127648
4258136438
4258142541
4258150170
4258158349
4258163964
4258173059
4258180871
4258187707
4258195336
4258202477
4258210412
4258220422
4258229211
4258236047
4258243737
4258251183
4258258324
4258266442
4258273339
4258281151
4258288109
4258296227
4258302270
4258312218
4258318688
4258328148
4258334740
4258344018
4258350670
4258358910
4258366112
4258374291
4258381676
4258389061
4258397484
4258404869
4258414025
4258421227
4258429589
4258436669
4258445153
4258451622
4258459923
4258467674
4258476036
4258487633
4258495934
4258505028
4258511009
4258518578
4258526146
4258537560
4258542564
4258553734
4258562096
4258568748
4258576134
4258584190
4258594078
4258602928
4258609459
4258618492
4258625023
4258633384
4258640465
4258648704
4258656028
4258666893
4258673973
4258682151
4258690391
4258698692
4258706382
4258713768
4258720787
4258727561
4258737144
4258743980
4258752586
4258761680
4258767906
4258776878
4258785545
4258794029
4258803001
4258817527
4258825828
4258833335
4258841636
4258848350
4258856040
4258862205
4258871665
4258880271
4258885520
4258893149
4258898276
4258906333
4258913230
4258921592
4258927695
4258936484
4258943870
4258951072
4258956382
4258964316
4258971274
4258977317
4258985007
4258992636
4259001059
4259010703
4259016928
4259027243
4259033408
4259044699
4259052756
4259059653
4259067404
4259074545
4259081992
4259089072
4259096762
4259105429
4259113791
4259121787
4259128928
4259137656
4259144980
4259154013
4259161215
4259169455
4259175986
4259186240
4259194601
4259200827
4259209067
4259217489
4259225119
4259233542
4259239523
4259246847
4259256857
4259264242
4259271750
4259278219
4259287313
4259295797
4259302084
4259311850
4259321066
4259327536
4259335897
4259344747
4259349996
4259360128
4259365133
4259375570
4259382894
4259389425
4259398702
4259406942
4259413900
4259420309
4259429708
4259438009
4259445699
4259454549
4259463277
4259471456
4259478109
4259485555
4259493795
4259503133
4259510641
4259518209
4259526937
4259533468
4259541890
4259550618
4259557149
4259566304
4259574544
4259581990
4259591207
4259602376
4259610921
4259617879
4259626912
4259637166
4259643880
4259652669
4259660237
4259669209
4259674825
4259683431
4259690938
4259697591
4259705220
4259712056
4259718953
4259727193
4259733968
4259743062
4259749715
4259757649
4259764302
4259771748
4259780965
4259789632
4259796406
4259804036
4259810017
4259818318
4259827046
4259833333
4259842488
4259850850
4259858479
4259866719
4259875142
4259883503
4259890522
4259897297
4259905232
4259912068
4259919819
4259926411
4259935993
4259943257
4259952046
4259958515
4259967488
4259973957
4259986653
4259993855
4260001179
4260007832
4260016987
4260025532
4260031574
4260040241
4260048847
4260057209
4260065449
4260072468
4260080768
4260088337
4260095722
4260104145
4260111530
4260122394
4260129719
4260137775
4260144489
4260153827
4260160419
4260168903
4260175556
4260183796
4260191303
4260199543
4260207416
4260214618
4260222858
4260230060
4260237628
4260247272
4260255634
4260262103
4260271137
4260277667
4260286640
4260294391
4260302509
4260309711
4260318134
4260327960
4260336444
4260343524
4260351825
4260358844
4260366351
4260373981
4260384357
4260388202
4260398395
4260406146
4260419269
4260430682
4260438739
4260445269
4260455829
4260463946
4260477374
4260485736
4260491412
4260499163
4260504718
4260514544
4260520343
4260529193
4260534564
4260539813
4260548480
4260555316
4260561602
4260569659
4260576617
4260583514
4260590716
4260597552
4260604144
4260611163
4260617205
4260623736
4260633440
4260641314
4260648272
4260654986
4260662920
4260669512
4260680193
4260690630
4260699419
4260707903
4260714922
4260723284
4260730059
4260738176
4260745318
4260755816
4260763750
4260771013
4260775835
4260788408
4260796587
4260802690
4260809893
4260818254
4260824907
4260834551
4260841814
4260850969
4260858293
4260865801
4260872331
4260881120
4260887712
4260898088
4260904619
4260912614
4260919328
4260927568
4260936845
4260941972
4260951616
4260958818
4260967546
4260974931
4260983354
4260989824
4260999101
4261005632
4261014482
4261021806
4261030107
4261038591
4261046769
4261053666
4261062150
4261070573
4261075700
4261087297
4261094377
4261102067
4261108537
4261114640
4261125382
4261131669
4261141252
4261150102
4261158097
4261166459
4261173051
4261181779
4261189835
4261194901
4261205582
4261213334
4261221757
4261229569
4261239152
4261246049
4261254838
4261264298
4261274430
4261282181
4261290909
4261296891
4261306656
4261312699
4261321122
4261327286
4261335404
4261343400
4261349259
4261358658
4261366227
4261373673
4261381302
4261387772
4261395645
4261403519
4261412003
4261420182
4261427689
4261434708
4261442459
4261449356
4261456009
4261464920
4261471695
4261480911
4261487808
4261495743
4261503006
4261511246
4261517166
4261524979
4261530960
4261538956
4261547501
4261555679
4261561722
4261569290
4261576309
4261584122
4261592544
4261600540
4261608230
4261615921
4261622329
4261629715
4261638138
4261645462
4261654251
4261660843
4261670669
4261679947
4261686966
4261693618
4261699661
4261711074
4261717178
4261726028
4261734756
4261741348
4261749587
4261757400
4261764602
4261774368
4261781570
4261789260
4261795852
4261805862
4261812515
4261821365
4261828017
4261836196
4261844985
4261851394
4261859328
4261867873
4261875320
4261882522
4261890700
4261898147
4261906630
4261913161
4261922927
4261932570
4261940139
4261946730
4261955642
4261962355
4261970656
4261978469
4261986647
4261993300
4262000869
4262010878
4262017958
4262025527
4262032912
4262042494
4262050185
4262060317
4262067275
4262081069
4262088576
4262099257
4262107802
4262114760
4262121535
4262129408
4262139113
4262146010
4262152968
4262160902
4262167799
4262175001
4262183668
4262189955
4262198744
4262204848
4262213576
4262221449
4262227553
4262235853
4262241896
4262249769
4262257338
4262265089
4262272535
4262280348
4262289259
4262294325
4262302931
4262310316
4262318983
4262328016
4262338148
4262344740
4262350965
4262359693
4262366712
4262372694
4262380262
4262388929
4262394910
4262404493
4262410841
4262419691
4262427930
4262436353
4262444044
4262450758
4262458631
4262466871
4262474561
4262480421
4262487317
4262495130
4262503919
4262509839
4262518506
4262525953
4262532544
4262541700
4262548230
4262556531
4262564649
4262573133
4262579663
4262588269
4262596204
4262603650
4262611585
4262619031
4262627576
4262634290
4262643872
4262653638
4262662000
4262668591
4262674573
4262684705
4262693066
4262700269
4262708691
4262716382
4262724744
4262732068
4262739209
4262748975
4262756238
4262763989
4262771374
4262779065
4262788647
4262794018
4262803845
4262812756
4262819592
4262828015
4262835766
4262844250
4262854260
4262863842
4262878308
4262885815
4262893627
4262904858
4262914318
4262923046
4262934826
4262941418
4262950634
4262959057
4262967175
4262973278
4262980785
4262989941
4262996410
4263004162
4263011913
4263019360
4263026928
4263034008
4263041637
4263049877
4263057690
4263065136
4263072826
4263082714
4263090221
4263096569
4263104198
4263112743
4263120373
4263126903
4263134533
4263141857
4263150341
4263159374
4263166088
4263174755
4263181774
4263189891
4263196788
4263205150
4263211864
4263220409
4263226879
4263235851
4263242381
4263253368
4263260753
4263265636
4263275157
4263280650
4263289684
4263295177
4263304881
4263313243
4263321056
4263330272
4263339000
4263344920
4263354808
4263363658
4263370128
4263379100
4263387767
4263393992
4263402110
4263410411
4263417735
4263425059
4263434581
4263439647
4263449534
4263456981
4263465586
4263472056
4263480601
4263489207
4263495249
4263505442
4263513926
4263522044
4263530161
4263538401
4263547373
4263554637
4263562876
4263570933
4263576548
4263586070
4263595408
4263602427
4263609080
4263618052
4263624522
4263632761
4263640879
4263649302
4263656687
4263664805
4263672190
4263679819
4263689585
4263698008
4263706064
4263716135
4263729014
4263737009
4263743845
4263752390
4263761423
4263766977
4263776010
4263783701
4263790415
4263798105
4263805063
4263811716
4263821054
4263825876
4263836252
4263843881
4263852365
4263858957
4263866159
4263874826
4263881906
4263888010
4263896249
4263905466
4263913156
4263922372
4263930124
4263936777
4263946237
4263953195
4263962045
4263980050
4263986520
4263997568
4264004709
4264014901
4264021127
4264028878
4264036325
4264044076
4264052560
4264060312
4264066476
4264074350
4264082345
4264089669
4264098886
4264106210
4264115304
4264122689
4264130013
4264136727
4264146676
4264153207
4264161324
4264168466
4264177804
4264186959
4264195260
4264202950
4264211190
4264217477
4264224801
4264234017
4264241646
4264249093
4264258431
4264266183
4264272835
4264281746
4264288216
4264296334
4264305245
4264313912
4264321053
4264329476
4264336434
4264346871
4264356209
4264364754
4264374031
4264379769
4264390694
4264398995
4264407234
4264412483
4264421761
4264429024
4264436531
4264446419
4264454231
4264461556
4264470528
4264477058
4264486275
4264494942
4264501289
4264510933
4264523079
4264533211
4264540901
4264547371
4264553963
4264563301
4264572639
4264581428
4264591316
4264600044
4264607612
4264613533
4264621345
4264629341
4264637214
4264645332
4264651130
4264660530
4264666267
4264675117
4264682746
4264689277
4264696846
4264703437
4264713081
4264720222
4264728401
4264735847
4264743232
4264751350
4264757819
4264767097
4264773811
4264783942
4264792548
4264798713
4264808906
4264815559
4264825080
4264832832
4264839851
4264848334
4264856635
4264864692
4264872931
4264878058
4264888801
4264894172
4264903937
4264911261
4264919318
4264925910
4264935737
4264942267
4264951484
4264958075
4264965888
4264973517
4264980963
4264988166
4264995368
4265003180
4265008246
4265015875
4265022101
4265028205
4265034491
4265041998
4265046698
4265054755
4265060919
4265067389
4265073859
4265078742
4265085761
4265093024
4265100043
4265104987
4265113043
4265117865
4265124518
4265131598
4265137945
4265144964
4265150885
4265158636
4265164313
4265171393
4265177496
4265184637
4265190863
4265196112
4265203802
4265209051
4265216131
4265222052
4265227545
4265232855
4265240912
4265246832
4265253241
4265259283
4265265753
4265272406
4265278997
4265288092
4265296453
4265302557
4265309027
4265315435
4265321661
4265327581
4265334905
4265339788
4265347051
4265351995
4265358648
4265363653
4265370733
4265376775
4265382574
4265387823
4265394354
4265401434
4265405889
4265411748
4265418523
4265425542
4265431890
4265438055
4265443304
4265450201
4265455327
4265463384
4265470220
4265476812
4265482366
4265489873
4265495611
4265502324
4265507146
4265514043
4265523137
4265528020
4265534795
4265542119
4265547795
4265555425
4265562383
4265569402
4265576665
4265582280
4265588201
4265595647
4265601934
4265608892
4265615422
4265622808
4265627629
4265635442
4265640202
4265648381
4265655217
4265661931
4265666753
4265674809
4265681950
4265686833
4265694707
4265699590
4265706914
4265714055
4265718327
4265727055
4265732671
4265739995
4265747319
4265752812
4265759648
4265765568
4265773808
4265780278
4265786870
4265793156
4265798893
4265804326
4265812077
4265818669
4265825627
4265831974
4265839055
4265845768
4265851445
4265859318
4265864689
4265872135
4265884342
4265890385
4265896122
4265906193
4265913700
4265919743
4265927189
4265934879
4265941288
4265948002
4265954655
4265961735
4265968205
4265973209
4265982365
4265988224
4265996281
4266002018
4266008610
4266014164
4266021061
4266029118
4266036075
4266042362
4266049442
4266055729
4266062687
4266069095
4266075870
4266082462
4266088993
4266095340
4266101627
4266108890
4266116153
4266122440
4266130375
4266137272
4266142215
4266148319
4266154789
4266161014
4266168582
4266173282
4266181339
4266189151
4266194156
4266201236
4266208377
4266214664
4266220218
4266227664
4266235782
4266242374
4266250125
4266257083
4266262698
4266273135
4266281192
4266287906
4266293460
4266301273
4266309085
4266314456
4266322391
4266329227
4266334781
4266342349
4266349795
4266357547
4266363040
4266369937
4266378116
4266383426
4266392520
4266400577
4266406802
4266414554
4266423098
4266430545
4266437136
4266444766
4266451175
4266457888
4266466372
4266473269
4266483096
4266488101
4266498965
4266506594
4266514163
4266522158
4266531497
4266539675
4266546206
4266553530
4266561160
4266570742
4266576479
4266585452
4266594790
4266605288
4266611758
4266623415
4266631716
4266640688
4266647158
4266654177
4266661867
4266670351
4266678225
4266686953
4266694643
4266701296
4266708742
4266718142
4266726259
4266732912
4266742434
4266747072
4266755312
4266761965
4266771059
4266778139
4266787294
4266793947
4266801149
4266807314
4266816896
4266823000
4266831423
4266837953
4266846681
4266854982
4266862611
4266870546
4266878175
4266885378
4266893129
4266899171
4266906618
4266915468
4266923097
4266931337
4266938844
4266945619
4266952577
4266961549
4266969301
4266978700
4266983339
4266992433
4266999147
4267006471
4267015138
4267022828
4267029054
4267038209
4267044252
4267049806
4267059632
4267067262
4267075257
4267081056
4267089540
4267097352
4267104432
4267112672
4267119447
4267126527
4267134950
4267142091
4267151551
4267158936
4267166505
4267172974
4267181886
4267190675
4267196961
4267206116
4267214234
4267220948
4267230408
4267239381
4267247681
4267254029
4267261902
4267270203
4267278565
4267286255
4267294129
4267301941
4267310059
4267318238
4267324219
4267334839
4267339966
4267348511
4267375244
4267385742
4267392578
4267401367
4267408936
4267418030
4267428040
4267437866
4267445557
4267453796
4267461365
4267468079
4267474793
4267483704
4267490723
4267498840
4267505493
4267512695
4267521484
4267528503
4267534546
4267542297
4267550415
4267559448
4267565674
4267574402
4267580627
4267588257
4267595459
4267603332
4267611511
4267619079
4267625976
4267633484
4267641113
4267649597
4267657653
4267664367
4267671813
4267681518
4267688110
4267694641
4267704162
4267711486
4267719421
4267726013
4267733947
4267740722
4267749145
4267755309
4267763854
4267769836
4267778014
4267786132
4267791869
4267800109
4267808532
4267816833
4267825622
4267832275
4267840087
4267849792
4267855834
4267863402
4267871642
4267881652
4267889953
4267897277
4267904540
4267912597
4267919066
4267928466
4267934935
4267943236
4267951598
4267959838
4267967589
4267975768
4267982421
4267989806
4267998351
4268005675
4268015929
4268024230
4268029723
4268041502
4268048460
4268054930
4268063048
4268072386
4268078673
4268088011
4268096251
4268102904
4268111265
4268119383
4268126646
4268134337
4268142027
4268151854
4268158995
4268164427
4268175657
4268181212
4268191893
4268198973
4268207945
4268216429
4268226744
4268236570
4268242918
4268251341
4268258665
4268266355
4268273863
4268282041
4268290891
4268298582
4268306272
4268313780
4268320616
4268328184
4268334470
4268341306
4268349790
4268356321
4268364256
4268370969
4268380125
4268386961
4268395444
4268402280
4268410276
4268416257
4268425291
4268431638
4268438962
4268447812
4268456113
4268463498
4268476987
4268484006
4268491636
4268497617
4268505491
4268514402
4268521543
4268527829
4268535581
4268544126
4268553037
4268559690
4268567258
4268575376
4268582944
4268591611
4268597348
4268606259
4268613767
4268620419
4268628110
4268636166
4268643979
4268650937
4268658749
4268665463
4268672177
4268681577
4268689023
4268697324
4268704648
4268709897
4268720151
4268729062
4268737729
4268743832
4268751706
4268760007
4268769467
4268779355
4268788998
4268798153
4268806210
4268811337
4268820553
4268827999
4268836605
4268843075
4268852780
4268859616
4268869686
4268876156
4268884579
4268891537
4268899899
4268906979
4268914181
4268924069
4268932186
4268939816
4268946957
4268956112
4268963314
4268972408
4268979671
4268988033
4268994747
4269006832
4269014767
4269025143
4269032528
4269040645
4269048092
4269057613
4269067745
4269076534
4269085750
4269092159
4269098262
4269106868
4269115718
4269122921
4269129024
4269136653
4269145320
4269150936
4269160152
4269167903
4269173824
4269181575
4269190486
4269198055
4269205074
4269212642
4269220271
4269227046
4269234859
4269241695
4269250301
4269258174
4269263606
4269274471
4269282283
4269288997
4269298152
4269305476
4269314998
4269323360
4269331538
4269337703
4269344600
4269353999
4269358821
4269368281
4269374934
4269382747
4269389949
4269399775
4269406184
4269412349
4269423213
4269429499
4269438227
4269446345
4269455439
4269463496
4269470698
4269478938
4269488276
4269493342
4269502192
4269509394
4269518672
4269526057
4269534297
4269540705
4269549006
4269557551
4269565913
4269573420
4269581843
4269589472
4269597712
4269605097
4269613520
4269621027
4269628596
4269638117
4269645258
4269653010
4269659662
4269668512
4269677424
4269683649
4269691950
4269700190
4269707880
4269716303
4269723444
4269730646
4269739618
4269747003
4269755548
4269763117
4269771723
4269778192
4269784235
4269793146
4269804315
4269810846
4269816950
4269826532
4269834955
4269844171
4269850031
4269859186
4269869928
4269878351
4269889398
4269897516
4269906610
4269913141
4269920953
4269929193
4269936944
4269944940
4269952630
4269958917
4269965875
4269975030
4269981805
4269989373
4269996759
4270005182
4270012078
4270019708
4270028375
4270036126
4270042718
4270049127
4270061029
4270067193
4270076654
4270084893
4270093133
4270099298
4270106927
4270114190
4270122430
4270134271
4270142266
4270149896
4270158013
4270166802
4270173272
4270179375
4270187920
4270194756
4270203484
4270212762
4270218865
4270227715
4270236077
4270244011
4270252312
4270259026
4270267083
4270276421
4270283623
4270291802
4270298333
4270308342
4270314995
4270324456
4270331047
4270339897
4270347161
4270355645
4270364311
4270372795
4270379509
4270387017
4270396477
4270404534
4270413262
4270420464
4270428825
4270435539
4270445061
4270451592
4270459953
4270469475
4270475578
4270486076
4270492180
4270502434
4270508842
4270516899
4270525261
4270532646
4270540092
4270548088
4270554680
4270563713
4270573356
4270578666
4270586784
4270595268
4270603386
4270612907
4270620658
4270629142
4270637382
4270645622
4270655571
4270660820
4270669853
4270677543
4270691215
4270699027
4270706718
4270715751
4270724235
4270733756
4270740836
4270749564
4270758781
4270765739
4270774284
4270781119
4270788566
4270797416
4270803397
4270812186
4270817191
4270827628
4270832755
4270843131
4270848075
4270857169
4270865287
4270871451
4270879203
4270887687
4270893607
4270903067
4270911307
4270918509
4270926993
4270933585
4270944815
4270951407
4270958853
4270967398
4270980094
4270992301
4270997916
4271008353
4271014761
4271022208
4271029715
4271037283
4271044424
4271054312
4271060477
4271070120
4271076041
4271085013
4271093680
4271102835
4271110525
4271116507
4271124502
4271133963
4271139578
4271147879
4271156058
4271165884
4271172049
4271181509
4271189749
4271196402
4271205496
4271214224
4271222464
4271230215
4271237539
4271244497
4271254019
4271259634
4271268362
4271277944
4271284475
4271293020
4271300527
4271309011
4271317190
4271325735
4271333486
4271340627
4271349661
4271357961
4271366750
4271374868
4271381521
4271389761
4271397512
4271405569
4271414175
4271422536
4271429677
4271437673
4271445180
4271453298
4271460073
4271467214
4271477529
4271482900
4271492849
4271499990
4271509328
4271517263
4271525380
4271535634
4271546437
4271554982
4271564870
4271574513
4271582326
4271590444
4271598683
4271606008
4271612966
4271621571
4271629079
4271636037
4271643422
4271649403
4271657033
4271666310
4271674367
4271680531
4271688161
4271695180
4271702809
4271711110
4271719105
4271727040
4271735585
4271742482
4271750172
4271759938
4271765004
4271774159
4271781422
4271789601
4271799305
4271807728
4271814503
4271823780
4271829884
4271835560
4271845143
4271852711
4271859608
4271867542
4271877003
4271882801
4271892628
4271898914
4271907520
4271916065
4271924122
4271931751
4271938648
4271948292
4271955677
4271962147
4271971180
4271977772
4271986256
4271995655
4272002125
4272011158
4272019642
4272026356
4272033558
4272041492
4272051075
4272058521
4272066333
4272074939
4272081470
4272090625
4272099170
4272105396
4272115345
4272123828
4272134510
4272141712
4272150623
4272158679
4272166248
4272173999
4272182422
4272187122
4272197009
4272205249
4272212329
4272219348
4272228565
4272236316
4272247607
4272257190
4272263965
4272271350
4272282642
4272288928
4272300098
4272309985
4272316211
4272324573
4272331164
4272341845
4272349841
4272359851
4272367236
4272375964
4272383593
4272394091
4272402942
4272410693
4272417712
4272427600
4272433642
4272439257
4272450305
4272455554
4272464709
4272473132
4272481799
4272489672
4272495959
4272501574
4272511157
4272518969
4272525622
4272533373
4272540942
4272548815
4272556322
4272564257
4272572924
4272578356
4272587084
4272594897
4272605150
4272612658
4272620836
4272627306
4272636950
4272644762
4272653490
4272663073
4272668871
4272677721
4272683519
4272691576
4272699572
4272708483
4272716661
4272723070
4272730455
4272739489
4272746813
4272756151
4272763536
4272771715
4272778307
4272788011
4272794725
4272803209
4272811815
4272820299
4272827562
4272836046
4272842760
4272850267
4272858202
4272865831
4272875902
4272883226
4272891283
4272897874
4272907335
4272913927
4272922471
4272930345
4272939622
4272947252
4272955919
4272963060
4272970506
4272980211
4272985399
4272996263
4273003709
4273012193
4273019639
4273025193
4273035142
4273041429
4273050828
4273059373
4273066941
4273075486
4273081956
4273089524
4273099290
4273106492
4273114732
4273122178
4273130051
4273136887
4273145127
4273154649
4273160874
4273170457
4273176560
4273185532
4273194993
4273202805
4273211472
4273219468
4273227524
4273236863
4273244065
4273252976
4273261582
4273267685
4273276902
4273285874
4273294724
4273299912
4273309006
4273316880
4273322983
4273330551
4273339524
4273347153
4273353256
4273361130
4273369309
4273376938
4273384995
4273389755
4273398911
4273405747
4273413742
4273422348
4273430161
4273437546
4273443039
4273452316
4273460800
4273469894
4273482895
4273492050
4273499191
4273505966
4273514206
4273521042
4273528732
4273536056
4273545517
4273552170
4273561203
4273568710
4273577194
4273583847
4273592208
4273601120
4273607528
4273622726
4273628341
4273639022
4273645309
4273654220
4273662704
4273669601
4273678573
4273685714
4273693038
4273701339
4273708968
4273720138
4273727523
4273732772
4273743270
4273748397
4273760055
4273765731
4273775008
4273781112
4273790694
4273799178
4273808455
4273818038
4273825240
4273833724
4273841292
4273849715
4273856307
4273863570
4273873641
4273882003
4273889571
4273896224
4273904952
4273911666
4273919966
4273929000
4273937361
4273944441
4273952986
4273959639
4273966841
4273975936
4273983382
4273992293
4273999617
4274005049
4274014388
4274022810
4274031660
4274044539
4274052229
4274061324
4274068953
4274076704
4274086104
4274095198
4274104719
4274111922
4274119551
4274125715
4274132490
4274140608
4274150374
4274156721
4274165510
4274173140
4274179182
4274188215
4274194258
4274201887
4274210310
4274218794
4274226850
4274232466
4274241865
4274247541
4274255171
4274262983
4274271040
4274279096
4274285444
4274292158
4274301923
4274306684
4274316328
4274323896
4274332868
4274339643
4274346845
4274355573
4274362104
4274368391
4274376142
4274384077
4274391828
4274399335
4274408002
4274415449
4274423139
4274431623
4274439374
4274445417
4274452985
4274463056
4274469098
4274477338
4274485090
4274494001
4274499250
4274509442
4274516950
4274524579
4274531415
4274541364
4274547956
4274553998
4274565228
4274571393
4274580975
4274589154
4274596234
4274604474
4274611859
4274619183
4274628644
4274635785
4274644147
4274650677
4274659222
4274668683
4274674420
4274684308
4274690594
4274699383
4274707928
4274715497
4274723980
4274730450
4274741925
4274748517
4274756024
4274764691
4274771832
4274781109
4274788189
4274795514
4274806622
4274814862
4274823040
4274831829
4274840313
4274851422
4274867840
4274877545
4274891827
4274900860
4274910931
4274919964
4274929607
4274940166
4274947552
4274954815
4274963604
4274971233
4274977398
4274983196
4274992901
4275001690
4275010540
4275018047
4275024273
4275033550
4275039837
4275045757
4275053997
4275061931
4275071148
4275077251
4275086528
4275092510
4275102031
4275109294
4275116436
4275123577
4275129436
4275137981
4275144878
4275153362
4275158672
4275165080
4275172099
4275178081
4275183086
4275190715
4275197551
4275203716
4275209209
4275217632
4275223125
4275229717
4275237956
4275242900
4275250285
4275256328
4275262736
4275269633
4275276652
4275281596
4275289409
4275295939
4275301921
4275308940
4275314677
4275321696
4275328349
4275334392
4275342082
4275347819
4275354655
4275360698
4275367961
4275373332
4275380839
4275386821
4275391948
4275398356
4275406108
4275412211
4275418009
4275423564
4275430766
4275436442
4275440776
4275448039
4275454264
4275458720
4275466349
4275472819
4275478068
4275485026
4275490702
4275495707
4275503214
4275508830
4275514445
4275520731
4275527995
4275534098
4275540873
4275545573
4275552470
4275561259
4275569254
4275578287
4275585306
4275590494
4275596964
4275603739
4275609049
4275616678
4275621500
4275626749
4275633280
4275638529
4275644327
4275650553
4275655069
4275662760
4275667765
4275673319
4275679361
4275685465
4275690042
4275696878
4275702799
4275709696
4275715250
4275721109
4275727030
4275736246
4275743326
4275749674
4275756265
4275762918
4275769815
4275776529
4275781656
4275788065
4275796243
4275803995
4275809854
4275818521
4275825052
4275830362
4275838968
4275845743
4275852945
4275859109
4275864725
4275870889
4275878152
4275884500
4275891580
4275899515
4275905557
4275911783
4275917947
4275924417
4275930581
4275937173
4275944314
4275951455
4275958780
4275963907
4275971353
4275976785
4275984109
4275992410
4275998208
4276004617
4276011880
4276019631
4276024453
4276031350
4276039163
4276045632
4276051187
4276059243
4276065286
4276071938
4276078225
4276085366
4276093545
4276098611
4276105386
4276112466
4276118752
4276124490
4276131326
4276140237
4276145974
4276152749
4276159768
4276165993
4276174721
4276181740
4276189065
4276195901
4276201638
4276209450
4276214821
4276221047
4276228066
4276234292
4276241494
4276247780
4276254677
4276259438
4276266945
4276273110
4276280495
4276287392
4276292580
4276299233
4276306069
4276312416
4276319313
4276325783
4276333107
4276340920
4276346596
4276357765
4276365395
4276371437
4276377724
4276386269
4276392250
4276399269
4276405373
4276414711
4276421486
4276427895
4276434120
4276442055
4276448524
4276455299
4276463783
4276470497
4276476723
4276483497
4276491432
4276496132
4276505531
4276510109
4276519447
4276527260
4276535194
4276541298
4276549171
4276555519
4276560890
4276570228
4276577247
4276585487
4276591407
4276600013
4276606178
4276613868
4276621681
4276629310
4276637611
4276645179
4276651222
4276659095
4276666175
4276672828
4276681861
4276689430
4276697181
4276704627
4276712440
4276719154
4276727943
4276734595
4276742103
4276748267
4276753821
4276765906
4276772803
4276778968
4276786658
4276795386
4276801185
4276810645
4276818335
4276825355
4276833106
4276842017
4276848426
4276856421
4276864661
4276872901
4276880591
4276887488
4276895056
4276903968
4276911170
4276920874
4276927466
4276934058
4276942969
4276949317
4276957984
4276965735
4276971716
4276980200
4276988806
4276993872
4277002783
4277010962
4277017188
4277025488
4277033667
4277039465
4277047095
4277054602
4277062109
4277069861
4277078406
4277086340
4277093664
4277101233
4277108557
4277116125
4277122534
4277130591
4277140478
4277147131
4277155371
4277162024
4277169958
4277176733
4277184668
4277190710
4277198706
4277207434
4277214514
4277220678
4277228369
4277236914
4277242651
4277251257
4277259008
4277266149
4277277746
4277284033
4277291723
4277299657
4277307409
4277313329
4277321325
4277328466
4277336462
4277344518
4277352148
4277358739
4277365575
4277373876
4277380468
4277389989
4277397802
4277405492
4277412145
4277420385
4277428991
4277437413
4277444005
4277452977
4277461950
4277467565
4277476659
4277484166
4277493932
4277501378
4277508885
4277515477
4277524388
4277531041
4277539281
4277548375
4277554540
4277563817
4277572179
4277578954
4277587132
4277594273
4277605443
4277612218
4277619542
4277629552
4277636754
4277643895
4277650670
4277659642
4277669224
4277679845
4277686253
4277692784
4277703587
4277712315
4277718663
4277726536
4277734166
4277741978
4277750401
4277757969
4277764744
4277772313
4277779209
4277785984
4277793797
4277800694
4277810337
4277817173
4277824864
4277830967
4277840611
4277847447
4277855564
4277861607
4277869969
4277875889
4277883823
4277892613
4277900608
4277907261
4277915440
4277925877
4277934483
4277942051
4277951450
4277957676
4277964512
4277972202
4277979038
4277988804
4277995640
4278003269
4278010288
4278018100
4278024387
4278034763
4278041294
4278050022
4278056186
4278064121
4278072544
4278078159
4278087192
4278094883
4278101291
4278109104
4278116245
4278124118
4278132663
4278140354
4278147617
4278155918
4278163608
4278171054
4278179477
4278187473
4278193088
4278202914
4278211704
4278218539
4278226779
4278234225
4278242709
4278251010
4278259555
4278265964
4278273410
4278281650
4278288363
4278298312
4278305026
4278313327
4278322482
4278328647
4278338351
4278344516
4278354586
4278359774
4278368502
4278375766
4278385897
4278393466
4278400180
4278409884
4278415744
4278425326
4278431674
4278441744
4278447909
4278456088
4278464572
4278473788
4278486483
4278496920
4278506869
4278514498
4278519747
4278531100
4278543490
4278551852
4278557162
4278567415
4278574373
4278583651
4278590365
4278598238
4278605013
4278613253
4278619417
4278625094
4278636019
4278643770
4278649813
4278658724
4278665010
4278673189
4278681368
4278689180
4278697176
4278704805
4278711397
4278718965
4278727754
4278735323
4278742952
4278750582
4278758272
4278766145
4278773775
4278782381
4278789583
4278796236
4278804536
4278811311
4278818880
4278825105
4278834383
4278840425
4278846101
4278857820
4278866487
4278872468
4278878328
4278888276
4278894014
4278903108
4278908967
4278919282
4278927339
4278935457
4278941438
4278951143
4278957368
4278965486
4278973909
4278980439
4278988191
4278997407
4279004731
4279013948
4279020539
4279026582
4279037202
4279043550
4279052827
4279061250
4279068147
4279076630
4279083955
4279091401
4279100007
4279107514
4279112885
4279125336
4279134675
4279141144
4279150605
4279157441
4279167451
4279174164
4279182404
4279189545
4279198090
4279207245
4279212372
4279222260
4279229645
4279238495
4279246003
4279254731
4279262421
4279271088
4279277558
4279283722
4279293915
4279302521
4279309601
4279318268
4279325897
4279333771
4279344574
4279352753
4279360687
4279369110
4279376984
4279386810
4279395966
4279403046
4279412140
4279418915
4279426544
4279432648
4279442535
4279448883
4279455231
4279465973
4279474701
4279480865
4279485992
4279494232
4279501251
4279507660
4279514679
4279521393
4279531524
4279537445
4279544403
4279552093
4279559845
4279565216
4279571807
4279582305
4279592254
4279600067
4279609649
4279619659
4279625640
4279636321
4279641387
4279651763
4279656646
4279666351
4279672393
4279680511
4279688140
4279696685
4279704436
4279711761
4279719329
4279725921
4279733611
4279742217
4279750579
4279757781
4279765288
4279773528
4279781280
4279789885
4279796538
4279805571
4279812285
4279820525
4279829497
4279837859
4279844878
4279853179
4279860442
4279867888
4279876189
4279883452
4279891020
4279900481
4279905852
4279915862
4279925139
4279933867
4279939971
4279949309
4279957793
4279965544
4279970671
4279979582
4279987151
4279997404
4280004729
4280013090
4280020415
4280028471
4280034941
4280043486
4280050139
4280058806
4280066984
4280075529
4280083342
4280091520
4280100126
4280105681
4280114714
4280122282
4280129973
4280139616
4280145292
4280156523
4280163176
4280172026
4280181059
4280188444
4280198332
4280211210
4280217130
4280225675
4280231291
4280240751
4280246366
4280255033
4280262785
4280270902
4280278532
4280285917
4280293668
4280300199
4280307890
4280315519
4280322660
4280331327
4280338163
4280346097
4280352933
4280360929
4280367216
4280375944
4280382413
4280392301
4280398465
4280407132
4280413358
4280419217
4280429227
4280438627
4280445585
4280453519
4280461148
4280468839
4280477140
4280484891
4280492337
4280497464
4280507474
4280516324
4280524320
4280531949
4280539884
4280547635
4280553372
4280560086
4280570584
4280578030
4280586514
4280594022
4280602017
4280608609
4280617154
4280625943
4280631924
4280641324
4280649930
4280657681
4280665921
4280672757
4280680020
4280687893
4280697293
4280704434
4280711026
4280717190
4280727810
4280734402
4280743130
4280751370
4280760464
4280766568
4280774929
4280783474
4280791836
4280800076
4280806851
4280816494
4280823208
4280829983
4280839443
4280846462
4280854885
4280863003
4280871304
4280880093
4280886257
4280895779
4280900845
4280913540
4280922146
4280928738
4280936245
4280944790
4280951992
4280960537
4280970974
4280985378
4280993129
4281002529
4281009792
4281019069
4281025844
4281036037
4281042629
4281051113
4281059597
4281067958
4281074123
4281081996
4281089687
4281097377
4281104946
4281112697
4281120815
4281128932
4281134426
4281141628
4281151332
4281159023
4281165798
4281172572
4281179897
4281188869
4281196864
4281203761
4281211391
4281217372
4281225734
4281231959
4281239467
4281248317
4281256007
4281264003
4281270473
4281280055
4281287806
4281295375
4281302943
4281310206
4281317836
4281324550
4281331324
4281340236
4281348170
4281355128
4281362086
4281370753
4281382228
4281390711
4281398158
4281404811
4281411463
4281420985
4281427638
4281434718
4281442286
4281450953
4281457118
4281465418
4281474146
4281479273
4281488367
4281493922
4281502711
4281510279
4281517908
4281525721
4281532801
4281540552
4281547205
4281554957
4281562098
4281568934
4281577540
4281584376
4281594080
4281601343
4281609095
4281616663
4281621912
4281634974
4281643274
4281649988
4281658289
4281665552
4281674158
4281680811
