3734220481
3734229087
3734237022
3734244468
3734251670
3734259361
3734266563
3734273826
3734280784
3734288291
3734296104
3734302696
3734309531
3734315818
3734324485
3734331138
3734339744
3734347007
3734353721
3734362510
3734370933
3734378684
3734384421
3734391807
3734400840
3734406211
3734413596
3734418845
3734428367
3734434348
3734443076
3734449607
3734455039
3734463401
3734471885
3734478965
3734485068
3734493186
3734499350
3734507468
3734514426
3734522055
3734528769
3734535727
3734543845
3734550559
3734557822
3734565268
3734573264
3734579794
3734587363
3734595114
3734602072
3734609030
3734616171
3734622275
3734632285
3734639670
3734646506
3734657370
3734662924
3734671896
3734675192
3734686178
3734690512
3734700705
3734706869
3734714865
3734721029
3734728659
3734737875
3734743673
3734751303
3734756369
3734764730
3734772055
3734778524
3734786459
3734794271
3734800924
3734808370
3734817526
3734823507
3734831686
3734838095
3734845846
3734853292
3734860800
3734868673
3734875875
3734881612
3734887960
3734896383
3734902792
3734911276
3734918417
3734925558
3734932027
3734942037
3734947835
3734955099
3734962606
3734968343
3734974752
3734984273
3734991842
3734999227
3735008016
3735013265
3735022725
3735028524
3735036519
3735045308
3735052022
3735058675
3735065999
3735072469
3735077596
3735086385
3735092488
3735100545
3735108602
3735115254
3735122579
3735128194
3735136983
3735140828
3735150777
3735156758
3735166158
3735172200
3735178853
3735187154
3735195393
3735203267
3735212727
3735219624
3735227925
3735232747
3735240926
3735246724
3735254048
3735261677
3735268330
3735275777
3735282735
3735289265
3735296650
3735302998
3735310444
3735319233
3735325703
3735333149
3735341938
3735348652
3735356892
3735363667
3735370808
3735377766
3735384358
3735390889
3735398762
3735406941
3735412800
3735420796
3735427204
3735435139
3735443257
3735448567
3735458454
3735465046
3735473408
3735480061
3735486836
3735494770
3735504292
3735511494
3735519184
3735526203
3735534626
3735541523
3735549702
3735559162
3735567097
3735575031
3735584247
3735590046
3735598896
3735606220
3735612629
3735620807
3735629596
3735636310
3735644123
3735652118
3735658161
3735667194
3735673664
3735685566
3735693683
3735701190
3735709918
3735716571
3735723651
3735730426
3735741046
3735749591
3735756183
3735763263
3735769672
3735774982
3735782794
3735789569
3735797443
3735802631
3735810504
3735818439
3735823505
3735832904
3735839313
3735847125
3735853229
3735861957
3735868426
3735874408
3735882770
3735894427
3735901996
3735909442
3735914996
3735923419
3735929950
3735938128
3735945575
3735953143
3735960894
3735968097
3735974444
3735982562
3735988604
3735997699
3736004168
3736012042
3736018389
3736026446
3736034625
3736042681
3736050799
3736056719
3736066424
3736073687
3736080157
3736088335
3736095843
3736103472
3736109087
3736118853
3736125079
3736133135
3736139605
3736146929
3736154864
3736163286
3736169878
3736176104
3736184588
3736190569
3736198076
3736207964
3736214861
3736221819
3736228045
3736235918
3736243181
3736252337
3736258806
3736266680
3736273882
3736280474
3736287615
3736294512
3736301470
3736310381
3736316240
3736323931
3736330889
3736337602
3736344988
3736353105
3736360246
3736370012
3736376909
3736384905
3736391191
3736397173
3736406572
3736414690
3736421403
3736427385
3736436601
3736442277
3736449907
3736457780
3736466569
3736474138
3736482011
3736490678
3736499345
3736511369
3736517900
3736526811
3736532975
3736541764
3736550676
3736560319
3736570634
3736581498
3736588395
3736597673
3736606462
3736614640
3736623124
3736628251
3736639420
3736646684
3736654984
3736662614
3736667741
3736675553
3736681901
3736688248
3736695512
3736701737
3736709306
3736714982
3736721268
3736729020
3736734757
3736740311
3736747880
3736753617
3736759782
3736766984
3736773942
3736779618
3736786942
3736792496
3736799454
3736805069
3736811051
3736818497
3736825272
3736832291
3736837357
3736844986
3736850418
3736858170
3736865555
3736870804
3736877518
3736885208
3736891556
3736899308
3736904618
3736912491
3736918167
3736926041
3736934647
3736939774
3736946427
3736953385
3736960159
3736966873
3736973282
3736981278
3736987808
3736991531
3737000015
3737007828
3737014114
3737022354
3737028641
3737036575
3737043045
3737050980
3737057388
3737063248
3737071365
3737077041
3737085159
3737094131
3737101822
3737108841
3737116287
3737123611
3737130996
3737138260
3737147049
3737154617
3737160659
3737169265
3737174148
3737182693
3737187088
3737195693
3737200698
3737210830
3737220107
3737226638
3737234512
3737241409
3737248062
3737255569
3737262771
3737271926
3737280288
3737287185
3737293838
3737301467
3737308791
3737315871
3737322829
3737331496
3737335891
3737343948
3737350661
3737357131
3737363784
3737371169
3737381911
3737388442
3737395461
3737403884
3737410842
3737417617
3737424758
3737431472
3737438186
3737447219
3737452224
3737459548
3737467421
3737474746
3737481459
3737488661
3737494460
3737503981
3737509535
3737517592
3737526137
3737531386
3737539015
3737546584
3737552260
3737559767
3737568312
3737574660
3737583205
3737588332
3737596938
3737603773
3737610426
3737616164
3737625258
3737631178
3737638563
3737644911
3737653944
3737660170
3737667433
3737673659
3737682997
3737690199
3737698195
3737704237
3737713026
3737719557
3737726027
3737735426
3737743116
3737752211
3737758253
3737767408
3737773329
3737782606
3737789381
3737796644
3737806105
3737814283
3737820936
3737830946
3737836805
3737846693
3737852308
3737861219
3737869703
3737878065
3737886549
3737892408
3737898939
3737907789
3737913648
3737922742
3737933424
3737939649
3737946119
3737955579
3737961988
3737970167
3737977796
3737986829
3737994886
3738006360
3738013501
3738023999
3738030957
3738039808
3738047620
3738055188
3738062635
3738069104
3738079480
3738086438
3738093762
3738099561
3738107312
3738113355
3738122754
3738130750
3738136060
3738143872
3738151441
3738159131
3738164624
3738173108
3738180493
3738188123
3738193494
3738201916
3738209058
3738215710
3738222607
3738229321
3738239270
3738245984
3738252209
3738261243
3738266064
3738275158
3738281079
3738288281
3738296399
3738303723
3738310132
3738317334
3738325695
3738333081
3738339672
3738346997
3738352795
3738360913
3738366711
3738374523
3738382946
3738391308
3738397656
3738405102
3738414562
3738420483
3738429577
3738437206
3738444653
3738453137
3738460583
3738464733
3738474499
3738484997
3738493114
3738500439
3738508617
3738516369
3738522533
3738530834
3738538891
3738545299
3738555004
3738563244
3738571239
3738579357
3738584911
3738593761
3738599926
3738606945
3738617931
3738623912
3738630565
3738639354
3738647533
3738653820
3738662487
3738668712
3738678600
3738686962
3738692333
3738701427
3738707164
3738717235
3738724376
3738731456
3738745250
3738751842
3738760143
3738767162
3738777171
3738784435
3738793529
3738800182
3738810191
3738818980
3738824596
3738834300
3738842723
3738849986
3738857738
3738865611
3738872020
3738881968
3738888926
3738896922
3738904490
3738910350
3738918712
3738926707
3738933848
3738941966
3738949656
3738955699
3738964122
3738971568
3738977244
3738984446
3738992991
3738999888
3739006541
3739015330
3739021922
3739027110
3739036204
3739042307
3739049693
3739057322
3739064707
3739072642
3739079844
3739085520
3739092905
3739101450
3739107005
3739112925
3739121653
3739129160
3739135752
3739144053
3739152048
3739158274
3739166819
3739174082
3739182505
3739189585
3739195627
3739205759
3739212046
3739219919
3739226206
3739234324
3739240671
3739250681
3739258860
3739265146
3739274424
3739279917
3739289194
3739294870
3739302805
3739309885
3739319711
3739323923
3739333811
3739342905
3739348764
3739357187
3739364145
3739372751
3739382272
3739388559
3739394540
3739403818
3739411020
3739418161
3739425241
3739433481
3739441537
3739451852
3739458871
3739469186
3739475717
3739483407
3739489938
3739497140
3739504648
3739514352
3739523019
3739529794
3739535043
3739544320
3739553964
3739562631
3739567147
3739581246
3739588327
3739596627
3739606820
3739614572
3739620858
3739629952
3739637460
3739647469
3739656075
3739663888
3739671883
3739678475
3739685555
3739692818
3739700570
3739707894
3739713814
3739722787
3739728524
3739736275
3739742013
3739751107
3739759041
3739766488
3739772347
3739780465
3739788155
3739793221
3739801583
3739808236
3739816719
3739822945
3739829598
3739837899
3739844429
3739851876
3739858590
3739865242
3739872505
3739879586
3739886727
3739892220
3739901924
3739909371
3739917488
3739924629
3739934761
3739941658
3739949898
3739958626
3739963142
3739971687
3739978218
3739984810
3739992439
3739998909
3740008064
3740014961
3740022652
3740031929
3740037666
3740046944
3740054878
3740064277
3740072090
3740080513
3740088569
3740096748
3740101997
3740110908
3740118477
3740124519
3740131965
3740141059
3740147590
3740156440
3740162605
3740171516
3740177436
3740186286
3740195442
3740201667
3740207954
3740217170
3740224555
3740234504
3740241889
3740249885
3740258186
3740267585
3740272712
3740282844
3740288825
3740296943
3740303535
3740311591
3740318183
3740331184
3740339423
3740347480
3740352180
3740362555
3740369452
3740379157
3740384772
3740393805
3740401679
3740411078
3740417670
3740425727
3740431647
3740440924
3740447760
3740456183
3740463874
3740470771
3740476386
3740482794
3740491339
3740498664
3740505438
3740514227
3740520880
3740527289
3740536688
3740543524
3740550055
3740558417
3740565192
3740572089
3740581061
3740588385
3740595099
3740602362
3740608893
3740614752
3740623846
3740630133
3740637579
3740644049
3740653204
3740659186
3740666510
3740672186
3740680182
3740689276
3740696600
3740703314
3740710577
3740716497
3740724981
3740731085
3740740301
3740746649
3740754034
3740763189
3740769659
3740776861
3740785833
3740793035
3740800909
3740806890
3740816717
3740824713
3740831121
3740837042
3740846441
3740852178
3740861822
3740869878
3740877203
3740885686
3740895025
3740899786
3740907903
3740914678
3740924627
3740931707
3740939641
3740946477
3740954473
3740960760
3740969793
3740978032
3740985601
3740991704
3741000249
3741009465
3741017461
3741023931
3741032720
3741038823
3741046758
3741054937
3741062627
3741069219
3741079534
3741083806
3741093328
3741099553
3741108464
3741115483
3741124944
3741131535
3741143010
3741149602
3741159367
3741166142
3741172307
3741182072
3741190068
3741197942
3741210271
3741216130
3741223088
3741232060
3741238530
3741245061
3741252934
3741259648
3741266362
3741275639
3741283085
3741289555
3741295964
3741303654
3741310978
3741318242
3741325016
3741332096
3741340092
3741347111
3741352970
3741359928
3741368473
3741375614
3741381413
3741389286
3741396977
3741404179
3741409916
3741416264
3741425358
3741430912
3741440373
3741447514
3741455265
3741462040
3741470097
3741478825
3741484623
3741493229
3741501102
3741510258
3741518070
3741526249
3741532291
3741541385
3741546146
3741555424
3741562015
3741571171
3741578251
3741585087
3741592594
3741599247
3741605716
3741612857
3741619510
3741626834
3741632877
3741642337
3741650699
3741656009
3741663517
3741669559
3741678165
3741686405
3741692264
3741702518
3741708682
3741715762
3741724185
3741729251
3741738345
3741745914
3741755435
3741763797
3741772525
3741778323
3741787662
3741793338
3741799014
3741808047
3741815738
3741825748
3741832706
3741840274
3741846316
3741855411
3741864139
3741869815
3741879458
3741890933
3741899356
3741908694
3741914676
3741923648
3741932315
3741940737
3741948855
3741957278
3741966799
3741972903
3741981204
3741986880
3741995181
3742003726
3742009524
3742018008
3742025759
3742033328
3742038271
3742046816
3742054018
3742060671
3742067690
3742076479
3742081545
3742088869
3742095949
3742103274
3742111330
3742118471
3742125429
3742132815
3742138613
3742147097
3742154665
3742161867
3742167666
3742175905
3742181643
3742189333
3742196962
3742201967
3742210512
3742217104
3742223574
3742231813
3742238955
3742247072
3742254335
3742263491
3742270632
3742278078
3742283998
3742293215
3742299196
3742307558
3742314821
3742323183
3742329225
3742338442
3742344362
3742353578
3742360841
3742368044
3742376405
3742383607
3742389833
3742399782
3742407655
3742415895
3742423036
3742433107
3742441041
3742448549
3742456910
3742464296
3742472108
3742478212
3742486940
3742494996
3742501283
3742509950
3742516237
3742525270
3742531495
3742538697
3742548219
3742555787
3742563050
3742569032
3742576844
3742583070
3742593141
3742599671
3742608460
3742614991
3742623048
3742631593
3742665467
3742672852
3742682069
3742689088
3742698548
3742705140
3742717713
3742724793
3742732972
3742740723
3742749085
3742756531
3742765748
3742771729
3742779175
3742787415
3742794617
3742802369
3742807801
3742817078
3742824585
3742830323
3742837586
3742843506
3742852295
3742860535
3742865540
3742874085
3742882202
3742887940
3742894959
3742903565
3742909912
3742916748
3742925171
3742932251
3742940735
3742946777
3742953918
3742960449
3742968811
3742975464
3742982239
3742989563
3742995911
3743003113
3743008850
3743017578
3743023193
3743031677
3743039856
3743045532
3743054809
3743060486
3743069763
3743076843
3743083984
3743091491
3743099426
3743106933
3743114929
3743121643
3743130981
3743137390
3743147277
3743153503
3743161499
3743169921
3743177795
3743184020
3743192504
3743199462
3743207458
3743214782
3743223815
3743231506
3743235900
3743245483
3743252074
3743261535
3743267821
3743276366
3743284911
3743290404
3743299743
3743306823
3743314208
3743322936
3743330016
3743336364
3743344420
3743351256
3743359313
3743368102
3743374328
3743383727
3743389891
3743398375
3743404235
3743413695
3743421813
3743428160
3743436034
3743443175
3743451598
3743462218
3743471862
3743482176
3743492980
3743502257
3743513732
3743520628
3743530577
3743536559
3743546324
3743552855
3743560667
3743566832
3743577574
3743583250
3743590208
3743597777
3743605345
3743612852
3743619688
3743625487
3743632445
3743640623
3743647032
3743655577
3743661314
3743670286
3743676817
3743685179
3743691465
3743700010
3743705992
3743712523
3743719847
3743727842
3743735716
3743742918
3743748716
3743756040
3743764097
3743771360
3743777281
3743784605
3743792112
3743798521
3743806394
3743814329
3743822019
3743826658
3743835264
3743841856
3743850279
3743856626
3743863767
3743870176
3743880308
3743885435
3743895566
3743902952
3743911008
3743918455
3743924375
3743932920
3743941404
3743947690
3743954831
3743964170
3743971433
3743978574
3743985105
3743993284
3744002134
3744010190
3744016660
3744024594
3744033078
3744038266
3744047666
3744053159
3744062802
3744070127
3744077573
3744086606
3744093808
3744100827
3744108823
3744115781
3744123715
3744130246
3744138364
3744146603
3744154721
3744161679
3744169064
3744178342
3744185544
3744192746
3744200375
3744209775
3744216794
3744223996
3744231564
3744239560
3744249081
3744258053
3744266415
3744276852
3744284115
3744292965
3744299801
3744308346
3744317196
3744322750
3744331356
3744339352
3744345150
3744352047
3744361386
3744367977
3744374630
3744382076
3744390682
3744398373
3744404843
3744412167
3744420834
3744427486
3744434139
3744441586
3744448238
3744454586
3744463741
3744470150
3744477413
3744485287
3744492611
3744498897
3744506222
3744514034
3744521297
3744527035
3744535335
3744543026
3744550411
3744556087
3744564632
3744570553
3744578609
3744586116
3744591182
3744600338
3744607723
3744614925
3744622554
3744629818
3744637752
3744645626
3744652889
3744661128
3744667598
3744676937
3744683284
3744691829
3744701534
3744706722
3744716243
3744721797
3744731197
3744738582
3744745906
3744753108
3744761043
3744768123
3744776179
3744782771
3744792232
3744798762
3744807368
3744814265
3744822017
3744829585
3744840816
3744849238
3744857356
3744865718
3744870845
3744880061
3744887202
3744894404
3744903621
3744910762
3744917231
3744925410
3744933528
3744941340
3744945613
3744954829
3744964350
3744972468
3744978877
3744987300
3744996516
3745005000
3745012202
3745020442
3745030024
3745037653
3745044489
3745055170
3745062617
3745071284
3745078608
3745086542
3745092890
3745101496
3745110041
3745117182
3745123774
3745133112
3745141901
3745149653
3745155939
3745164606
3745172541
3745179010
3745187006
3745192316
3745200861
3745207697
3745216303
3745222712
3745231684
3745236811
3745245294
3745252191
3745258966
3745265253
3745272638
3745279474
3745288629
3745295282
3745302728
3745308954
3745316095
3745321893
3745331110
3745337091
3745345453
3745351251
3745358575
3745366388
3745374017
3745379938
3745386652
3745395196
3745401666
3745410455
3745418512
3745425897
3745433343
3745440729
3745447381
3745455377
3745462396
3745470514
3745476678
3745485772
3745494317
3745499383
3745508599
3745516229
3745523553
3745529595
3745539666
3745546014
3745554132
3745561090
3745569268
3745577752
3745583856
3745592828
3745602960
3745609185
3745617852
3745626275
3745631829
3745641229
3745647698
3745654961
3745664910
3745672600
3745678399
3745688653
3745695183
3745703057
3745710442
3745718621
3745724969
3745732720
3745740960
3745746209
3745755791
3745763787
3745770989
3745777947
3745786065
3745792595
3745802544
3745809929
3745817864
3745825249
3745832817
3745837029
3745848076
3745854607
3745863518
3745872612
3745878960
3745889458
3745897576
3745905571
3745913017
3745920342
3745936455
3745949455
3745967339
3745974297
3745979484
3745987297
3745994926
3746000358
3746007927
3746014030
3746021660
3746027946
3746040519
3746046867
3746051445
3746058098
3746063347
3746067863
3746075126
3746080619
3746087944
3746093132
3746100151
3746105705
3746114250
3746121147
3746127311
3746134758
3746142631
3746149040
3746157035
3746163505
3746171562
3746176200
3746184257
3746191093
3746199272
3746207389
3746212760
3746219474
3746227592
3746235648
3746242851
3746252738
3746260001
3746266959
3746273307
3746280143
3746287772
3746294608
3746301871
3746308768
3746315970
3746322867
3746330008
3746336783
3746343009
3746351371
3746358329
3746365409
3746370597
3746377128
3746384147
3746389335
3746394034
3746398490
3746404776
3746410819
3746417350
3746423209
3746429618
3746434806
3746440177
3746447745
3746452567
3746460379
3746465811
3746473563
3746485404
3746494864
3746502432
3746509634
3746516226
3746525076
3746532034
3746538992
3746551627
3746556754
3746564444
3746572256
3746580984
3746585562
3746592581
3746598990
3746605276
3746623099
3746636831
3746644827
3746653067
3746658255
3746668448
3746675406
3746683340
3746690420
3746696035
3746704824
3746712698
3746719656
3746725332
3746733938
3746742361
3746749441
3746756948
3746764089
3746771841
3746778921
3746785452
3746794302
3746800771
3746807729
3746814565
3746821584
3746827078
3746837759
3746841665
3746853078
3746860281
3746866689
3746874868
3746880727
3746887868
3746896596
3746902212
3746909231
3746915944
3746921987
3746928151
3746934865
3746940114
3746949819
3746955861
3746962331
3746968984
3746975026
3746981862
3746989125
3746994924
3747000783
3747007985
3747015004
3747024221
3747036061
3747045522
3747054128
3747061208
3747067494
3747074574
3747079396
3747088124
3747093373
3747101430
3747107289
3747113332
3747120656
3747127004
3747134328
3747143239
3747149464
3747157887
3747164479
3747171681
3747179066
3747185902
3747221547
3747233937
3747243153
3747252491
3747259449
3747266407
3747273915
3747282704
3747290089
3747299061
3747306996
3747315052
3747322865
3747330799
3747337025
3747345753
3747354359
3747362293
3747369435
3747377430
3747383167
3747392140
3747400684
3747409351
3747415699
3747425465
3747435108
3747441761
3747449940
3747459522
3747465870
3747474598
3747481495
3747487720
3747494617
3747500843
3747508350
3747514515
3747520862
3747527454
3747533680
3747540943
3747547107
3747556446
3747562305
3747570484
3747576587
3747583484
3747590503
3747595813
3747604053
3747610462
3747616626
3747622303
3747631580
3747638843
3747650134
3747657215
3747663013
3747674121
3747681690
3747690051
3747698596
3747705615
3747710620
3747719043
3747728015
3747734485
3747743274
3747751392
3747758289
3747764453
3747771350
3747778430
3747787890
3747795215
3747801379
3747808215
3747817981
3747826648
3747834826
3747844104
3747854602
3747867663
3747877917
3747886889
3747898669
3747911181
3747921435
3747931567
3747942919
3747953112
3747962145
3747970934
3747981860
3747991869
3747998888
3748008593
3748015063
3748024706
3748033129
3748040636
3748049975
3748057360
3748066088
3748075671
3748083056
3748090563
3748099047
3748106493
3748114977
3748125353
3748130236
3748137499
3748144884
3748152208
3748155748
3748164843
3748171251
3748179735
3748185472
3748196032
3748201952
3748210680
3748217882
3748227953
3748234178
3748243090
3748250719
3748258837
3748264574
3748271227
3748278795
3748284715
3748293749
3748300157
3748309007
3748315355
3748324266
3748329393
3748338487
3748344896
3748352159
3748359361
3748366991
3748373582
3748380846
3748386644
3748394945
3748402757
3748407091
3748416002
3748424363
3748432603
3748437730
3748446153
3748453172
3748459825
3748465806
3748473069
3748480149
3748489610
3748498521
3748505418
3748513047
3748519944
3748525682
3748533006
3748540574
3748550157
3748555345
3748562608
3748568528
3748579637
3748586656
3748594407
3748601243
3748610825
3748617905
3748624924
3748632432
3748641160
3748647446
3748655869
3748667283
3748673875
3748681565
3748691453
3748697556
3748707505
3748714341
3748722031
3748734116
3748742356
3748749985
3748757493
3748763718
3748771531
3748778611
3748786118
3748792099
3748797715
3748806198
3748813706
3748820969
3748826767
3748837143
3748844101
3748853012
3748862412
3748872299
3748882980
3748892624
3748900436
3748911911
3748921677
3748928757
3748938156
3748947250
3748955795
3748963058
3748972824
3748981796
3748991134
3748999557
3749007736
3749014572
3749020248
3749027939
3749034103
3749041610
3749047958
3749055282
3749061569
3749068100
3749074203
3749081710
3749087875
3749094589
3749101242
3749107345
3749113876
3749120590
3749127487
3749135055
3749141708
3749147262
3749154891
3749162338
3749167892
3749178146
3749184005
3749192977
3749199447
3749207259
3749213668
3749222762
3749229293
3749236678
3749243575
3749251876
3749256881
3749264632
3749272933
3749280440
3749288009
3749295211
3749301070
3749309127
3749314742
3749322982
3749331099
3749337508
3749346053
3749354476
3749360946
3749369735
3749376204
3749382857
3749392257
3749402938
3749408431
3749418379
3749424239
3749432051
3749440474
3749448653
3749454756
3749465315
3749469405
3749478621
3749484419
3749493025
3749498885
3749507002
3749514754
3749523421
3749529280
3749537886
3749543623
3749551436
3749559126
3749566511
3749572188
3749580977
3749586592
3749593123
3749601668
3749608015
3749616560
3749623091
3749629744
3749638716
3749645247
3749651655
3749658979
3749665571
3749672956
3749679548
3749687361
3749695784
3749703108
3749710676
3749717695
3749723982
3749731367
3749736982
3749745344
3749753462
3749761518
3749767317
3749775312
3749783247
3749788252
3749796919
3749802351
3749812727
3749820112
3749825788
3749833417
3749840070
3749846479
3749854841
3749861310
3749867841
3749876752
3749883283
3749890302
3749898359
3749905805
3749913679
3749919904
3749927900
3749936811
3749944989
3749953351
3749958295
3749967572
3749974286
3749981488
3749989057
3749998273
3750007306
3750014691
3750020307
3750028424
3750036725
3750044965
3750052960
3750058942
3750067609
3750076337
3750082623
3750091718
3750100018
3750106305
3750115582
3750122296
3750130353
3750138715
3750148541
3750157452
3750163678
3750171124
3750179181
3750187359
3750196332
3750204876
3750211957
3750218792
3750225506
3750233075
3750241009
3750247479
3750254803
3750263409
3750270794
3750274578
3750284100
3750291790
3750299053
3750304852
3750312481
3750320294
3750329327
3750337506
3750342999
3750351422
3750358624
3750364483
3750371929
3750379498
3750386883
3750394451
3750398968
3750407513
3750414104
3750422527
3750428448
3750437054
3750443584
3750451885
3750458660
3750465374
3750471050
3750480388
3750486614
3750493816
3750500347
3750509441
3750515789
3750523784
3750530010
3750538677
3750546917
3750554058
3750562420
3750570598
3750576763
3750585857
3750593181
3750600750
3750608196
3750615154
3750623393
3750631694
3750639629
3750646465
3750654338
3750663249
3750671184
3750678813
3750687785
3750694194
3750703105
3750709331
3750716960
3750724345
3750732463
3750739604
3750746623
3750756816
3750763164
3750771281
3750778056
3750786113
3750795207
3750803019
3750810405
3750816203
3750824687
3750834269
3750840495
3750849467
3750855693
3750864421
3750870707
3750878581
3750885844
3750894999
3750904154
3750909770
3750920634
3750928996
3750937113
3750944682
3750953227
3750960551
3750969157
3750979838
3750986918
3750992106
3751001810
3751008768
3751016276
3751022745
3751030314
3751038859
3751046061
3751051859
3751059977
3751067789
3751075175
3751083292
3751090433
3751096049
3751105387
3751113199
3751118570
3751126261
3751131632
3751140116
3751146280
3751154703
3751160440
3751169107
3751174723
3751183084
3751190348
3751196878
3751204508
3751212992
3751219828
3751226358
3751232950
3751241983
3751248819
3751255472
3751263040
3751270242
3751277506
3751285379
3751292093
3751299478
3751305704
3751312906
3751321512
3751328531
3751333902
3751341592
3751347269
3751355691
3751364114
3751369729
3751379129
3751388711
3751395059
3751402139
3751411538
3751417032
3751426492
3751431253
3751441324
3751448526
3751456521
3751460733
3751471231
3751477456
3751486428
3751492654
3751500405
3751509744
3751515847
3751525125
3751531533
3751538735
3751547891
3751555093
3751562600
3751570474
3751577432
3751587869
3751594827
3751603310
3751610390
3751619546
3751627236
3751632851
3751639687
3751651650
3751655801
3751666054
3751673257
3751682656
3751690285
3751697548
3751706704
3751713112
3751719643
3751730874
3751737893
3751748452
3751755654
3751763222
3751773354
3751783669
3751788735
3751797646
3751802895
3751812111
3751818642
3751827004
3751833351
3751842140
3751848976
3751855690
3751861366
3751870583
3751876503
3751883827
3751891090
3751898354
3751904945
3751912148
3751920570
3751927772
3751934547
3751941933
3751947670
3751955788
3751961464
3751969276
3751976845
3751983070
3751991859
3751997352
3752008033
3752015724
3752021522
3752028358
3752036720
3752042823
3752051124
3752056617
3752065834
3752074745
3752082130
3752089210
3752097084
3752104835
3752112892
3752120155
3752128089
3752134437
3752143470
3752150062
3752158485
3752166724
3752172279
3752181739
3752188880
3752196204
3752202491
3752210365
3752218787
3752226905
3752233253
3752241370
3752249671
3752257789
3752264319
3752273719
3752279944
3752289283
3752297339
3752305091
3752311805
3752319739
3752326209
3752335242
3752341468
3752351477
3752357703
3752364600
3752373633
3752379920
3752389014
3752396949
3752405066
3752413062
3752419531
3752428198
3752433875
3752442053
3752448584
3752460364
3752467261
3752477454
3752487097
3752499976
3752508582
3752517615
3752529578
3752537207
3752546118
3752552649
3752562598
3752571814
3752578222
3752587256
3752595801
3752606726
3752614111
3752622107
3752629065
3752636816
3752644140
3752652258
3752658667
3752667639
3752675878
3752680334
3752688879
3752695532
3752704199
3752709570
3752718115
3752725195
3752731787
3752739050
3752747778
3752753515
3752762121
3752768224
3752777563
3752783300
3752790502
3752797948
3752805334
3752813940
3752819921
3752826208
3752835790
3752842199
3752851781
3752857946
3752864660
3752873815
3752880041
3752889379
3752896764
3752904210
3752912511
3752919957
3752926671
3752934789
3752943212
3752951268
3752957738
3752965734
3752972142
3752980626
3752989049
3752994786
3753004125
3753010106
3753019444
3753027196
3753036107
3753043675
3753051000
3753057530
3753065648
3753072301
3753079930
3753088536
3753098485
3753105077
3753113194
3753121190
3753129613
3753135594
3753145543
3753153294
3753160130
3753168675
3753176610
3753180821
3753190526
3753198887
3753207005
3753213719
3753222935
3753229283
3753238499
3753247349
3753253331
3753261448
3753269200
3753275791
3753286412
3753295079
3753305088
3753312351
3753321751
3753330540
3753335606
3753345616
3753356297
3753365391
3753371006
3753380467
3753386814
3753396885
3753403721
3753413059
3753419224
3753429111
3753435703
3753445164
3753449985
3753460056
3753466404
3753474521
3753483555
3753491611
3753497776
3753506016
3753511692
3753520603
3753529026
3753534519
3753543979
3753551426
3753560764
3753566562
3753573764
3753582248
3753589450
3753596164
3753604160
3753611789
3753619785
3753625888
3753634982
3753641452
3753648837
3753657993
3753666049
3753672458
3753680942
3753688205
3753694492
3753702426
3753710605
3753718722
3753727267
3753733371
3753739719
3753750827
3753757175
3753766269
3753772494
3753778537
3753787997
3753796237
3753803561
3753810580
3753817904
3753824740
3753832736
3753841708
3753847750
3753856967
3753863009
3753873568
3753879611
3753888034
3753893893
3753903231
3753912020
3753918368
3753925997
3753933261
3753941927
3753949191
3753956515
3753964510
3753973177
3753979037
3753988070
3753993929
3754002596
3754011690
3754018038
3754027254
3754033541
3754041292
3754048861
3754056002
3754065523
3754073397
3754080721
3754089388
3754096590
3754104586
3754113497
3754120943
3754129671
3754136507
3754146639
3754155123
3754163790
3754170381
3754181246
3754187960
3754194551
3754204317
3754212374
3754221895
3754228060
3754237337
3754243562
3754252901
3754258333
3754268465
3754276827
3754284212
3754291597
3754299715
3754306917
3754315218
3754321504
3754330110
3754336702
3754344087
3754353181
3754358919
3754368196
3754375398
3754382722
3754390352
3754398225
3754405183
3754415315
3754422212
3754430269
3754436738
3754445832
3754452180
3754458284
3754467866
3754477510
3754483796
3754491242
3754500764
3754506379
3754515534
3754520967
3754528901
3754536591
3754544831
3754551057
3754561555
3754565766
3754575410
3754583772
3754589997
3754599458
3754604768
3754613984
3754621796
3754629121
3754636506
3754644501
3754651581
3754659577
3754666108
3754675507
3754681855
3754691742
3754697968
3754705109
3754714570
3754720673
3754730011
3754737336
3754744660
3754753449
3754760773
3754767792
3754776032
3754780304
3754790314
3754796967
3754807465
3754813812
3754822296
3754831391
3754839264
3754846832
3754854645
3754861420
3754869965
3754878387
3754884186
3754893341
3754899506
3754908905
3754916534
3754923920
3754931732
3754940277
3754948028
3754956207
3754964020
3754972564
3754979889
3754990509
3754997101
3755007904
3755014373
3755024871
3755031280
3755040374
3755049957
3755054962
3755064605
3755071380
3755080780
3755087371
3755094940
3755103240
3755110626
3755117462
3755125579
3755136749
3755144866
3755152007
3755160247
3755169280
3755175323
3755183624
3755191680
3755198394
3755206756
3755214019
3755221953
3755229156
3755238433
3755245574
3755252776
3755260955
3755268584
3755276702
3755283111
3755292205
3755298491
3755307586
3755316130
3755321441
3755330901
3755339629
3755345977
3755353484
3755360808
3755367400
3755375395
3755384612
3755392607
3755399626
3755407561
3755413909
3755423186
3755429472
3755436003
3755445647
3755452300
3755461699
3755468779
3755476042
3755484831
3755492033
3755496184
3755506071
3755512358
3755521513
3755527922
3755537993
3755544401
3755553313
3755559843
3755567473
3755574919
3755583098
3755590666
3755599943
3755607145
3755611235
3755623442
3755632231
3755640776
3755647428
3755656401
3755665556
3755671598
3755678068
3755687651
3755695707
3755700407
3755709623
3755716093
3755724272
3755731352
3755737516
3755743742
3755750700
3755757658
3755763822
3755770231
3755779630
3755784391
3755792509
3755800809
3755807218
3755813871
3755818815
3755826871
3755832365
3755841154
3755845487
3755852445
3755857999
3755864835
3755870267
3755877347
3755885099
3755891385
3755897977
3755903531
3755911100
3755915921
3755924100
3755928983
3755935514
3755941617
3755947843
3755954007
3755959806
3755966519
3755971891
3755977750
3755984403
3755988797
3755995450
3756001126
3756007352
3756011991
3756018216
3756024259
3756029691
3756036405
3756040860
3756047269
3756053861
3756059049
3756064298
3756071011
3756076382
3756082547
3756088101
3756094388
3756099026
3756105252
3756110867
3756116543
3756123501
3756128873
3756133999
3756140225
3756144864
3756151639
3756158291
3756164822
3756170376
3756175808
3756180874
3756187527
3756195645
3756202237
3756206204
3756212552
3756218838
3756225186
3756231228
3756237759
3756244229
3756249722
3756256253
3756261441
3756268582
3756275296
3756283962
3756290066
3756295803
3756303494
3756308438
3756315579
3756322415
3756327603
3756337978
3756345303
3756351345
3756358852
3756365139
3756372646
3756379055
3756387844
3756397549
3756403713
3756408596
3756415920
3756422695
3756429104
3756435940
3756442104
3756446926
3756454494
3756460964
3756468593
3756474758
3756480312
3756488125
3756493618
3756500515
3756505947
3756512966
3756518459
3756525905
3756531337
3756538845
3756544460
3756550624
3756557766
3756564296
3756570705
3756577175
3756583583
3756591213
3756597865
3756603908
3756610195
3756616176
3756622218
3756629909
3756636440
3756642055
3756647731
3756654750
3756660976
3756668178
3756673061
3756680324
3756688136
3756692958
3756700282
3756706752
3756713954
3756718715
3756726161
3756731105
3756740382
3756745997
3756753139
3756759547
3756764857
3756771449
3756778895
3756787013
3756791591
3756798732
3756805140
3756812404
3756817164
3756824855
3756831935
3756839320
3756844142
3756851954
3756859706
3756864588
3756872340
3756877955
3756887416
3756894496
3756901209
3756907801
3756914698
3756920619
3756929102
3756934901
3756943324
3756948756
3756957911
3756963465
3756970911
3756978968
3756986048
3756992335
3757003626
3757010096
3757017359
3757024439
3757030115
3757037745
3757045679
3757053065
3757061609
3757068628
3757076075
3757083155
3757089380
3757096216
3757104212
3757111048
3757118067
3757124903
3757131861
3757138636
3757143824
3757151331
3757158533
3757165369
3757173365
3757180017
3757185388
3757192041
3757199182
3757206079
3757214807
3757222131
3757227930
3757235498
3757243066
3757250818
3757256982
3757265405
3757273279
3757279138
3757287744
3757295618
3757301538
3757310449
3757316247
3757324060
3757331567
3757339807
3757346338
3757352685
3757361841
3757366784
3757376428
3757381799
3757389795
3757399072
3757407312
3757414392
3757422448
3757428674
3757435266
3757445703
3757453698
3757461206
3757467614
3757477502
3757482751
3757492822
3757499536
3757507531
3757515466
3757521447
3757527734
3757537743
3757546227
3757552331
3757561608
3757567773
3757575280
3757583642
3757590844
3757600121
3757607384
3757614831
3757622887
3757629235
3757637231
3757645897
3757654381
3757660607
3757667321
3757676598
3757682885
3757692284
3757698327
3757707787
3757713768
3757722008
3757728966
3757741783
3757749108
3757757775
3757764916
3757773766
3757782189
3757790856
3757799828
3757810387
3757816490
3757825096
3757833092
3757841332
3757848412
3757857201
3757863792
3757872337
3757881065
3757889366
3757895775
3757902061
3757911644
3757919823
3757927330
3757936607
3757943870
3757950401
3757960350
3757965538
3757973655
3757982689
3757990562
3757998802
3758004661
3758010887
3758020958
3758027549
3758034874
3758044212
3758051536
3758058860
3758067527
3758074790
3758082786
3758090171
3758097556
3758105552
3758112754
3758121116
3758127647
3758135703
3758141990
3758151633
3758158164
3758165733
3758173179
3758182517
3758189719
3758197410
3758204795
3758212180
3758220298
3758227195
3758235068
3758244163
3758252341
3758256736
3758267356
3758273642
3758283530
3758290244
3758298179
3758305442
3758314963
3758322409
3758331076
3758338401
3758345664
3758353720
3758361106
3758369223
3758375510
3758384787
3758393820
3758401877
3758408164
3758416708
3758423056
3758430991
3758438132
3758445395
3758454733
3758461813
3758471274
3758475973
3758486288
3758493063
3758501120
3758508383
3758516501
3758522909
3758531637
3758540243
3758545187
3758554526
3758560385
3758571310
3758579550
3758587362
3758596640
3758605978
3758612570
3758622580
3758630270
3758638082
3758645956
3758654562
3758662313
3758670492
3758679464
3758688131
3758694906
3758703024
3758709249
3758718099
3758724630
3758733724
3758742086
3758747274
3758756673
3758762777
3758773824
3758780355
3758788351
3758795919
3758803854
3758812887
3758820760
3758828084
3758834127
3758842855
3758850301
3758858846
3758865621
3758872884
3758881246
3758888570
3758894735
3758904744
3758910482
3758918599
3758928182
3758934041
3758943441
3758949361
3758957662
3758965779
3758972188
3758979817
3758989217
3758997762
3759004292
3759012105
3759019368
3759026448
3759034505
3759042134
3759050069
3759060017
3759067891
3759074849
3759082967
3759089436
3759095418
3759104878
3759113301
3759119649
3759127156
3759136494
3759143513
3759150899
3759158162
3759166218
3759173726
3759181843
3759191609
3759199604
3759206990
3759215046
3759221516
3759230244
3759236470
3759242512
3759252156
3759260517
3759267658
3759273579
3759283894
3759290730
3759298603
3759306416
3759312702
3759321735
3759329975
3759336445
3759344502
3759350910
3759358906
3759368305
3759374592
3759382221
3759390095
3759398884
3759408527
3759416218
3759425312
3759432819
3759440449
3759449421
3759457782
3759466205
3759475483
3759485431
3759492389
3759501056
3759509052
3759517780
3759528766
3759535968
3759543048
3759551044
3759560199
3759568378
3759575397
3759583942
3759590351
3759599994
3759606525
3759613666
3759623065
3759628375
3759637775
3759644916
3759652118
3759659991
3759668597
3759676898
3759684955
3759691302
3759699298
3759707843
3759713031
3759722369
3759730365
3759738910
3759745013
3759754596
3759762042
3759769488
3759776935
3759784381
3759788775
3759801043
3759805377
3759815264
3759823931
3759830096
3759838458
3759846698
3759852923
3759861163
3759868426
3759876544
3759883868
3759892657
3759899981
3759904131
3759914324
3759920916
3759931231
3759937518
3759947039
3759953509
3759962237
3759969134
3759976702
3759986285
3759995196
3760003496
3760011736
3760018023
3760026201
3760033343
3760041765
3760048968
3760055498
3760063738
3760072771
3760080950
3760088091
3760096148
3760102556
3760111650
3760118242
3760127153
3760133562
3760140276
3760150286
3760156084
3760164385
3760171343
3760179521
3760185808
3760195757
3760202104
3760211931
3760218401
3760227251
3760236894
3760242265
3760253252
3760263078
3760271745
3760280534
3760287309
3760295183
3760303361
3760311418
3760319292
3760327104
3760335283
3760346513
3760353288
3760362382
3760368669
3760377336
3760384843
3760393937
3760401262
3760408464
3760416398
3760423783
3760431962
3760438249
3760446977
3760455522
3760463273
3760471757
3760480363
3760486711
3760493607
3760502885
3760510087
3760517472
3760524125
3760531998
3760541032
3760546891
3760556168
3760562272
3760570817
3760576371
3760586014
3760592484
3760602128
3760609025
3760618302
3760624405
3760633988
3760641251
3760648453
3760656510
3760664200
3760671158
3760679032
3760685379
3760693497
3760699845
3760709122
3760715653
3760726090
3760732560
3760739334
3760748673
3760755509
3760762772
3760772049
3760779312
3760786331
3760794327
3760800797
3760808853
3760817825
3760822830
3760832352
3760840408
3760848831
3760855301
3760862503
3760871353
3760878677
3760885269
3760895340
3760902359
3760910415
3760918289
3760926529
3760932693
3760942032
3760948501
3760957535
3760964065
3760974075
3760981277
3760990738
3760999221
3761005691
3761013198
3761021072
3761030410
3761036087
3761045852
3761057083
3761065933
3761072402
3761079299
3761088882
3761094070
3761106887
3761114028
3761123489
3761130019
3761139114
3761146011
3761155532
3761162368
3761170547
3761177627
3761186294
3761195998
3761201552
3761210647
3761216628
3761226272
3761232131
3761242141
3761247817
3761258620
3761265700
3761274001
3761280654
3761288649
3761295058
3761303481
3761312087
3761320082
3761326552
3761333632
3761341017
3761347792
3761355971
3761364333
3761372511
3761380324
3761388320
3761394850
3761403029
3761409255
3761416090
3761425673
3761432814
3761440016
3761449782
3761459059
3761465163
3761474562
3761481520
3761488722
3761493178
3761503615
3761510573
3761521803
3761528212
3761535719
3761542494
3761549818
3761555555
3761563978
3761570143
3761579481
3761585951
3761594252
3761601881
3761607374
3761614088
3761620375
3761627760
3761638014
3761645216
3761652845
3761660292
3761669264
3761676893
3761686598
3761693128
3761702223
3761708631
3761717359
3761723524
3761732313
3761740430
3761747999
3761754530
3761763746
3761769727
3761778760
3761785169
3761794263
3761800733
3761809827
3761815870
3761824048
3761833326
3761838086
3761848096
3761853589
3761862012
3761870313
3761878370
3761885389
3761896985
3761904126
3761913404
3761922742
3761928723
3761938123
3761943860
3761953870
3761963696
3761969800
3761977307
3761986951
3761992688
3762003919
3762010327
3762022717
3762031323
3762038525
3762045789
3762053906
3762061963
3762068310
3762074414
3762083630
3762089978
3762099072
3762107434
3762113843
3762123364
3762129284
3762136609
3762146008
3762152966
3762161999
3762169201
3762175366
3762185437
3762191418
3762199536
3762205822
3762215039
3762221508
3762230847
3762239086
3762244213
3762253613
3762261303
3762268566
3762276379
3762283581
3762291821
3762301830
3762307446
3762315563
3762324780
3762330639
3762337475
3762346996
3762353771
3762363720
3762371593
3762376720
3762385143
3762391369
3762397961
3762404857
3762412243
3762419018
3762428661
3762437145
3762444774
3762452038
3762462291
3762470165
3762477367
3762486156
3762493419
3762497753
3762507885
3762517162
3762523082
3762530223
3762539379
3762547862
3762556529
3762562755
3762569103
3762578441
3762584972
3762594310
3762601573
3762609203
3762617992
3762625377
3762632701
3762640819
3762647655
3762655711
3762661998
3762670116
3762678722
3762690867
3762699657
3762708690
3762717967
3762725963
3762732860
3762741160
3762748973
3762759715
3762766673
3762775279
3762784007
3762792247
3762799327
3762807322
3762814280
3762823924
3762830271
3762839244
3762846446
3762854197
3762861521
3762870677
3762877879
3762883921
3762892100
3762898448
3762907847
3762916453
3762922434
3762931345
3762937144
3762946726
3762956919
3762963328
3762970225
3762979807
3762986887
3762994211
3763000864
3763008677
3763017405
3763025339
3763033152
3763041330
3763048288
3763056223
3763062693
3763070810
3763079233
3763085337
3763092600
3763100962
3763108225
3763114572
3763122568
3763130075
3763138010
3763146494
3763154489
3763160959
3763168955
3763177133
3763184641
3763191049
3763198862
3763206125
3763214609
3763224130
3763231332
3763238596
3763246103
3763254098
3763258798
3763268930
3763275461
3763285104
3763291330
3763301706
3763308298
3763316598
3763325876
3763331247
3763340707
3763347299
3763354501
3763363778
3763371103
3763375253
3763384713
3763394296
3763400277
3763406564
3763416696
3763423043
3763430856
3763440621
3763447579
3763455026
3763461495
3763469369
3763479196
3763486764
3763494454
3763502450
3763510018
3763521920
3763532296
3763539742
3763550851
3763556954
3763567574
3763574898
3763586190
3763592843
3763600838
3763607918
3763618294
3763624703
3763632515
3763643197
3763648507
3763658028
3763664681
3763672127
3763680062
3763687813
3763694710
3763702584
3763708809
3763719368
3763726082
3763734017
3763742623
3763751106
3763757515
3763766731
3763773201
3763781075
3763788277
3763795296
3763803230
3763813057
3763820259
3763827644
3763835701
3763840523
3763851082
3763857552
3763866035
3763872383
3763883736
3763890144
3763896858
3763906380
3763912788
3763920112
3763928535
3763935859
3763943184
3763951362
3763959968
3763965950
3763972358
3763982490
3763988716
3763995552
3764005073
3764013313
3764021797
3764027229
3764036811
3764043891
3764051032
3764059760
3764067146
3764074531
3764082465
3764089668
3764097724
3764106391
3764112434
3764120856
3764126411
3764136115
3764145942
3764152351
3764160956
3764169135
3764174995
3764184028
3764189033
3764198310
3764206977
3764213386
3764221564
3764229011
3764237372
3764244513
3764251716
3764261115
3764267402
3764276923
3764286750
3764293341
3764303046
3764309638
3764316779
3764326789
3764335089
3764346869
3764357794
3764364447
3764375983
3764384223
3764391791
3764399481
3764408820
3764417914
3764428534
3764436102
3764444281
3764452154
3764462042
3764469366
3764476202
3764484076
3764491705
3764499762
3764506903
3764515692
3764525580
3764535589
3764542425
3764550543
3764558294
3764566351
3764570684
3764581243
3764587591
3764597235
3764603643
3764612921
3764618719
3764624578
3764633123
3764639410
3764648077
3764655157
3764664495
3764671514
3764678350
3764684637
3764692083
3764698675
3764706182
3764714300
3764722051
3764730474
3764735906
3764743536
3764750982
3764756780
3764765203
3764771368
3764780462
3764786809
3764794317
3764800908
3764808050
3764814824
3764821050
3764828313
3764836675
3764844548
3764852910
3764860173
3764867559
3764873052
3764880620
3764888005
3764894048
3764903752
3764910222
3764917241
3764925847
3764932134
3764938970
3764942693
3764953679
3764960271
3764968083
3764976994
3764985051
3764993230
3765002568
3765009099
3765018559
3765025212
3765034184
3765040349
3765049687
3765055852
3765064458
3765069462
3765078618
3765087468
3765093876
3765100102
3765109562
3765117009
3765124272
3765133671
3765141179
3765149174
3765157963
3765164677
3765173466
3765180485
3765189640
3765198796
3765207279
3765213993
3765225895
3765232182
3765239628
3765250187
3765255985
3765265507
3765273319
3765280583
3765286442
3765296696
3765303654
3765311893
3765318851
3765327091
3765333866
3765342533
3765352055
3765358829
3765368229
3765374454
3765381962
3765390201
3765397404
3765404484
3765412723
3765419193
3765428287
3765437626
3765443668
3765450199
3765462406
3765469547
3765478580
3765487125
3765493473
3765502811
3765508914
3765518558
3765526187
3765533634
3765541141
3765548770
3765556095
3765564273
3765573245
3765581729
3765588870
3765597049
3765603580
3765612064
3765618533
3765627994
3765636111
3765641482
3765650638
3765657474
3765664371
3765671573
3765677981
3765685916
3765693118
3765698062
3765705081
3765710513
3765717593
3765723025
3765729983
3765737552
3765742312
3765750064
3765754702
3765761233
3765767337
3765772891
3765780581
3765786624
3765791445
3765799929
3765804690
3765810488
3765817080
3765822940
3765830081
3765837588
3765843997
3765849185
3765855593
3765861086
3765867678
3765874636
3765881167
3765887515
3765893252
3765901125
3765907290
3765912905
3765919436
3765926455
3765933779
3765936526
3765943789
3765949892
3765956057
3765961123
3765969301
3765975527
3765979799
3765986880
3765990725
3765996645
3766000551
3766008059
3766013125
3766019777
3766025393
3766031374
3766034731
3766041750
3766045473
3766051271
3766059328
3766065065
3766069948
3766075136
3766080141
3766086306
3766091127
3766097353
3766104006
3766108156
3766115541
3766119631
3766125734
3766131471
3766137209
3766143739
3766150331
3766155580
3766161134
3766166261
3766171999
3766177126
3766184206
3766190675
3766197084
3766202638
3766208253
3766214052
3766219728
3766225893
3766232851
3766237794
3766245058
3766249940
3766256837
3766263856
3766269838
3766274965
3766284059
3766289674
3766295473
3766302247
3766307435
3766313844
3766319032
3766326600
3766331910
3766337220
3766343812
3766349550
3766354676
3766360475
3766367006
3766375489
3766380372
3766386964
3766393861
3766399659
3766404298
3766410890
3766417909
3766423890
3766430909
3766436463
3766441834
3766447572
3766454774
3766461121
3766469850
3766476991
3766483216
3766489320
3766496827
3766504395
3766510926
3766516969
3766524537
3766530701
3766537781
3766544862
3766550721
3766554505
3766561280
3766567811
3766575379
3766581055
3766586976
3766594361
3766600037
3766606690
3766611329
3766618409
3766626038
3766630494
3766637696
3766642090
3766649048
3766654480
3766661805
3766669129
3766674439
3766680359
3766687012
3766692200
3766698914
3766707154
3766712036
3766717591
3766724915
3766731812
3766737915
3766744385
3766749146
3766757385
3766762512
3766769959
3766775086
3766781433
3766788452
3766794617
3766802124
3766808655
3766815979
3766822266
3766827148
3766833252
3766840759
3766847046
3766853210
3766862182
3766865906
3766874145
3766880310
3766888305
3766893310
3766899719
3766905945
3766914062
3766919983
3766928100
3766933532
3766940246
3766946838
3766953613
3766961670
3766968689
3766974426
3766981201
3766989013
3766996215
3767001464
3767008850
3767016967
3767024047
3767030395
3767038329
3767043640
3767051330
3767058349
3767064880
3767070495
3767081847
3767088256
3767094970
3767103515
3767109191
3767118468
3767125732
3767133117
3767143432
3767152831
3767160094
3767167785
3767172790
3767182128
3767188720
3767197692
3767206847
3767214049
3767222350
3767228331
3767237304
3767243041
3767248595
3767257567
3767264525
3767274291
3767280638
3767289061
3767293578
3767301512
3767307982
3767317137
3767325621
3767333556
3767339842
3767350157
3767358763
3767366148
3767374205
3767381529
3767390746
3767400084
3767406371
3767413756
3767421385
3767429503
3767437926
3767443968
3767453184
3767461119
3767465330
3767475035
3767481077
3767487120
3767495970
3767501585
3767510069
3767520140
3767526243
3767533873
3767540648
3767548155
3767554991
3767560850
3767568418
3767575193
3767585386
3767591368
3767598814
3767606687
3767612181
3767620298
3767625303
3767634397
3767640501
3767649778
3767656858
3767663633
3767670164
3767678892
3767683958
3767691526
3767699644
3767707212
3767716306
3767723447
3767732847
3767740781
3767750669
3767758665
3767765562
3767773801
3767781064
3767790281
3767797422
3767804807
3767812009
3767819272
3767829282
3767836606
3767844968
3767852475
3767860166
3767870298
3767878965
3767887937
3767895749
3767906797
3767912290
3767922971
3767931149
3767938596
3767945676
3767954465
3767963376
3767973203
3767979611
3767990353
3767999448
3768006894
3768015195
3768024472
3768030820
3768039731
3768047970
3768053891
3768060605
3768069455
3768076840
3768083554
3768092282
3768099423
3768106198
3768114926
3768121396
3768128048
3768134762
3768142331
3768149594
3768157528
3768164120
3768171566
3768179745
3768185360
3768193051
3768198666
3768207577
3768218319
3768224850
3768233273
3768239071
3768246822
3768253658
3768261166
3768268002
3768274960
3768284237
3768290768
3768298153
3768304745
3768312130
3768318172
3768325802
3768332027
3768341610
3768350155
3768355648
3768364376
3768370052
3768378902
3768385433
3768392269
3768401241
3768408260
3768415950
3768425472
3768433956
3768440181
3768450374
3768457088
3768467891
3768473995
3768480159
3768488765
3768495906
3768502620
3768510494
3768517330
3768524471
3768532100
3768540767
3768546260
3768555049
3768562312
3768568294
3768576717
3768583125
3768589412
3768598079
3768603877
3768612483
3768618159
3768625239
3768632197
3768639583
3768647029
3768656856
3768661311
3768670711
3768679500
3768687434
3768693782
3768701472
3768710078
3768718440
3768725337
3768733943
3768742854
3768748713
3768758174
3768766474
3768772456
3768781428
3768790888
3768797297
3768805781
3768812739
3768821345
3768827571
3768836604
3768843318
3768852595
3768859370
3768867854
3768873835
3768880427
3768888606
3768896357
3768903986
3768911372
3768918024
3768925410
3768932917
3768940241
3768946772
3768954157
3768960749
3768971491
3768977534
3768985590
3768991449
3768997919
3769006403
3769012384
3769019098
3769028254
3769035028
3769041376
3769049128
3769055719
3769063288
3769069696
3769077692
3769083856
3769091303
3769097589
3769104425
3769113153
3769118280
3769127374
3769134454
3769141351
3769147699
3769157282
3769164301
3769171625
3769175470
3769185114
3769190973
3769200128
3769206842
3769216119
3769222284
3769228326
3769236932
3769242670
3769251214
3769257745
3769264337
3769273431
3769282525
3769288019
3769294916
3769301812
3769309381
3769316156
3769323602
3769329828
3769338922
3769345025
3769353570
3769359979
3769368585
3769376763
3769381890
3769390924
3769399713
3769407952
3769414483
3769421136
3769428887
3769435662
3769443597
3769450921
3769460259
3769467889
3769476312
3769483453
3769492303
3769499566
3769507684
3769514703
3769523980
3769534417
3769539544
3769548516
3769554497
3769563531
3769568474
3769577630
3769579888
3769592522
3769601006
3769607781
3769614983
3769620659
3769629509
3769635064
3769641106
3769651970
3769660149
3769664971
3769673577
3769680107
3769686760
3769694878
3769701592
3769709526
3769716545
3769722771
3769730400
3769736870
3769746147
3769750298
3769759148
3769765312
3769775444
3769781731
3769791313
3769797173
3769803215
3769811821
3769817070
3769825676
3769832268
3769841240
3769847343
3769854118
3769860649
3769869804
3769876701
3769882377
3769891288
3769899833
3769906059
3769915153
3769920952
3769929435
3769935661
3769941093
3769949760
3769958061
3769965019
3769972099
3769980705
3769986137
3769993522
3770002067
3770008781
3770015739
3770025932
3770032462
3770040031
3770046745
3770053947
3770059806
3770068595
3770074760
3770084769
3770091178
3770099540
3770107230
3770112785
3770121574
3770126273
3770135428
3770143485
3770150870
3770158683
3770165519
3770169425
3770179313
3770187003
3770192679
3770201651
3770209586
3770216056
3770224540
3770232962
3770238822
3770246817
3770254935
3770262076
3770270682
3770280448
3770286673
3770293875
3770301322
3770309378
3770317923
3770324698
3770333243
3770341544
3770350699
3770358084
3770366141
3770373221
3770382681
3770389822
3770399710
3770407156
3770414969
3770423086
3770430899
3770439017
3770446829
3770454703
3770461844
3770470328
3770476492
3770484121
3770491934
3770497000
3770505484
3770510794
3770519278
3770525564
3770534658
3770541922
3770548635
3770556082
3770563040
3770569937
3770577383
3770584097
3770591848
3770598135
3770607046
3770612905
3770621694
3770627554
3770635183
3770641836
3770652944
3770658987
3770665640
3770672414
3770681081
3770687795
3770694753
3770702138
3770708852
3770716543
3770724782
3770732290
3770738210
3770745656
3770753408
3770758962
3770768056
3770775991
3770784414
3770791494
3770799428
3770804982
3770811940
3770820363
3770827199
3770833303
3770843068
3770849782
3770857350
3770863759
3770872548
3770878469
3770887868
3770895253
3770902822
3770909169
3770917775
3770923757
3770932362
3770938222
3770946706
3770952809
3770960683
3770969960
3770975575
3770984425
3770990956
3770997853
3771004140
3771011952
3771021657
3771029164
3771037099
3771048695
3771058034
3771066456
3771075856
3771084706
3771095692
3771103993
3771110951
3771119008
3771126454
3771138111
3771144947
3771152760
3771162587
3771169850
3771176136
3771183949
3771190907
3771198231
3771207264
3771213001
3771221485
3771229420
3771237537
3771244984
3771251087
3771258778
3771266529
3771273792
3771279774
3771287586
3771296619
3771302235
3771310841
3771317554
3771324268
3771330067
3771339405
3771345508
3771355457
3771364063
3771372059
3771381092
3771389087
3771398304
3771406299
3771414783
3771423694
3771431751
3771442188
3771453846
3771463550
3771468616
3771480335
3771488269
3771497180
3771504321
3771513660
3771519214
3771527332
3771535083
3771541126
3771547900
3771559192
3771565173
3771572376
3771579150
3771586841
3771593921
3771599780
3771607410
3771616077
3771623889
3771631824
3771639087
3771646472
3771652148
3771660693
3771666430
3771675281
3771681445
3771690905
3771696338
3771705005
3771712085
3771718921
3771725879
3771732592
3771743090
3771750537
3771755481
3771764941
3771770312
3771777514
3771784289
3771791796
3771798022
3771808642
3771815295
3771824938
3771831530
3771840746
3771846789
3771853320
3771862780
3771871630
3771881029
3771886340
3771894152
3771901842
3771913134
3771919726
3771929125
3771938952
3771944811
3771953356
3771961718
3771968981
3771975573
3771985399
