5795915460
5795922296
5795928643
5795934442
5795939813
5795943719
5795949884
5795955438
5795960931
5795965997
5795972039
5795976861
5795982354
5795987847
5795994500
5795999139
5796005486
5796011102
5796017388
5796024529
5796030755
5796036553
5796041863
5796049432
5796056573
5796062981
5796070550
5796077141
5796081536
5796089226
5796096734
5796104119
5796110039
5796116082
5796123345
5796128777
5796138787
5796146782
5796153191
5796161492
5796168450
5796174797
5796181755
5796191277
5796198174
5796205620
5796211052
5796218499
5796223625
5796232048
5796238823
5796245293
5796252922
5796259941
5796266899
5796272270
5796279961
5796288262
5796295159
5796302239
5796307671
5796314812
5796323296
5796330315
5796337883
5796344353
5796360771
5796367607
5796375175
5796382194
5796389885
5796398064
5796403862
5796412529
5796427727
5796436149
5796445305
5796452568
5796459160
5796468071
5796476249
5796483757
5796491569
5796501030
5796509025
5796515373
5796523918
5796530143
5796538383
5796545219
5796551689
5796561637
5796568595
5796575675
5796583000
5796591911
5796600334
5796604606
5796613456
5796620963
5796628349
5796636649
5796644401
5796652457
5796660331
5796667228
5796674552
5796681754
5796690787
5796698051
5796705924
5796714774
5796722098
5796728995
5796735770
5796743644
5796750419
5796758841
5796767325
5796774222
5796781913
5796787223
5796794974
5796802909
5796811026
5796819937
5796826773
5796832572
5796840323
5796849295
5796855948
5796866141
5796874381
5796882681
5796891776
5796899405
5796907828
5796916678
5796923087
5796931326
5796939566
5796946585
5796954459
5796961844
5796970999
5796979300
5796987845
5796995291
5797001639
5797013907
5797022024
5797031363
5797038382
5797047354
5797053640
5797062674
5797067556
5797078238
5797087820
5797094900
5797105276
5797113333
5797122244
5797131155
5797140859
5797148794
5797155752
5797162893
5797170767
5797179189
5797187368
5797194631
5797202078
5797210378
5797218435
5797226186
5797235281
5797242666
5797250051
5797258230
5797265371
5797273244
5797280935
5797288991
5797295034
5797303579
5797310964
5797317800
5797325551
5797335317
5797342092
5797350210
5797357839
5797365285
5797372304
5797380544
5797389821
5797397573
5797404897
5797412221
5797419057
5797427358
5797435170
5797442433
5797449147
5797457143
5797465627
5797472646
5797480275
5797488942
5797495900
5797503529
5797511037
5797519887
5797527394
5797535634
5797544240
5797549916
5797558339
5797566640
5797573537
5797580617
5797589101
5797597951
5797605336
5797612355
5797621144
5797629384
5797636464
5797645558
5797650746
5797660695
5797667897
5797677052
5797684193
5797694203
5797701527
5797708973
5797717335
5797724232
5797731739
5797739308
5797749134
5797758595
5797766102
5797773487
5797780689
5797787647
5797793629
5797802845
5797810108
5797817982
5797825123
5797832813
5797839832
5797848560
5797856434
5797865101
5797871937
5797881153
5797889088
5797896778
5797904896
5797914661
5797922718
5797930164
5797937854
5797945850
5797950733
5797959705
5797968311
5797976368
5797984241
5797991565
5797997547
5798004993
5798010913
5798017871
5798028919
5798034656
5798043079
5798052112
5798058399
5798068042
5798073169
5798082324
5798090381
5798097766
5798110095
5798114612
5798125232
5798135242
5798142566
5798150012
5798158191
5798163867
5798171619
5798179980
5798188952
5798196643
5798204028
5798211658
5798218860
5798225757
5798229968
5798239184
5798246264
5798251147
5798258654
5798265429
5798271716
5798278247
5798287951
5798295703
5798302294
5798309497
5798316271
5798323718
5798332446
5798339648
5798346789
5798352404
5798359118
5798364550
5798374255
5798378161
5798387377
5798393359
5798400256
5798408617
5798414172
5798423083
5798430956
5798437243
5798442614
5798450915
5798456225
5798463854
5798470019
5798476733
5798484850
5798491137
5798497851
5798504503
5798510790
5798517504
5798524035
5798531847
5798537645
5798544542
5798550341
5798556139
5798563707
5798569689
5798577074
5798585375
5798592699
5798599169
5798606188
5798612780
5798619249
5798626207
5798634569
5798640978
5798646715
5798652086
5798659349
5798666673
5798672594
5798681627
5798687120
5798693895
5798701769
5798708055
5798717332
5798723741
5798732103
5798743211
5798753221
5798760911
5798768114
5798777940
5798785448
5798794725
5798801622
5798807786
5798817247
5798825181
5798833665
5798841417
5798848253
5798855943
5798861009
5798870225
5798877366
5798883592
5798891709
5798900010
5798906114
5798913499
5798918565
5798926499
5798930833
5798940537
5798948838
5798956895
5798961228
5798970017
5798979051
5798988450
5798993089
5799002549
5799010789
5799016465
5799024339
5799031907
5799038865
5799046250
5799052354
5799060532
5799071335
5799078049
5799087083
5799093369
5799102891
5799108506
5799115952
5799122056
5799131516
5799139328
5799145432
5799152817
5799158188
5799165818
5799173142
5799180710
5799188156
5799193894
5799201218
5799208664
5799213913
5799222031
5799228256
5799235092
5799241867
5799250961
5799257919
5799266953
5799274033
5799282761
5799288315
5799298508
5799304062
5799313583
5799321945
5799329575
5799335861
5799343552
5799350265
5799358871
5799368088
5799374679
5799379562
5799389938
5799395187
5799405563
5799414474
5799423752
5799431076
5799439743
5799447494
5799454391
5799462936
5799470871
5799479599
5799488510
5799493942
5799503768
5799510360
5799518539
5799525375
5799534652
5799540450
5799549789
5799555282
5799566329
5799571456
5799582382
5799589706
5799598251
5799606429
5799613082
5799623458
5799630538
5799638106
5799645187
5799655440
5799665511
5799673690
5799680465
5799688399
5799696822
5799703231
5799712630
5799719344
5799729354
5799739547
5799746261
5799752242
5799759810
5799768111
5799775374
5799784041
5799792769
5799799361
5799804549
5799816146
5799826399
5799832808
5799840132
5799849471
5799856917
5799867171
5799874922
5799883406
5799888594
5799899275
5799907332
5799913802
5799920821
5799929671
5799936262
5799943770
5799952315
5799959395
5799965437
5799973860
5799982832
5799990217
5799996077
5800004500
5800012434
5800019026
5800026960
5800033735
5800041853
5800049055
5800056929
5800064924
5800073286
5800081648
5800087934
5800096723
5800103071
5800111006
5800118513
5800126875
5800132917
5800141889
5800149763
5800155988
5800163984
5800171125
5800179243
5800183942
5800194502
5800199506
5800210615
5800216047
5800225019
5800233137
5800243269
5800250471
5800258222
5800264875
5800273725
5800282453
5800289228
5800298932
5800307355
5800314069
5800322797
5800329511
5800336652
5800346418
5800353803
5800361066
5800368512
5800377607
5800386884
5800393293
5800400006
5800409101
5800417890
5800425275
5800434186
5800442853
5800451337
5800459393
5800465924
5800475446
5800481976
5800486981
5800498578
5800505841
5800515118
5800521771
5800528729
5800537640
5800546307
5800553326
5800562543
5800569867
5800578229
5800584698
5800591107
5800598980
5800606488
5800612225
5800619732
5800626019
5800637433
5800643353
5800652325
5800657940
5800667035
5800672528
5800679119
5800687298
5800696148
5800701763
5800710430
5800719036
5800724774
5800732098
5800739422
5800746197
5800754376
5800762005
5800767925
5800775555
5800782757
5800790569
5800797466
5800805462
5800812908
5800820538
5800822979
5800833233
5800837627
5800847271
5800851482
5800860577
5800868999
5800875103
5800881206
5800888775
5800894817
5800902202
5800908367
5800917583
5800924785
5800931987
5800937969
5800947246
5800953167
5800960918
5800968792
5800975139
5800984111
5800990703
5800998821
5801003582
5801012371
5801019023
5801026531
5801035015
5801041179
5801047588
5801057903
5801064922
5801074443
5801084941
5801093608
5801101787
5801111003
5801118694
5801127360
5801133952
5801142863
5801149394
5801159038
5801165507
5801170634
5801181926
5801191020
5801197307
5801205058
5801211223
5801217875
5801226787
5801233500
5801240031
5801250773
5801259440
5801266337
5801274089
5801280314
5801289103
5801295146
5801303446
5801311991
5801322001
5801329630
5801338053
5801347209
5801354167
5801361430
5801370646
5801378886
5801389506
5801398356
5801404826
5801414408
5801423136
5801428385
5801439005
5801444987
5801456095
5801462321
5801470072
5801478007
5801486796
5801494120
5801500406
5801507609
5801515726
5801523050
5801530863
5801538797
5801544718
5801549601
5801560160
5801566874
5801574625
5801582682
5801588602
5801593119
5801604227
5801611063
5801619119
5801627603
5801633890
5801643472
5801649393
5801657999
5801664163
5801672830
5801681741
5801690958
5801697122
5801705789
5801713663
5801719583
5801727579
5801732217
5801743509
5801748453
5801758157
5801763040
5801773660
5801778665
5801788858
5801796365
5801803811
5801813394
5801820962
5801827432
5801836282
5801842691
5801851297
5801859964
5801866189
5801875161
5801880349
5801890603
5801898049
5801906900
5801914163
5801922952
5801930093
5801937905
5801944558
5801954934
5801961465
5801970193
5801976846
5801985085
5801993630
5801998940
5802009255
5802014504
5802024209
5802031533
5802039223
5802048440
5802055947
5802062539
5802071694
5802078591
5802088051
5802096779
5802104409
5802111001
5802121071
5802128151
5802133828
5802145913
5802152016
5802161415
5802168129
5802175759
5802182412
5802190285
5802198830
5802204994
5802211830
5802224098
5802231423
5802241860
5802246620
5802258156
5802267250
5802273537
5802284279
5802290382
5802298805
5802307472
5802314491
5802322548
5802328285
5802338173
5802344398
5802352028
5802359779
5802367653
5802375953
5802383766
5802390053
5802398109
5802402870
5802413612
5802418434
5802428627
5802433387
5802442054
5802448768
5802458412
5802467262
5802473304
5802479774
5802487587
5802496376
5802503211
5802509803
5802518592
5802525184
5802534095
5802542701
5802549049
5802557777
5802562843
5802572791
5802581153
5802589942
5802598121
5802606666
5802611793
5802621619
5802628883
5802637488
5802644691
5802652503
5802658973
5802667823
5802676246
5802683448
5802692115
5802700599
5802707007
5802715796
5802724585
5802733802
5802740271
5802747474
5802757666
5802764991
5802771888
5802781775
5802790076
5802797095
5802807471
5802814124
5802823950
5802828711
5802837622
5802844214
5802852698
5802860938
5802871130
5802877844
5802884070
5802892615
5802898596
5802907202
5802912939
5802921545
5802930090
5802940405
5802949682
5802958166
5802965613
5802972754
5802982214
5802989050
5802997107
5803003759
5803012060
5803019445
5803030249
5803036902
5803045630
5803054296
5803062597
5803068518
5803077551
5803083532
5803092016
5803098181
5803107397
5803113439
5803118078
5803128881
5803136816
5803143041
5803149694
5803157873
5803164648
5803172033
5803181066
5803188451
5803195470
5803202917
5803211706
5803219213
5803225194
5803233861
5803241125
5803249731
5803257604
5803264257
5803272313
5803280431
5803286291
5803294469
5803302404
5803310888
5803317663
5803326940
5803333593
5803340856
5803349767
5803356847
5803365697
5803373143
5803380773
5803387914
5803397069
5803405675
5803412511
5803420995
5803429173
5803438207
5803445165
5803453954
5803462499
5803469212
5803476537
5803484898
5803494176
5803500401
5803509862
5803516515
5803525059
5803532506
5803541173
5803548924
5803555516
5803564305
5803572972
5803577977
5803587376
5803594761
5803603489
5803610692
5803617894
5803626500
5803634861
5803645604
5803653721
5803660008
5803668492
5803675083
5803684544
5803691075
5803696141
5803708042
5803719273
5803725743
5803734776
5803741734
5803750095
5803760349
5803766575
5803775913
5803782810
5803792149
5803798862
5803807041
5803813572
5803822422
5803829075
5803837986
5803846653
5803854404
5803869541
5803876621
5803884067
5803892002
5803898838
5803908176
5803914829
5803922763
5803929355
5803939060
5803945957
5803953769
5803959873
5803966892
5803975681
5803983982
5803989963
5803994602
5804006687
5804013645
5804021762
5804026523
5804038120
5804043979
5804051975
5804056613
5804066989
5804074680
5804082309
5804088962
5804095920
5804104892
5804112216
5804118808
5804126559
5804132602
5804141574
5804147616
5804155978
5804164279
5804170260
5804178317
5804186984
5804193576
5804198703
5804208285
5804215670
5804224643
5804232028
5804240939
5804248385
5804255709
5804262240
5804271151
5804279757
5804288058
5804294528
5804302951
5804311556
5804316561
5804326632
5804331698
5804341219
5804348605
5804358126
5804365206
5804374667
5804381808
5804389315
5804401583
5804408968
5804417635
5804420565
5804433565
5804442293
5804450899
5804458407
5804467074
5804473177
5804481844
5804490206
5804498934
5804504366
5804514925
5804519991
5804530794
5804538363
5804545809
5804555330
5804562960
5804569429
5804579744
5804586946
5804595980
5804604585
5804612947
5804619661
5804628450
5804635042
5804643953
5804652498
5804660005
5804666475
5804676302
5804683992
5804691743
5804701448
5804709444
5804717073
5804723238
5804730623
5804738679
5804744722
5804750154
5804759065
5804765718
5804774324
5804780305
5804788545
5804794038
5804801973
5804809419
5804815095
5804823518
5804832002
5804837678
5804845552
5804851228
5804859162
5804864717
5804871675
5804879487
5804887666
5804894136
5804900727
5804909822
5804916352
5804923432
5804930268
5804937776
5804944184
5804954316
5804960908
5804968171
5804976106
5804982819
5804990815
5804997041
5805005646
5805014741
5805021332
5805030366
5805038911
5805046601
5805053193
5805060517
5805068818
5805076203
5805085907
5805093537
5805100678
5805107697
5805117463
5805124909
5805132904
5805141266
5805148896
5805158539
5805166596
5805173737
5805181488
5805188263
5805196747
5805203888
5805212189
5805220490
5805229096
5805235809
5805244965
5805252045
5805261383
5805267853
5805277618
5805284027
5805291534
5805298920
5805308441
5805316254
5805325348
5805333832
5805339996
5805348236
5805356476
5805365753
5805374786
5805383148
5805392181
5805400482
5805408355
5805418060
5805425384
5805431427
5805439849
5805449188
5805458221
5805471832
5805479400
5805486175
5805494049
5805502166
5805510223
5805516448
5805524383
5805532867
5805539031
5805543731
5805554778
5805559417
5805570342
5805580779
5805586761
5805594939
5805602813
5805611175
5805617095
5805625457
5805634124
5805642058
5805648040
5805652740
5805663115
5805671355
5805677398
5805684050
5805693206
5805700591
5805713469
5805718047
5805727996
5805735015
5805742583
5805749297
5805758147
5805764983
5805771819
5805780608
5805787993
5805793913
5805801787
5805809783
5805816252
5805824309
5805831084
5805839751
5805848418
5805855071
5805863310
5805871367
5805878508
5805887114
5805895354
5805903288
5805909697
5805918974
5805925688
5805934599
5805941008
5805950224
5805956999
5805965300
5805974150
5805979277
5805989042
5805996245
5806003813
5806010466
5806019438
5806028959
5806037382
5806045988
5806053129
5806059599
5806068388
5806077055
5806082182
5806092863
5806098112
5806109648
5806114897
5806124540
5806132597
5806139982
5806148527
5806157499
5806164640
5806183683
5806190580
5806197172
5806205839
5806211759
5806220243
5806228178
5806236234
5806244291
5806247098
5806258085
5806266752
5806273954
5806283109
5806291898
5806297330
5806308988
5806318082
5806324247
5806332486
5806338407
5806345121
5806353665
5806360990
5806370572
5806377225
5806384915
5806391629
5806399320
5806405423
5806413846
5806420011
5806429776
5806435819
5806443997
5806451932
5806457669
5806465726
5806473355
5806481900
5806490323
5806498440
5806504544
5806512723
5806520413
5806526395
5806533169
5806541165
5806548123
5806556119
5806562771
5806570584
5806579190
5806586392
5806592434
5806600003
5806608609
5806616665
5806622769
5806631192
5806639920
5806649807
5806658291
5806665432
5806674404
5806681301
5806689968
5806698086
5806705166
5806712612
5806721035
5806729885
5806736660
5806744717
5806751125
5806759182
5806767178
5806773952
5806782131
5806790005
5806798611
5806805630
5806815578
5806822353
5806830471
5806840359
5806849453
5806857265
5806864345
5806871547
5806878994
5806887966
5806895534
5806904445
5806911037
5806919582
5806926296
5806935878
5806945644
5806953395
5806962001
5806970119
5806976222
5806984584
5806992946
5806999904
5807015163
5807022731
5807032069
5807040859
5807046779
5807056117
5807064601
5807071010
5807078944
5807086818
5807094020
5807101161
5807108424
5807118129
5807125636
5807132045
5807138209
5807147548
5807155787
5807163600
5807170802
5807177028
5807185878
5807193629
5807200099
5807207484
5807217067
5807223353
5807231105
5807238978
5807246852
5807255213
5807263514
5807269984
5807277918
5807286280
5807294947
5807301661
5807309290
5807317713
5807326014
5807335108
5807343043
5807351405
5807360072
5807368067
5807379115
5807384547
5807392908
5807400599
5807410425
5807416712
5807426050
5807433314
5807442713
5807449427
5807457911
5807464258
5807469874
5807477930
5807484644
5807489710
5807496790
5807504236
5807510157
5807515589
5807523096
5807529566
5807536035
5807542566
5807547876
5807554651
5807560877
5807566675
5807574304
5807582178
5807588831
5807594263
5807600855
5807606165
5807613794
5807620081
5807626489
5807635400
5807639307
5807649194
5807655908
5807663416
5807668787
5807674585
5807680627
5807686365
5807691919
5807699976
5807704614
5807711511
5807718286
5807726160
5807731531
5807737451
5807742944
5807749963
5807755090
5807763513
5807768335
5807775537
5807783716
5807788293
5807793359
5807799768
5807805566
5807811181
5807816919
5807822778
5807829187
5807834375
5807839257
5807844995
5807851586
5807858850
5807863488
5807870507
5807876611
5807883325
5807889245
5807896264
5807903710
5807909203
5807916528
5807922875
5807931298
5807937035
5807944054
5807950158
5807958398
5807965051
5807970727
5807983300
5807989465
5807995446
5808003686
5808009545
5808017907
5808025475
5808032189
5808037621
5808045006
5808049401
5808057213
5808067040
5808073571
5808080040
5808087670
5808095360
5808102074
5808109703
5808117150
5808122826
5808128746
5808136742
5808141869
5808150109
5808158470
5808169823
5808177391
5808183861
5808190819
5808197045
5808204613
5808210533
5808216393
5808224571
5808231285
5808236778
5808245079
5808252220
5808258446
5808265770
5808272362
5808279747
5808287254
5808294212
5808300255
5808307640
5808314354
5808320518
5808326011
5808331749
5808338829
5808345848
5808353782
5808358787
5808367332
5808373619
5808379661
5808385887
5808393760
5808399009
5808404991
5808412559
5808420127
5808426109
5808433494
5808438865
5808446983
5808455162
5808460411
5808468406
5808475730
5808487205
5808494773
5808501731
5808508689
5808516563
5808524070
5808531150
5808537864
5808543906
5808553550
5808559043
5808567649
5808574180
5808581382
5808587669
5808594749
5808602439
5808609458
5808616965
5808622031
5808629355
5808635093
5808641379
5808651511
5808659995
5808667258
5808673362
5808680137
5808686728
5808693564
5808701682
5808707785
5808714927
5808719992
5808726767
5808735495
5808742453
5808750998
5808758506
5808764426
5808771384
5808777121
5808784201
5808790183
5808798483
5808806174
5808813864
5808818137
5808827170
5808831137
5808839682
5808843466
5808853049
5808860739
5808866476
5808872580
5808880942
5808887045
5808894980
5808900961
5808909567
5808916281
5808923910
5808930136
5808938315
5808944479
5808950766
5808956320
5808964254
5808973410
5808979452
5808987326
5808994284
5808999655
5809007223
5809014425
5809020712
5809028952
5809037496
5809043539
5809051474
5809058737
5809063864
5809071188
5809078573
5809085165
5809094991
5809100607
5809104879
5809114584
5809122152
5809127645
5809133749
5809143392
5809150716
5809158712
5809165914
5809171712
5809178304
5809187459
5809194112
5809201314
5809209798
5809218526
5809225057
5809232564
5809238546
5809246602
5809254537
5809260885
5809269735
5809277608
5809284078
5809288717
5809299154
5809306661
5809312825
5809319356
5809327718
5809335103
5809343587
5809350301
5809359151
5809365804
5809373311
5809379476
5809389852
5809400044
5809407674
5809413411
5809422139
5809427693
5809435567
5809441426
5809448689
5809457600
5809465535
5809472432
5809480977
5809489094
5809496419
5809504475
5809510945
5809519917
5809527424
5809535176
5809542378
5809550190
5809558125
5809564351
5809571797
5809579426
5809587056
5809592976
5809601704
5809607197
5809615010
5809622395
5809628804
5809636982
5809643757
5809651203
5809659626
5809668659
5809677204
5809683857
5809693257
5809698017
5809708088
5809715595
5809721516
5809728291
5809736225
5809742756
5809750690
5809758625
5809767719
5809776569
5809783649
5809789753
5809797382
5809805500
5809812641
5809818989
5809828022
5809834369
5809842670
5809850849
5809856342
5809864032
5809870685
5809878193
5809887104
5809897663
5809904193
5809911274
5809917133
5809926410
5809933063
5809941303
5809948444
5809958454
5809964679
5809972370
5809980426
5809985980
5809993976
5809998920
5810009113
5810017474
5810023822
5810030475
5810037677
5810046710
5810055194
5810062579
5810070514
5810077838
5810085590
5810094195
5810102557
5810109149
5810116534
5810123126
5810131793
5810139117
5810147296
5810153460
5810163653
5810170245
5810178546
5810186358
5810193255
5810203448
5810210467
5810219073
5810226031
5810232074
5810239764
5810247027
5810254473
5810263201
5810271380
5810281451
5810289996
5810295733
5810301898
5810309771
5810315875
5810323138
5810330828
5810338458
5810346514
5810352557
5810360613
5810366534
5810372149
5810380205
5810386553
5810396197
5810402300
5810408892
5810416399
5810422808
5810430193
5810436602
5810445696
5810455034
5810461260
5810465899
5810475908
5810480608
5810490496
5810497698
5810507524
5810515947
5810522783
5810529802
5810537920
5810544695
5810552690
5810558611
5810567156
5810573747
5810581560
5810589372
5810596391
5810602495
5810611101
5810617143
5810623796
5810632341
5810640337
5810649004
5810655473
5810663774
5810670488
5810677934
5810683977
5810692277
5810700700
5810708818
5810715349
5810723588
5810731340
5810737443
5810745256
5810749772
5810759782
5810768876
5810775468
5810781938
5810791337
5810797990
5810805436
5810811967
5810819413
5810826127
5810836259
5810842301
5810850175
5810858232
5810864152
5810872148
5810878007
5810886552
5810896439
5810902787
5810910783
5810916764
5810923417
5810932267
5810939042
5810952348
5810960892
5810969315
5810977189
5810985367
5810994340
5811002823
5811012040
5811016617
5811030472
5811041520
5811048600
5811055863
5811064591
5811071976
5811080216
5811085892
5811095169
5811102860
5811109696
5811117203
5811124527
5811133316
5811139298
5811148026
5811152786
5811164749
5811173172
5811182449
5811190506
5811199173
5811204300
5811212845
5811219681
5811226944
5811236160
5811245743
5811252335
5811258865
5811266128
5811273270
5811283157
5811291397
5811299820
5811307876
5811316971
5811323074
5811329910
5811337906
5811349563
5811357559
5811365738
5811374588
5811381851
5811389907
5811399795
5811406265
5811415115
5811423660
5811432327
5811440994
5811448989
5811460891
5811468704
5811476516
5811484817
5811490554
5811500076
5811508743
5811516677
5811525893
5811531753
5811542190
5811548904
5811558242
5811566238
5811575393
5811584121
5811590224
5811600783
5811608718
5811617507
5811626540
5811642959
5811653335
5811660659
5811671218
5811681228
5811690139
5811697341
5811704055
5811713027
5811718337
5811731337
5811740981
5811748732
5811756240
5811763869
5811772414
5811779433
5811785231
5811793288
5811800795
5811808241
5811816847
5811824965
5811832045
5811838820
5811845656
5811854018
5811862807
5811868910
5811875319
5811882460
5811891066
5811897902
5811906141
5811913710
5811921400
5811929396
5811936354
5811946058
5811954969
5811962050
5811970533
5811977308
5811985853
5811992384
5812003431
5812010755
5812018751
5812025892
5812032423
5812042311
5812050062
5812058119
5812067396
5812074110
5812083631
5812090772
5812098890
5812107801
5812114393
5812122511
5812129224
5812138319
5812148084
5812156263
5812164503
5812172071
5812181470
5812186048
5812196119
5812204359
5812215040
5812222364
5812230054
5812237867
5812246351
5812252149
5812261609
5812268323
5812279493
5812286084
5812292127
5812303235
5812311719
5812320203
5812330457
5812339673
5812348157
5812357129
5812365491
5812374951
5812382947
5812392957
5812401502
5812413953
5812420117
5812426282
5812436841
5812445752
5812453809
5812460889
5812466321
5812476880
5812484204
5812493298
5812501355
5812507275
5812515881
5812523266
5812531750
5812537671
5812545727
5812557080
5812564221
5812571057
5812577710
5812583569
5812593884
5812601757
5812609265
5812617260
5812623547
5812632214
5812642712
5812651501
5812663891
5812673657
5812681225
5812687634
5812693615
5812703930
5812711132
5812719067
5812727123
5812737316
5812744579
5812751171
5812758984
5812769482
5812777233
5812785168
5812793590
5812800060
5812810619
5812819103
5812826977
5812834301
5812843456
5812850475
5812857799
5812865978
5812876171
5812880931
5812891796
5812899425
5812906505
5812914745
5812925365
5812932933
5812937450
5812946666
5812954418
5812964916
5812971263
5812978282
5812989696
5812999095
5813009227
5813016307
5813022411
5813032848
5813040355
5813048900
5813055858
5813062694
5813068675
5813075084
5813085399
5813095836
5813107921
5813116466
5813124278
5813131480
5813140696
5813148204
5813155345
5813163707
5813169444
5813179515
5813186045
5813194590
5813202708
5813209727
5813216563
5813226023
5813231517
5813241160
5813248118
5813257212
5813264414
5813271494
5813280039
5813287119
5813293772
5813302622
5813309214
5813318308
5813326853
5813333811
5813340830
5813346995
5813356699
5813364878
5813373484
5813380930
5813388132
5813396921
5813405466
5813412668
5813422373
5813427866
5813435557
5813443796
5813451426
5813459543
5813467905
5813477304
5813485849
5813493296
5813503550
5813509897
5813518808
5813525949
5813535654
5813543100
5813552622
5813559458
5813568613
5813577890
5813586252
5813591928
5813601389
5813609262
5813618478
5813627695
5813633920
5813642831
5813652536
5813660226
5813669260
5813680307
5813688119
5813694650
5813705942
5813713388
5813721811
5813728769
5813735666
5813745553
5813750070
5813763864
5813772592
5813777658
5813786081
5813795541
5813803659
5813810433
5813818734
5813825570
5813831307
5813839791
5813848031
5813856027
5813863473
5813871896
5813879464
5813886605
5813895394
5813904061
5813912728
5813920968
5813928414
5813933724
5813941659
5813951730
5813960335
5813967782
5813974801
5813983590
5813989815
5813999520
5814009530
5814017891
5814025704
5814033333
5814040169
5814046395
5814056771
5814066170
5814074898
5814082894
5814087960
5814098214
5814104195
5814113777
5814122444
5814131050
5814138924
5814144661
5814152229
5814161629
5814170784
5814178902
5814186958
5814194283
5814203621
5814210396
5814219490
5814226753
5814234444
5814246040
5814252937
5814261482
5814270088
5814277229
5814285530
5814296760
5814302986
5814310737
5814321846
5814329658
5814336067
5814344551
5814353218
5814364204
5814371650
5814379829
5814387336
5814399910
5814409126
5814416816
5814426704
5814433479
5814442390
5814452094
5814459846
5814473579
5814484809
5814491889
5814500129
5814507697
5814515693
5814523689
5814531135
5814537910
5814547004
5814553290
5814562507
5814572455
5814581183
5814588508
5814594611
5814603766
5814611091
5814618720
5814626288
5814634833
5814642524
5814650214
5814657233
5814665290
5814674140
5814682685
5814689704
5814694953
5814703437
5814711981
5814719123
5814728156
5814731879
5814740668
5814748847
5814755927
5814763983
5814771796
5814783453
5814791083
5814799628
5814807562
5814814032
5814824591
5814832404
5814839667
5814848883
5814858221
5814864996
5814872442
5814881659
5814889776
5814896429
5814905646
5814915167
5814923834
5814933661
5814941168
5814951788
5814958929
5814968878
5814976812
5814983099
5814992742
5815000860
5815011297
5815019232
5815027044
5815037054
5815042425
5815052557
5815061956
5815069708
5815077886
5815085943
5815094549
5815102972
5815110662
5815119756
5815133001
5815140996
5815148809
5815155706
5815165166
5815174016
5815181463
5815188665
5815196050
5815204290
5815212041
5815221685
5815229497
5815235479
5815244512
5815251653
5815257451
5815264104
5815274236
5815282293
5815290715
5815296758
5815306707
5815313970
5815321660
5815330998
5815338933
5815345769
5815355107
5815360417
5815369573
5815377080
5815386418
5815395146
5815401555
5815410527
5815417851
5815428593
5815438176
5815447453
5815454289
5815461857
5815468693
5815476628
5815483342
5815492558
5815499089
5815509892
5815516484
5815525090
5815532109
5815539311
5815549443
5815557499
5815565617
5815573429
5815582157
5815588749
5815598088
5815607121
5815613346
5815623051
5815629765
5815636479
5815645207
5815653141
5815661869
5815669865
5815678104
5815685490
5815692204
5815701542
5815710331
5815718327
5815727543
5815736759
5815744022
5815753971
5815760807
5815771366
5815779728
5815786564
5815795231
5815801090
5815809391
5815823246
5815831852
5815840641
5815848026
5815854313
5815860721
5815869754
5815877994
5815885135
5815893375
5815900577
5815907718
5815915653
5815924015
5815931278
5815938724
5815945682
5815953861
5815958988
5815966922
5815977420
5815986270
5815992984
5816002506
5816009219
5816016238
5816026370
5816033755
5816042178
5816048587
5816057315
5816062930
5816074527
5816081424
5816088138
5816098025
5816105166
5816112369
5816121097
5816129336
5816137332
5816143924
5816153384
5816162417
5816167117
5816174624
5816182070
5816191165
5816197940
5816204531
5816211428
5816217776
5816224368
5816227297
5816237246
5816241824
5816247439
5816254092
5816261050
5816265627
5816272646
5816280398
5816285586
5816291995
5816297305
5816300784
5816308840
5816316592
5816323977
5816330569
5816337160
5816342593
5816348940
5816355837
5816363772
5816370730
5816376284
5816383181
5816387514
5816395388
5816401613
5816406557
5816413210
5816419619
5816426882
5816432253
5816438356
5816445498
5816451540
5816458254
5816464296
5816470217
5816475710
5816482241
5816487795
5816493593
5816498781
5816504152
5816508913
5816516298
5816522158
5816528078
5816533510
5816539675
5816545534
5816551882
5816558046
5816562135
5816569338
5816575380
5816580812
5816587221
5816593568
5816599184
5816606264
5816612306
5816618105
5816624330
5816631044
5816637086
5816644533
5816651185
5816657716
5816663209
5816670289
5816674806
5816682680
5816689760
5816697328
5816704103
5816711976
5816716371
5816724244
5816731447
5816736390
5816745607
5816753358
5816761903
5816767823
5816775575
5816781861
5816789003
5816796388
5816802125
5816808839
5816817018
5816823731
5816830934
5816837769
5816848634
5816857240
5816864381
5816875733
5816882935
5816888856
5816899049
5816905640
5816910462
5816917481
5816923096
5816934205
5816944031
5816952515
5816960023
5816965821
5816971314
5816979493
5816987549
5816993165
5817000062
5817006104
5817013672
5817022217
5817028687
5817035767
5817043335
5817049988
5817056275
5817061463
5817068421
5817075013
5817082886
5817088990
5817095276
5817102173
5817109436
5817117188
5817124390
5817131470
5817137634
5817144287
5817150818
5817157227
5817164673
5817170532
5817177307
5817184570
5817189514
5817196472
5817201538
5817208191
5817213501
5817221130
5817227051
5817233765
5817240784
5817247070
5817252685
5817260132
5817267639
5817275146
5817282104
5817288208
5817296753
5817304626
5817311706
5817319824
5817328064
5817334655
5817340271
5817345520
5817353271
5817360229
5817368774
5817375610
5817382751
5817390502
5817396057
5817403259
5817412170
5817421264
5817429931
5817435424
5817442932
5817451537
5817459777
5817467346
5817476623
5817483642
5817493774
5817498656
5817507995
5817513061
5817522643
5817530578
5817536864
5817546081
5817554198
5817562011
5817569457
5817579528
5817583861
5817593139
5817600829
5817608153
5817614196
5817621947
5817629210
5817637023
5817644408
5817650084
5817659789
5817667968
5817674681
5817681578
5817692198
5817700499
5817708068
5817715880
5817723815
5817731505
5817737608
5817745482
5817753172
5817759459
5817767149
5817774229
5817782347
5817790160
5817798094
5817805052
5817813902
5817821471
5817827208
5817835387
5817843321
5817851317
5817857298
5817865416
5817873350
5817881041
5817888792
5817896483
5817904173
5817911863
5817917723
5817926451
5817932432
5817941465
5817947203
5817956297
5817961912
5817969786
5817976194
5817987120
5817994322
5818002500
5818009336
5818018003
5818024473
5818034422
5818040525
5818048826
5818058347
5818067869
5818072874
5818083311
5818088071
5818098875
5818103574
5818113340
5818120542
5818130674
5818135618
5818145322
5818152524
5818161191
5818168516
5818176816
5818184080
5818193723
5818201719
5818208005
5818215940
5818227597
5818234922
5818243039
5818249875
5818257932
5818264768
5818274045
5818281247
5818289853
5818297177
5818305478
5818315061
5818325131
5818339047
5818345639
5818354550
5818361203
5818369382
5818376889
5818386350
5818392941
5818400693
5818407346
5818414792
5818423337
5818429196
5818438046
5818445676
5818452267
5818459958
5818466611
5818474423
5818481076
5818490231
5818498349
5818504757
5818510861
5818519894
5818526852
5818532406
5818538510
5818550595
5818558834
5818564572
5818572140
5818580441
5818588375
5818596676
5818604183
5818610592
5818619015
5818627560
5818635067
5818642941
5818649105
5818657345
5818664913
5818673519
5818682430
5818688595
5818698299
5818704647
5818713619
5818719967
5818729000
5818738766
5818746151
5818752254
5818761654
5818769344
5818778560
5818786068
5818793941
5818801449
5818808834
5818815548
5818824886
5818833492
5818840938
5818847469
5818856502
5818863277
5818871273
5818880123
5818885311
5818895809
5818904659
5818910823
5818917781
5818927059
5818936092
5818944881
5818950801
5818959773
5818967708
5818977535
5818990718
5818997249
5819003291
5819016536
5819025081
5819030818
5819038997
5819047847
5819052913
5819063899
5819069270
5819080806
5819086116
5819096919
5819105830
5819114070
5819121577
5819130244
5819139277
5819146907
5819152949
5819161067
5819167048
5819176631
5819182795
5819191523
5819198115
5819210749
5819217707
5819225703
5819232356
5819238886
5819247370
5819255061
5819263850
5819270564
5819278437
5819286372
5819292414
5819300715
5819308771
5819314997
5819322993
5819330988
5819338984
5819343622
5819353571
5819361872
5819368036
5819374872
5819384272
5819391840
5819397944
5819404535
5819412592
5819421137
5819428827
5819435724
5819443171
5819449152
5819459467
5819465876
5819474359
5819480768
5819489130
5819497980
5819503351
5819513849
5819522272
5819528742
5819536127
5819545831
5819553095
5819560907
5819567499
5819576959
5819583734
5819593134
5819599725
5819604852
5819616388
5819621576
5819630792
5819637933
5819649347
5819658014
5819664667
5819672235
5819681085
5819688043
5819695978
5819705987
5819712152
5819722162
5819731256
5819740228
5819749139
5819757806
5819766961
5819774652
5819783624
5819791009
5819799432
5819808892
5819816644
5819823174
5819831719
5819841851
5819849236
5819857110
5819865777
5819873711
5819880059
5819888055
5819896294
5819904534
5819907281
5819918694
5819928460
5819934930
5819946953
5819954033
5819963006
5819968987
5819976983
5819985772
5819991753
5820000298
5820004937
5820014946
5820021538
5820029717
5820036431
5820044304
5820051079
5820058281
5820067131
5820074272
5820080132
5820087944
5820095940
5820104485
5820111138
5820118645
5820126640
5820134453
5820142510
5820150078
5820156120
5820163933
5820172051
5820176811
5820186028
5820192741
5820200737
5820207817
5820215629
5820221733
5820230034
5820239677
5820245903
5820254509
5820261406
5820270256
5820276359
5820285576
5820293876
5820300773
5820312858
5820319816
5820329277
5820336113
5820341178
5820352775
5820357902
5820367851
5820375053
5820383720
5820391105
5820402152
5820407279
5820417716
5820425041
5820433463
5820440177
5820448539
5820457938
5820465629
5820472099
5820480766
5820487418
5820492484
5820503959
5820522636
5820532889
5820542716
5820551383
5820561515
5820569144
5820576957
5820584403
5820590934
5820597953
5820604850
5820611564
5820617423
5820625235
5820640677
5820648246
5820655020
5820662467
5820670279
5820676810
5820685721
5820692496
5820697989
5820704886
5820711539
5820721915
5820726920
5820739493
5820744315
5820753653
5820761160
5820768423
5820772635
5820781546
5820785757
5820795401
5820804556
5820810171
5820817618
5820824759
5820831290
5820836783
5820846121
5820852102
5820859427
5820866995
5820874685
5820881582
5820888662
5820895376
5820906790
5820914297
5820922232
5820928274
5820935965
5820943777
5820949820
5820957388
5820965567
5820973623
5820981253
5820988577
5820994375
5821003591
5821009390
5821018789
5821025503
5821034841
5821041067
5821048391
5821054983
5821062124
5821068777
5821078848
5821088064
5821094228
5821102102
5821109487
5821116628
5821124197
5821129934
5821137807
5821145620
5821153188
5821159536
5821167409
5821173879
5821181508
5821189565
5821195668
5821204274
5821212514
5821219472
5821227773
5821235707
5821242177
5821250600
5821259511
5821268239
5821274098
5821282155
5821288503
5821296498
5821304738
5821312856
5821322072
5821330312
5821337148
5821344350
5821350636
5821362477
5821370290
5821379933
5821387318
5821394582
5821402760
5821409840
5821416798
5821424061
5821433034
5821439137
5821458180
5821472157
5821483143
5821489491
5821497853
5821505421
5821513539
5821519398
5821527760
5821533741
5821542225
5821550648
5821558705
5821565174
5821574085
5821580616
5821589405
5821595753
5821602650
5821609303
5821618519
5821627369
5821635243
5821642872
5821648853
5821655445
5821664173
5821671986
5821678272
5821686207
5821695057
5821702442
5821708179
5821716114
5821724415
5821732471
5821745106
5821752857
5821760731
5821770008
5821777454
5821784351
5821791370
5821804187
5821812549
5821821216
5821827442
5821833301
5821842578
5821848987
5821860828
5821869312
5821879322
5821889881
5821899646
5821907276
5821916004
5821921375
5821931323
5821937061
5821946338
5821956226
5821964038
5821971423
5821981555
5821988147
5821996875
5822004748
5822013843
5822024890
5822033923
5822041675
5822049548
5822058948
5822067187
5822076037
5822083239
5822092334
5822103442
5822111010
5822121814
5822128894
5822137011
5822144335
5822151843
5822158862
5822166430
5822175219
5822183276
5822191027
5822201708
5822209948
5822215746
5822223925
5822232409
5822239489
5822246996
5822257677
5822265673
5822272997
5822280871
5822287585
5822294909
5822305834
5822312365
5822321886
5822328783
5822334276
5822342821
5822350390
5822358019
5822366625
5822372728
5822380602
5822389025
5822396044
5822402147
5822410570
5822419298
5822428453
5822435839
5822445299
5822451097
5822460436
5822467272
5822476305
5822483995
5822491747
5822498583
5822505419
5822515733
5822523668
5822534166
5822539659
5822547777
5822556871
5822564989
5822572313
5822579942
5822588426
5822596178
5822605638
5822613817
5822621141
5822629564
5822639696
5822645616
5822654954
5822663621
5822668687
5822679368
5822687730
5822698045
5822705308
5822713182
5822720506
5822727525
5822736192
5822743211
5822754380
5822761766
5822769212
5822777452
5822787766
5822795213
5822804490
5822811875
5822819932
5822827805
5822835740
5822843308
5822851670
5822862046
5822872788
5822884141
5822892991
5822900742
5822910142
5822921921
5822929917
5822936997
5822945481
5822953354
5822960923
5822968247
5822977585
5822984604
5822990586
5822997971
5823006760
5823014206
5823022263
5823032029
5823039475
5823046067
5823055954
5823063584
5823070420
5823079148
5823087143
5823095322
5823104599
5823112229
5823119492
5823129868
5823138474
5823146286
5823151413
5823160751
5823167099
5823176193
5823184067
5823193954
5823201828
5823208053
5823215866
5823221725
5823231430
5823241684
5823250961
5823257553
5823265121
5823272079
5823281784
5823288803
5823298629
5823307541
5823314560
5823321945
5823331161
5823338729
5823347213
5823355575
5823363265
5823372787
5823382919
5823391952
5823399886
5823406234
5823415023
5823422530
5823431686
5823440902
5823446944
5823456710
5823464645
5823474471
5823483871
5823492355
5823500045
5823506332
5823514632
5823523421
5823533919
5823541366
5823547225
5823558089
5823564986
5823576095
5823585006
5823592147
5823598800
5823606917
5823616500
5823622176
5823629561
5823640181
5823647261
5823653670
5823662398
5823670272
5823676924
5823685530
5823692488
5823700362
5823709456
5823716780
5823726668
5823734480
5823743636
5823750838
5823758345
5823767439
5823773054
5823780928
5823791487
5823799361
5823807234
5823817183
5823825728
5823832258
5823838606
5823848555
5823856856
5823865828
5823870772
5823878706
5823885237
5823896345
5823901655
5823915266
5823922346
5823928083
5823937056
5823944868
5823954389
5823963240
5823969282
5823980757
5823985945
5823996443
5824005476
5824013838
5824023481
5824030866
5824038252
5824047102
5824055585
5824063459
5824072370
5824081098
5824088422
5824095869
5824104047
5824111433
5824119306
5824126325
5824136579
5824144452
5824153241
5824162214
5824171247
5824178693
5824188337
5824194501
5824203351
5824210248
5824217755
5824227399
5824236432
5824245099
5824258405
5824266828
5824273541
5824281110
5824288434
5824297650
5824304425
5824312726
5824320966
5824327191
5824334149
5824343366
5824353619
5824365399
5824372479
5824380109
5824385907
5824393841
5824400922
5824409650
5824416424
5824421857
5824430707
5824437054
5824445111
5824453656
5824459393
5824468915
5824477581
5824484173
5824492901
5824499737
5824510662
5824518963
5824526348
5824534344
5824540325
5824552349
5824560406
5824569866
5824578411
5824583965
5824593609
5824597698
5824608868
5824617107
5824623516
5824633465
5824643047
5824652264
5824660259
5824667095
5824678936
5824686870
5824692242
5824701519
5824707561
5824718609
5824727398
5824736614
5824744365
5824750042
5824759502
5824767559
5824775127
5824783916
5824792949
5824800762
5824808940
5824816631
5824824321
5824835674
5824851360
5824859416
5824868877
5824877361
5824882671
5824892986
5824900493
5824908611
5824917888
5824927104
5824936870
5824946208
5824954570
5824959819
5824970073
5824978007
5824985942
5824992351
5825000712
5825007060
5825014934
5825022807
5825029887
5825037333
5825045268
5825054484
5825062663
5825069133
5825077556
5825083049
5825092143
5825098979
5825106242
5825114970
5825120890
5825131938
5825138774
5825148295
5825158244
5825164958
5825173808
5825181132
5825189433
5825196513
5825203227
5825213236
5825219584
5825224345
5825232829
5825237345
5825243571
5825250285
5825257975
5825263651
5825269877
5825275370
5825281351
5825289042
5825295573
5825300394
5825307474
5825315409
5825320109
5825327006
5825333841
5825342081
5825348246
5825353495
5825359415
5825364359
5825370951
5825377237
5825383524
5825389811
5825396708
5825402079
5825407083
5825413675
5825420877
5825426737
5825432108
5825440287
5825446695
5825453836
5825460306
5825466410
5825471842
5825476846
5825483133
5825488626
5825496256
5825502542
5825510050
5825518594
5825523477
5825530496
5825536234
5825541971
5825548013
5825554483
5825559976
5825565225
5825569437
5825578104
5825583719
5825589090
5825593973
5825600870
5825606241
5825613443
5825620584
5825625528
5825631936
5825637857
5825645364
5825652322
5825659036
5825665017
5825671182
5825675393
5825682657
5825689920
5825695779
5825702798
5825710122
5825717263
5825723855
5825731301
5825735757
5825744302
5825751992
5825756936
5825764138
5825771646
5825777627
5825784585
5825793313
5825799539
5825805276
5825812234
5825819497
5825825417
5825832497
5825840127
5825845376
5825850259
5825858742
5825865700
5825871621
5825878701
5825886086
5825891518
5825900429
5825909768
5825915017
5825922036
5825926613
5825936257
5825942177
5825949563
5825959633
5825963173
5825971169
5825978432
5825988259
5825997109
5826004433
5826010842
5826020485
5826027870
5826034584
5826043068
5826048012
5826055763
5826061806
5826068337
5826074806
5826081825
5826089150
5826096352
5826102699
5826108620
5826116615
5826124977
5826130287
5826138100
5826144630
5826150002
5826157265
5826162636
5826171547
5826178078
5826185585
5826193031
5826200233
5826206886
5826212501
5826219215
5826225014
5826232704
5826239479
5826246681
5826253456
5826260719
5826269203
5826275001
5826282936
5826289894
5826297950
5826302467
5826309791
5826317604
5826324440
5826331642
5826338478
5826346595
5826353492
5826360877
5826366920
5826374183
5826381263
5826389503
5826396888
5826403358
5826410621
5826417457
5826424720
5826435462
5826442603
5826450965
5826456153
5826467261
5826474097
5826484107
5826492408
5826499305
5826507789
5826515601
5826524024
5826535010
5826541602
5826551795
5826559546
5826565406
5826573157
5826579993
5826587683
5826597571
5826606604
5826617041
5826625952
5826632422
5826639807
5826645056
5826654456
5826661353
5826666175
5826675391
5826682227
5826690527
5826697241
5826703833
5826711401
5826715857
5826725867
5826730383
5826740820
5826747412
5826755652
5826763464
5826770666
5826777014
5826783728
5826790625
5826799597
5826806311
5826813940
5826819861
5826827917
5826835119
5826841223
5826847693
5826856970
5826864172
5826870215
5826878515
5826884802
5826892370
5826898535
5826905676
5826914648
5826921179
5826927648
5826936437
5826941320
5826950170
5826957250
5826964453
5826969335
5826979772
5826983862
5826993688
5826998510
5827006384
5827013891
5827021337
5827025793
5827036718
5827044592
5827050085
5827057653
5827065099
5827072485
5827083532
5827090307
5827098669
5827106115
5827112035
5827119054
5827127111
5827134496
5827143590
5827150487
5827157018
5827165441
5827171361
5827179418
5827187902
5827194188
5827203466
5827211278
5827217748
5827225621
5827232823
5827240880
5827249913
5827256139
5827264134
5827271275
5827279759
5827285314
5827293797
5827299596
5827310155
5827314732
5827325353
5827329869
5827338902
5827343175
5827351720
5827355992
5827366368
5827373448
5827379735
5827387120
5827395543
5827403050
5827409093
5827418614
5827425938
5827433079
5827440159
5827447423
5827455418
5827460545
5827464817
5827475193
5827483555
5827490086
5827498265
5827504307
5827512059
5827517674
5827526097
5827532261
5827540745
5827546849
5827555515
5827561192
5827567967
5827576267
5827582554
5827591221
5827598667
5827604649
5827613316
5827621250
5827628269
5827634678
5827642002
5827651524
5827658359
5827665501
5827675449
5827680576
5827689060
5827695286
5827706150
5827714023
5827721836
5827730747
5827737522
5827745945
5827754429
5827761020
5827770420
5827777805
5827784397
5827791721
5827798862
5827806980
5827813571
5827820407
5827829685
5827837741
5827844272
5827851535
5827858371
5827865573
5827873203
5827882724
5827889865
5827898410
5827904758
5827912814
5827921664
5827927585
5827933444
5827941501
5827951694
5827959140
5827965671
5827974826
5827982394
5827988437
5827994784
5828002841
5828009860
5828019565
5828024508
5828035922
5828044284
5828053317
5828061862
5828069735
5828076510
5828084872
5828091830
5828098117
5828107394
5828114535
5828121371
5828128756
5828139071
5828144015
5828154147
5828159091
5828168795
5828176486
5828184481
5828194979
5828205843
5828213717
5828219881
5828228671
5828234591
5828242525
5828251681
5828259920
5828266512
5828274386
5828282259
5828288851
5828296541
5828302645
5828311190
5828319124
5828327242
5828333346
5828341341
5828348482
5828356966
5828362032
5828372286
5828380648
5828388704
5828394869
5828403048
5828407686
5828417940
5828423128
5828434114
5828442598
5828449556
5828454439
5828464083
5828471834
5828478060
5828485140
5828493135
5828500032
5828508699
5828515413
5828524263
5828528841
5828540315
5828547761
5828555086
5828563875
5828571931
5828580232
5828586214
5828593965
5828602449
5828607149
5828615693
5828622590
5828632112
5828640962
5828648591
5828655671
5828661958
5828670137
5828678193
5828686494
5828695100
5828703279
5828710664
5828719941
5828726533
5828736665
5828744966
5828751191
5828759431
5828767243
5828772004
5828781587
5828786286
5828797334
5828805695
5828813325
5828822785
5828831574
5828838532
5828845856
5828857392
5828864960
5828875703
5828880585
5828889863
5828894806
5828904023
5828910615
5828921662
5828926728
5828937531
5828949616
5828958100
5828971711
5828979950
5828986542
5828999848
5829006501
5829013764
5829020905
5829026886
5829031952
5829042389
5829049896
5829057831
5829065827
5829071320
5829079071
5829087433
5829093903
5829100678
5829110382
5829117340
5829125336
5829129669
5829138824
5829143036
5829152679
5829156952
5829167816
5829175201
5829182770
5829188385
5829195465
5829202789
5829209991
5829216034
5829224334
5829232940
5829238983
5829246856
5829254608
5829261383
5829269195
5829275787
5829284759
5829292572
5829299835
5829308441
5829314422
5829322967
5829332122
5829339996
5829347198
5829354644
5829362762
5829370513
5829376434
5829385040
5829392913
5829399200
5829407745
5829416534
5829422759
5829431182
5829439666
5829447600
5829457549
5829467132
5829474212
5829483672
5829493438
5829501250
5829508452
5829516082
5829524932
5829535186
5829541594
5829550567
5829559722
5829564788
5829575591
5829586028
5829595244
5829602568
5829609648
5829618010
5829624663
5829634673
5829639495
5829648467
5829656767
5829665251
5829669890
5829679472
5829684233
5829693205
5829700468
5829709502
5829718779
5829725310
5829732329
5829740874
5829747465
5829755217
5829761809
5829770170
5829777434
5829785551
5829792143
5829801176
5829807707
5829816008
5829822355
5829830290
5829837980
5829846342
5829855070
5829861540
5829867460
5829875700
5829884367
5829891569
5829898344
5829908720
5829915373
5829923185
5829929960
5829937712
5829944547
5829953214
5829961393
5829971830
5829977384
5829987272
5829992277
5830001981
5830006742
5830016935
5830024137
5830034635
5830039518
5830048734
5830053495
5830063444
5830071683
5830078641
5830087980
5830096219
5830103177
5830110990
5830119169
5830126859
5830133390
5830141507
5830148221
5830156095
5830163785
5830172452
5830179349
5830187833
5830196012
5830206021
5830214933
5830222318
5830230741
5830238004
5830247098
5830253751
5830263394
5830268094
5830279324
5830284940
5830294217
5830301541
5830310269
5830316983
5830325955
5830335294
5830342618
5830352261
5830359402
5830367947
5830376736
5830383572
5830394436
5830402493
5830410550
5830417874
5830424283
5830431668
5830438015
5830449551
5830457302
5830464505
5830472927
5830480130
5830486538
5830493923
5830502652
5830509854
5830517849
5830527493
5830534085
5830541714
5830547634
5830555874
5830562466
5830570095
5830576504
5830585232
5830593044
5830600124
5830607815
5830614956
5830623196
5830629360
5830638027
5830647304
5830653652
5830661892
5830667873
5830676296
5830682522
5830690456
5830700039
5830707607
5830714504
5830723415
5830731960
5830739345
5830746486
5830754055
5830763332
5830769680
5830778163
5830785976
5830792629
5830799343
5830806728
5830816371
5830823757
5830832790
5830841152
5830849086
5830854030
5830864528
5830872157
5830881496
5830889552
5830895778
5830903651
5830909572
5830917690
5830926356
5830932338
5830943080
5830951625
5830958400
5830965663
5830972255
5830979762
5830989345
5830995936
5831006190
5831015468
5831020533
5831029933
5831036342
5831045985
5831053004
5831061854
5831069423
5831078517
5831087733
5831095179
5831104457
5831110499
5831122096
5831128260
5831138819
5831146815
5831154749
5831161402
5831169215
5831177760
5831187281
5831193995
5831206019
5831215540
5831219874
5831229822
5831235682
5831244410
5831252344
5831259913
5831268397
5831274561
5831283472
5831287378
5831296961
5831307093
5831314600
5831322901
5831327784
5831335169
5831342493
5831349573
5831358545
5831366846
5831373987
5831380884
5831387720
5831394739
5831398767
5831407678
5831416590
5831423426
5831432276
5831437708
5831445947
5831454553
5831460596
5831468836
5831475855
5831483972
5831490686
5831497705
5831505334
5831514307
5831520044
5831528528
5831535852
5831543298
5831550622
5831557458
5831564905
5831574243
5831582605
5831588769
5831597314
5831604883
5831611902
5831616052
5831628991
5831637964
5831643640
5831653405
5831660485
5831668847
5831677514
5831683007
5831690576
5831698266
5831709130
5831723290
5831733422
5831740197
5831747582
5831756249
5831762231
5831770837
5831779626
5831789330
5831796044
5831804406
5831812829
5831822167
5831831200
5831837426
5831845544
5831852502
5831860985
5831869286
5831878625
5831886254
5831894066
5831901574
5831911156
5831919457
5831925499
5831933312
5831939171
5831947228
5831955040
5831961937
5831971886
5831979760
5831988915
5831995995
5832002770
5832012169
5832018639
5832027367
5832034630
5832043358
5832048119
5832057274
5832064110
5832071739
5832079430
5832087242
5832094872
5832104881
5832109642
5832119347
5832127586
5832134117
5832141991
5832150535
5832158287
5832166405
5832174400
5832180748
5832188804
5832197227
5832203941
5832212547
5832220543
5832226768
5832236168
5832243065
5832252220
5832260154
5832269126
5832276634
5832286399
5832293052
5832300498
5832307273
5832315818
5832322654
5832328636
5832338340
5832345847
5832351646
5832359702
5832368369
5832374717
5832380759
5832389854
5832396384
5832405479
5832414634
5832422874
5832430076
5832438315
5832444846
5832453208
5832461143
5832469382
5832478599
5832486594
5832493918
5832500449
5832507712
5832518149
5832525290
5832533347
5832541098
5832549460
5832554648
5832564902
5832573996
5832582602
5832591819
5832597739
5832606528
5832615683
5832623374
5832629965
5832637961
5832645346
5832654257
5832663107
5832670187
5832676169
5832684653
5832690756
5832698752
5832709433
5832717673
5832724692
5832732077
5832737997
5832745810
5832754782
5832763022
5832769552
5832779074
5832785971
5832793417
5832800070
5832808188
5832817648
5832826620
5832833944
5832842123
5832848715
5832856405
5832863424
5832871420
5832879782
5832886618
5832895285
5832903219
5832910909
5832916830
5832925070
5832931722
5832941000
5832949239
5832957723
5832965475
5832974081
5832980489
5832987447
5832995260
5833001669
5833011068
5833019796
5833027853
5833036031
5833045431
5833054403
5833065206
5833076009
5833082357
5833091573
5833097616
5833104329
5833112630
5833119954
5833127889
5833133809
5833143148
5833150899
5833157613
5833165914
5833172261
5833181234
5833189839
5833197774
5833203084
5833214009
5833221578
5833230733
5833240437
5833247151
5833255330
5833263753
5833270711
5833277364
5833285176
5833292134
5833302022
5833308858
5833318867
5833324055
5833335225
5833343709
5833352254
5833360982
5833371297
5833378682
5833386067
5833394612
5833401265
5833409993
5833416707
5833426472
5833435444
5833441975
5833449910
5833457661
5833462849
5833472309
5833477192
5833485920
5833495075
5833503376
5833509968
5833518025
5833526692
5833532795
5833537373
5833547810
5833555622
5833564167
5833571858
5833580891
5833590839
5833597675
5833606953
5833614643
5833622883
5833628925
5833637470
5833646137
5833652180
5833660541
5833667866
5833676044
5833684772
5833690693
5833699726
5833705646
5833713581
5833722431
5833729877
5833736713
5833745502
5833752704
5833762043
5833769489
5833777606
5833782428
5833796161
5833806415
5833814166
5833822284
5833828327
5833835834
5833841937
5833851154
5833861530
5833867633
5833874408
5833883197
5833889911
5833898883
5833907184
5833912555
5833923785
5833932513
5833938800
5833946796
5833953570
5833961993
5833969501
5833978290
5833989093
5833995929
5834004657
5834012408
5834017596
5834025775
5834034503
5834043353
5834050677
5834058673
5834065936
5834075152
5834083026
5834091754
5834098345
5834107379
5834118060
5834124713
5834135272
5834143389
5834149798
5834154559
5834164446
5834174700
5834181475
5834190081
5834198687
5834207781
5834214739
5834223711
5834230303
5834240008
5834246599
5834253435
5834261858
5834268389
5834277361
5834283465
5834292925
5834299517
5834308916
5834315691
5834322527
5834331255
5834336931
5834346636
5834356951
5834362444
5834370867
5834377092
5834382280
5834388689
5834396135
5834401140
5834408403
5834414690
5834421037
5834424455
5834432512
5834440080
5834444658
5834452104
5834459245
5834465044
5834471330
5834476946
5834482866
5834489824
5834497331
5834502519
5834508501
5834515031
5834522172
5834527849
5834533891
5834539995
