6307228726
6307234280
6307239346
6307245205
6307250882
6307255826
6307261990
6307267178
6307272549
6307279446
6307285305
6307290677
6307294949
6307301663
6307306363
6307312161
6307318447
6307324368
6307330349
6307336941
6307343411
6307348965
6307354092
6307360317
6307366299
6307374233
6307382229
6307389004
6307395229
6307400051
6307406277
6307417263
6307424587
6307433193
6307439541
6307445522
6307453091
6307461880
6307469326
6307475735
6307483730
6307490322
6307496059
6307502651
6307511013
6307517177
6307525722
6307531704
6307541286
6307547878
6307556057
6307564235
6307572414
6307578518
6307585903
6307594082
6307602077
6307609523
6307615749
6307624233
6307630519
6307638454
6307645046
6307651454
6307661769
6307669460
6307678676
6307686916
6307696132
6307705348
6307712856
6307719081
6307726222
6307734096
6307740260
6307746791
6307753322
6307762477
6307770717
6307777614
6307786037
6307789760
6307799647
6307805873
6307812282
6307821437
6307830226
6307835780
6307842311
6307850917
6307857753
6307866053
6307873927
6307881312
6307888392
6307894862
6307901454
6307907985
6307916102
6307925074
6307931605
6307940028
6307948756
6307955226
6307963526
6307972743
6307979823
6307987940
6307993800
6308003382
6308010035
6308017298
6308026331
6308034388
6308043482
6308051661
6308058802
6308065394
6308073572
6308082117
6308088709
6308097437
6308105433
6308113917
6308123011
6308130152
6308139124
6308146814
6308153833
6308162012
6308170984
6308178553
6308187403
6308194056
6308203516
6308213282
6308218592
6308227320
6308235865
6308243311
6308253443
6308261072
6308267175
6308277002
6308284693
6308296533
6308305444
6308316553
6308324609
6308335168
6308343042
6308349268
6308359766
6308366235
6308372705
6308381677
6308389734
6308396020
6308406457
6308413721
6308420923
6308427331
6308436426
6308444177
6308451318
6308460595
6308468042
6308475244
6308482080
6308489404
6308497949
6308505151
6308513513
6308520776
6308528161
6308535302
6308543420
6308550256
6308558373
6308565454
6308572473
6308579858
6308586877
6308595849
6308602319
6308609399
6308615807
6308624474
6308630822
6308638085
6308645654
6308652673
6308660363
6308667260
6308675805
6308682275
6308690087
6308696557
6308704552
6308712060
6308718407
6308727257
6308733361
6308741112
6308747216
6308758141
6308765038
6308771752
6308777916
6308786950
6308794030
6308800866
6308807885
6308816246
6308823815
6308832115
6308839073
6308847679
6308854820
6308862511
6308869713
6308876366
6308883202
6308890099
6308897362
6308906578
6308913170
6308921166
6308929039
6308935020
6308943138
6308949059
6308957115
6308966148
6308972435
6308982201
6308989403
6308998802
6309005699
6309012779
6309021385
6309029259
6309036400
6309044334
6309073448
6309080711
6309088340
6309096336
6309103843
6309112449
6309119773
6309128623
6309135948
6309141502
6309148460
6309157127
6309164512
6309170249
6309176109
6309183433
6309192649
6309199912
6309207786
6309214927
6309223594
6309230979
6309238059
6309245383
6309253013
6309259360
6309266746
6309275779
6309283164
6309290488
6309298118
6309305442
6309312705
6309319907
6309327842
6309335410
6309343162
6309350730
6309357627
6309363730
6309372214
6309380210
6309386252
6309395652
6309401938
6309408530
6309415000
6309421714
6309430075
6309436911
6309444174
6309452292
6309459189
6309468161
6309474997
6309482565
6309488791
6309497885
6309506003
6309513876
6309523276
6309529929
6309538107
6309547873
6309555624
6309564291
6309572958
6309579184
6309588583
6309594565
6309605734
6309613119
6309619467
6309628073
6309634176
6309640585
6309647299
6309653280
6309658896
6309666586
6309672567
6309678671
6309685080
6309693747
6309698751
6309704916
6309712484
6309718893
6309728414
6309734884
6309742819
6309749533
6309756429
6309763632
6309770223
6309776205
6309782491
6309790426
6309796529
6309801840
6309807577
6309816427
6309822958
6309828573
6309836263
6309843099
6309850606
6309856466
6309862203
6309868185
6309874410
6309883443
6309889486
6309895833
6309903402
6309908956
6309914937
6309921834
6309928243
6309933370
6309940755
6309945882
6309953573
6309959005
6309964742
6309970296
6309979818
6309985128
6309992025
6309998250
6310005757
6310012532
6310018392
6310026509
6310035665
6310040181
6310048421
6310055440
6310061116
6310065694
6310075704
6310082112
6310089131
6310096455
6310103475
6310110249
6310116963
6310124471
6310131795
6310140523
6310146443
6310152547
6310160969
6310166585
6310173482
6310182515
6310189595
6310197713
6310203145
6310211201
6310218342
6310224629
6310231038
6310238728
6310244465
6310253743
6310261921
6310268452
6310276265
6310282795
6310291340
6310299153
6310307759
6310315144
6310322224
6310329548
6310338215
6310344380
6310352619
6310358113
6310367451
6310375752
6310383930
6310391438
6310398029
6310405171
6310412922
6310420918
6310426960
6310435749
6310441914
6310449055
6310455402
6310462299
6310469929
6310479145
6310485981
6310493793
6310500568
6310507648
6310515400
6310524372
6310532062
6310539509
6310548114
6310554950
6310560383
6310569477
6310575214
6310582355
6310590229
6310598712
6310605243
6310613117
6310619770
6310628070
6310635517
6310644306
6310650836
6310658405
6310665668
6310672321
6310679279
6310685565
6310693805
6310701984
6310709735
6310716205
6310723163
6310729205
6310735980
6310742206
6310748920
6310757403
6310764667
6310772540
6310778338
6310785907
6310794086
6310802508
6310807757
6310818133
6310826556
6310832110
6310839984
6310847186
6310854144
6310860797
6310867633
6310875750
6310882830
6310890948
6310898944
6310906207
6310912066
6310921405
6310930804
6310938494
6310945819
6310952410
6310959735
6310967425
6310975054
6310982806
6310989214
6310997210
6311005084
6311013506
6311021624
6311029009
6311034441
6311042803
6311049639
6311061480
6311066790
6311076800
6311081621
6311089800
6311098040
6311107500
6311116106
6311122759
6311131792
6311139238
6311146196
6311154802
6311161821
6311168352
6311175676
6311184893
6311190874
6311199968
6311206499
6311214556
6311221147
6311228594
6311237261
6311245928
6311252336
6311259783
6311267534
6311272234
6311281328
6311288286
6311298784
6311306535
6311312456
6311320207
6311326738
6311335954
6311342485
6311349321
6311360185
6311368120
6311374589
6311381975
6311388872
6311395524
6311403093
6311410295
6311419450
6311427018
6311435258
6311443498
6311451005
6311459062
6311467118
6311476152
6311484452
6311492204
6311498124
6311505754
6311513444
6311520890
6311528276
6311536637
6311544084
6311552262
6311560380
6311567948
6311574357
6311581742
6311588334
6311596940
6311605119
6311612748
6311619523
6311626908
6311634537
6311642350
6311649369
6311657731
6311664689
6311672562
6311682145
6311689164
6311694962
6311703019
6311711503
6311717667
6311729752
6311735428
6311743119
6311751175
6311758805
6311766190
6311773392
6311782059
6311791703
6311796707
6311805313
6311815018
6311822830
6311830033
6311837845
6311847489
6311854325
6311862564
6311870926
6311879654
6311885697
6311894669
6311903580
6311909378
6311919571
6311926346
6311934280
6311940506
6311947647
6311956985
6311964920
6311971329
6311979202
6311987808
6311994644
6312003006
6312010574
6312017105
6312026138
6312032791
6312040909
6312047561
6312056106
6312063614
6312071548
6312079238
6312086013
6312094558
6312101028
6312107498
6312115310
6312122024
6312131423
6312138503
6312147415
6312154861
6312161514
6312168960
6312176894
6312184280
6312191238
6312200149
6312206924
6312215041
6312222671
6312230300
6312237441
6312245254
6312252395
6312261184
6312268081
6312276015
6312284499
6312291823
6312299209
6312307326
6312313674
6312321670
6312328566
6312336501
6312344619
6312352065
6312359267
6312366835
6312373183
6312381728
6312389907
6312398391
6312404677
6312412245
6312419570
6312427809
6312436720
6312446303
6312455763
6312464125
6312470778
6312479201
6312486647
6312493849
6312501173
6312509596
6312519728
6312526076
6312534132
6312542006
6312549574
6312556532
6312564650
6312572218
6312580458
6312587904
6312595656
6312603163
6312610792
6312618544
6312628004
6312636305
6312644423
6312653090
6312662184
6312668409
6312678358
6312686109
6312696424
6312704237
6312710646
6312718214
6312725111
6312734876
6312743910
6312749220
6312759413
6312767225
6312773939
6312782118
6312788648
6312797071
6312804884
6312814222
6312820386
6312828992
6312836317
6312843458
6312848829
6312859083
6312865247
6312876050
6312884107
6312891126
6312899061
6312906568
6312911207
6312920972
6312929029
6312935743
6312944288
6312953016
6312959363
6312967725
6312975904
6312982007
6312990735
6312998242
6313006238
6313014051
6313021985
6313028272
6313036023
6313043714
6313051770
6313059949
6313065808
6313073865
6313081189
6313089063
6313093945
6313103101
6313107800
6313119092
6313126965
6313134045
6313141492
6313148999
6313154187
6313162915
6313169873
6313181775
6313189343
6313196911
6313204419
6313211377
6313219006
6313225659
6313233105
6313241955
6313249768
6313256665
6313263989
6313271984
6313280102
6313286023
6313294140
6313304394
6313312390
6313319531
6313325268
6313333691
6313340832
6313348278
6313355053
6313363964
6313371899
6313379772
6313387829
6313396801
6313403393
6313410778
6313420116
6313429028
6313437023
6313444775
6313452587
6313459057
6313466564
6313473339
6313481273
6313489086
6313496898
6313504101
6313511425
6313519298
6313527233
6313534069
6313538952
6313550731
6313558483
6313564952
6313572826
6313580944
6313586376
6313594493
6313601207
6313611827
6313619213
6313627819
6313636058
6313643016
6313651012
6313658031
6313666515
6313674938
6313682445
6313689281
6313696910
6313703014
6313711253
6313721202
6313726817
6313737193
6313742442
6313751720
6313756602
6313766551
6313771800
6313779735
6313790355
6313797618
6313805491
6313814219
6313819224
6313827525
6313836314
6313842906
6313851878
6313858104
6313867320
6313875315
6313883311
6313891246
6313897654
6313904429
6313913035
6313920970
6313929331
6313936900
6313944834
6313952464
6313957835
6313968028
6313978098
6313986094
6313994700
6313999644
6314008433
6314017771
6314024241
6314036387
6314043101
6314051829
6314059214
6314065989
6314073557
6314081614
6314086313
6314096201
6314104014
6314111704
6314119333
6314125925
6314134043
6314143625
6314149790
6314160410
6314168772
6314176340
6314184580
6314191477
6314199228
6314206674
6314214792
6314223825
6314232065
6314239023
6314244577
6314252817
6314260263
6314268686
6314277231
6314284555
6314291879
6314299814
6314308054
6314317514
6314325449
6314332407
6314340585
6314347238
6314356393
6314361337
6314370859
6314378366
6314386056
6314394601
6314403817
6314411386
6314417123
6314424508
6314432016
6314439645
6314446115
6314454660
6314463693
6314471383
6314477609
6314484933
6314493051
6314499032
6314506845
6314514901
6314525582
6314531808
6314539559
6314547128
6314555306
6314560861
6314569161
6314574654
6314584725
6314592477
6314599252
6314606637
6314614205
6314619332
6314628548
6314637032
6314644662
6314652718
6314658822
6314666817
6314674019
6314680367
6314688180
6314694771
6314706551
6314711922
6314719735
6314727791
6314734627
6314741036
6314749092
6314755684
6314765023
6314773262
6314780464
6314788155
6314794625
6314801277
6314809029
6314815682
6314826180
6314831368
6314841133
6314845955
6314855782
6314860237
6314869026
6314877449
6314885445
6314893440
6314901680
6314909492
6314916573
6314925423
6314935005
6314944099
6314951057
6314958382
6314967232
6314973213
6314981025
6314989876
6314997078
6315004768
6315013862
6315022651
6315029182
6315037117
6315043769
6315050727
6315057624
6315065498
6315074226
6315080024
6315089363
6315096138
6315101936
6315109931
6315118293
6315128425
6315135078
6315142890
6315151985
6315158881
6315165412
6315172614
6315178779
6315187019
6315195380
6315203681
6315210883
6315218269
6315225898
6315233100
6315239509
6315248054
6315255683
6315263495
6315269904
6315277595
6315284858
6315292426
6315300971
6315307074
6315316535
6315325141
6315331672
6315339667
6315346991
6315354132
6315361090
6315369025
6315377692
6315385443
6315392401
6315400153
6315406989
6315415167
6315422614
6315432318
6315438117
6315446173
6315454291
6315463385
6315471320
6315480902
6315489386
6315496649
6315504767
6315510931
6315520270
6315525641
6315533881
6315542486
6315549200
6315558539
6315566656
6315573614
6315582220
6315588141
6315596197
6315603460
6315612188
6315621710
6315629034
6315635626
6315644842
6315652533
6315659796
6315668524
6315677740
6315686590
6315694281
6315702093
6315709478
6315717169
6315723577
6315732000
6315740179
6315748358
6315755743
6315763433
6315770818
6315775701
6315785467
6315793218
6315802862
6315811101
6315818609
6315826055
6315831914
6315839239
6315847600
6315854314
6315863347
6315870672
6315879400
6315887212
6315893743
6315901006
6315909429
6315917547
6315924016
6315931463
6315940801
6315948247
6315954229
6315961675
6315968450
6315976506
6315983708
6315991582
6315998357
6316008122
6316014897
6316022222
6316028752
6316037053
6316044682
6316052617
6316060735
6316068242
6316074590
6316082402
6316089299
6316097417
6316106999
6316114995
6316122075
6316129887
6316135869
6316143620
6316150212
6316158085
6316166325
6316174870
6316182194
6316189518
6316197209
6316204899
6316211979
6316220280
6316228276
6316236210
6316243412
6316251469
6316259098
6316264958
6316274296
6316283879
6316291142
6316298710
6316305485
6316312687
6316318730
6316328251
6316334782
6316342655
6316349552
6316358891
6316367191
6316376164
6316381840
6316398991
6316407474
6316414005
6316422184
6316432194
6316440006
6316448673
6316456425
6316465214
6316474857
6316482242
6316488102
6316497318
6316505192
6316513004
6316518802
6316527408
6316534916
6316543766
6316551700
6316560855
6316566349
6316573734
6316580631
6316588993
6316598575
6316606388
6316612735
6316620792
6316627262
6316634647
6316641849
6316650272
6316659854
6316665775
6316673831
6316681277
6316687930
6316695804
6316701907
6316709964
6316719546
6316727115
6316734256
6316742374
6316749148
6316756595
6316763125
6316770938
6316780337
6316785586
6316795230
6316802859
6316809634
6316818179
6316826053
6316834231
6316841189
6316849002
6316856082
6316863772
6316870364
6316878543
6316887637
6316896731
6316904849
6316912783
6316920901
6316928469
6316936343
6316943850
6316950869
6316960024
6316967654
6316975527
6316982851
6316990725
6316997744
6317005312
6317013735
6317020937
6317028811
6317036684
6317044253
6317052126
6317060488
6317067324
6317073244
6317081789
6317090029
6317098818
6317106752
6317115419
6317122927
6317133364
6317141542
6317149660
6317157717
6317163942
6317171877
6317179811
6317188112
6317197328
6317204592
6317216005
6317225038
6317231874
6317239870
6317248110
6317255617
6317263246
6317267946
6317278017
6317286378
6317292787
6317300478
6317308900
6317313966
6317324342
6317332033
6317339357
6317347352
6317355348
6317360475
6317369752
6317376832
6317384950
6317390321
6317401490
6317409547
6317418336
6317423890
6317432313
6317440736
6317447816
6317456300
6317465516
6317473329
6317480287
6317487794
6317496339
6317501893
6317510194
6317518800
6317526612
6317534181
6317541078
6317548890
6317557862
6317564515
6317570435
6317578187
6317587342
6317595948
6317601990
6317609376
6317616578
6317624207
6317632203
6317638428
6317647828
6317656190
6317662720
6317672547
6317680848
6317690003
6317696229
6317705689
6317713868
6317720887
6317728272
6317734070
6317742432
6317750672
6317758911
6317767762
6317774414
6317782898
6317789002
6317796143
6317803772
6317812073
6317820435
6317827942
6317835693
6317842163
6317849609
6317856262
6317864197
6317870789
6317879211
6317888977
6317895019
6317903625
6317911743
6317918762
6317926086
6317932434
6317940369
6317947204
6317955078
6317963745
6317972351
6317979126
6317987121
6317994446
6318002685
6318010132
6318017517
6318026306
6318034301
6318041442
6318049194
6318056884
6318066162
6318073608
6318081603
6318089477
6318097289
6318104492
6318110046
6318118163
6318126464
6318135619
6318141296
6318149535
6318157348
6318163696
6318171386
6318179626
6318188171
6318195800
6318203368
6318211486
6318218322
6318224547
6318233825
6318239623
6318246947
6318253356
6318260985
6318267211
6318276488
6318282836
6318290893
6318298095
6318307433
6318314635
6318322509
6318329589
6318335204
6318341185
6318349852
6318357177
6318366149
6318375853
6318381835
6318388793
6318395262
6318402403
6318411192
6318419676
6318428649
6318436644
6318443358
6318450804
6318458250
6318466124
6318473326
6318482237
6318489317
6318497008
6318505247
6318512327
6318518858
6318526549
6318533079
6318541197
6318549132
6318556395
6318562742
6318570067
6318576597
6318582823
6318589842
6318595701
6318604185
6318609007
6318615599
6318621031
6318627439
6318633909
6318639097
6318645689
6318651548
6318658934
6318664183
6318671080
6318678953
6318686155
6318692686
6318698973
6318705381
6318712766
6318719846
6318725462
6318732969
6318739866
6318746458
6318752073
6318758238
6318762815
6318770811
6318776243
6318782957
6318789487
6318794675
6318801084
6318807310
6318812559
6318819089
6318825803
6318830930
6318837278
6318842222
6318848325
6318854062
6318860166
6318865232
6318870847
6318877317
6318882566
6318887937
6318895383
6318901120
6318907712
6318914304
6318919004
6318925046
6318930906
6318936093
6318942746
6318948545
6318955747
6318960630
6318965695
6318972287
6318979245
6318985715
6318991696
6318997006
6319003415
6319008603
6319015012
6319022275
6319028317
6319034543
6319039731
6319045529
6319050778
6319057370
6319064572
6319070615
6319077206
6319082822
6319089169
6319095822
6319101071
6319108639
6319115231
6319122250
6319127377
6319134274
6319140195
6319146847
6319152890
6319159909
6319166012
6319172787
6319179501
6319184689
6319190243
6319197262
6319205868
6319212582
6319218380
6319226132
6319231686
6319239498
6319244564
6319252865
6319260250
6319265744
6319273068
6319279049
6319284725
6319292599
6319300961
6319307186
6319313595
6319319576
6319325375
6319332638
6319338192
6319345760
6319353085
6319358273
6319365841
6319370846
6319377132
6319384701
6319391781
6319397396
6319405025
6319412228
6319418026
6319424312
6319429378
6319438045
6319445186
6319450069
6319457149
6319462948
6319468136
6319475277
6319481624
6319487056
6319494136
6319501278
6319507259
6319512996
6319518489
6319525692
6319532711
6319540157
6319546382
6319552425
6319558528
6319565059
6319571285
6319577632
6319585140
6319590694
6319596858
6319604793
6319610652
6319616695
6319626460
6319633357
6319639583
6319645381
6319650630
6319656490
6319664424
6319672542
6319678279
6319685970
6319693111
6319701106
6319707576
6319714656
6319722652
6319731135
6319738276
6319743770
6319750606
6319759517
6319766047
6319772090
6319779902
6319786006
6319795527
6319802790
6319809199
6319818354
6319826045
6319831782
6319842219
6319850520
6319856990
6319864375
6319870661
6319879573
6319887629
6319896113
6319902888
6319910212
6319917414
6319924738
6319933283
6319938593
6319948603
6319954951
6319962641
6319969904
6319977900
6319984492
6319992548
6319997858
6320007014
6320014948
6320020808
6320029719
6320036677
6320043146
6320050409
6320059321
6320067377
6320073969
6320081476
6320087397
6320097284
6320103205
6320112421
6320120783
6320128595
6320135858
6320143671
6320149652
6320156732
6320164850
6320172541
6320179682
6320187433
6320195001
6320203180
6320209650
6320217401
6320224603
6320232660
6320242242
6320250238
6320256830
6320264459
6320270990
6320280206
6320288019
6320296197
6320303644
6320310480
6320317682
6320325006
6320332086
6320340814
6320348932
6320355951
6320363946
6320371454
6320378961
6320385247
6320393060
6320399225
6320407525
6320417169
6320424737
6320431329
6320439080
6320445855
6320453118
6320460992
6320465692
6320476739
6320481805
6320490960
6320498773
6320505914
6320513299
6320519830
6320528436
6320538323
6320544488
6320553155
6320561211
6320568352
6320576226
6320584100
6320592766
6320601433
6320609063
6320616021
6320624077
6320631707
6320639397
6320648003
6320653374
6320661797
6320671563
6320680535
6320690300
6320699089
6320707695
6320716729
6320724297
6320732476
6320739312
6320746636
6320753350
6320760918
6320767143
6320775688
6320783989
6320791863
6320799248
6320806694
6320813957
6320821892
6320829033
6320838066
6320846001
6320853569
6320861259
6320868889
6320874931
6320881279
6320890617
6320895195
6320905937
6320911064
6320920280
6320927910
6320935844
6320940666
6320950310
6320955436
6320965629
6320974174
6320981682
6320989555
6320997612
6321004753
6321012016
6321020439
6321027885
6321035575
6321043022
6321050468
6321057670
6321065299
6321072807
6321081230
6321088127
6321095817
6321103935
6321111259
6321117973
6321125297
6321130729
6321139091
6321148673
6321156974
6321163871
6321171745
6321178397
6321185905
6321193290
6321201896
6321209281
6321217216
6321226859
6321233512
6321239737
6321247489
6321253959
6321263175
6321272635
6321281730
6321288871
6321297110
6321303641
6321312186
6321318595
6321327628
6321337393
6321342704
6321353995
6321361319
6321368155
6321373343
6321381522
6321391165
6321399405
6321407401
6321414664
6321421256
6321429007
6321436942
6321445792
6321453970
6321461905
6321468741
6321476126
6321483206
6321490591
6321498526
6321507254
6321514334
6321522818
6321529715
6321536978
6321543692
6321551321
6321560476
6321566519
6321574514
6321582571
6321588919
6321597158
6321604666
6321612722
6321619741
6321627859
6321634634
6321642324
6321650137
6321657766
6321664968
6321673086
6321680960
6321690115
6321697378
6321705129
6321713247
6321719961
6321726614
6321733938
6321741140
6321751089
6321758840
6321765737
6321773244
6321780630
6321789052
6321794424
6321803213
6321809804
6321818532
6321827260
6321834218
6321841726
6321850210
6321855947
6321863820
6321871938
6321879567
6321888112
6321895314
6321902211
6321909414
6321917104
6321923696
6321931996
6321942617
6321949269
6321956349
6321962819
6321970510
6321977345
6321986806
6321994985
6322003591
6322009450
6322017323
6322024953
6322031361
6322038319
6322046681
6322053761
6322063954
6322071706
6322078175
6322085805
6322095021
6322103200
6322109852
6322119130
6322127797
6322135365
6322144459
6322149525
6322157277
6322164723
6322172902
6322181874
6322189686
6322197743
6322204823
6322213002
6322219838
6322227345
6322233326
6322241566
6322249806
6322257557
6322263355
6322271107
6322277699
6322285755
6322293873
6322302174
6322311329
6322319141
6322325916
6322333729
6322340321
6322347706
6322355579
6322361988
6322370960
6322379505
6322387623
6322395435
6322402027
6322409412
6322418018
6322424183
6322432483
6322440235
6322447071
6322454151
6322461353
6322468860
6322477100
6322485218
6322495044
6322500415
6322509571
6322517994
6322524097
6322531360
6322537464
6322545337
6322553882
6322561695
6322568592
6322576282
6322583240
6322591174
6322597705
6322606921
6322615588
6322624194
6322631335
6322639331
6322646045
6322653247
6322661853
6322669177
6322679919
6322687610
6322694751
6322702746
6322710681
6322718066
6322724597
6322732593
6322739428
6322747241
6322755664
6322762622
6322768603
6322776111
6322784106
6322792590
6322798816
6322807116
6322814379
6322821826
6322829638
6322837451
6322845690
6322852160
6322861804
6322871142
6322878466
6322886462
6322894763
6322902026
6322908923
6322917651
6322924670
6322932909
6322940356
6322947741
6322953967
6322961779
6322970080
6322978075
6322985522
6322993761
6323002062
6323008044
6323017138
6323022509
6323030077
6323038744
6323047594
6323055529
6323062609
6323070482
6323077807
6323085619
6323091967
6323101488
6323109545
6323117907
6323125048
6323130602
6323137926
6323145128
6323153795
6323162218
6323169725
6323177416
6323185594
6323193468
6323200304
6323207689
6323214037
6323222276
6323229417
6323237230
6323243822
6323251329
6323259264
6323266527
6323272935
6323281419
6323290758
6323298936
6323305772
6323313157
6323321641
6323326219
6323337266
6323343675
6323353502
6323361619
6323368394
6323376024
6323383714
6323391038
6323399034
6323407029
6323415330
6323423143
6323429856
6323437608
6323445542
6323453843
6323460374
6323469407
6323479051
6323487657
6323493943
6323501634
6323507920
6323517564
6323525010
6323533677
6323543320
6323548631
6323556931
6323564805
6323572007
6323579453
6323586777
6323595017
6323603684
6323612290
6323618516
6323626511
6323635300
6323643601
6323650071
6323658921
6323667710
6323676011
6323682969
6323690476
6323697495
6323705185
6323712387
6323720200
6323727280
6323735276
6323744065
6323753159
6323761276
6323770676
6323781052
6323787094
6323796250
6323803818
6323811752
6323819992
6323827377
6323833176
6323841476
6323850632
6323858627
6323865646
6323873215
6323879990
6323887375
6323894760
6323902756
6323911178
6323919784
6323926132
6323933517
6323940658
6323948288
6323954574
6323961532
6323971664
6323979538
6323987350
6323995163
6324001937
6324009323
6324015853
6324022384
6324032516
6324040695
6324047103
6324054611
6324061447
6324068405
6324077316
6324085433
6324094161
6324101974
6324108382
6324115890
6324123092
6324130660
6324137069
6324145553
6324154342
6324160995
6324169601
6324177047
6324183028
6324190841
6324198897
6324207809
6324215560
6324225142
6324231551
6324239119
6324246993
6324255111
6324261886
6324270552
6324279342
6324285933
6324294173
6324301497
6324308028
6324315718
6324323531
6324331710
6324340865
6324347335
6324354903
6324362410
6324369490
6324377364
6324386519
6324392867
6324402510
6324411360
6324418623
6324426375
6324433089
6324441084
6324448225
6324459212
6324465926
6324474287
6324481489
6324490156
6324497908
6324502485
6324511763
6324521406
6324529219
6324537275
6324544478
6324550520
6324557966
6324565657
6324573774
6324582136
6324590925
6324597822
6324605146
6324612593
6324620161
6324628706
6324637739
6324644819
6324652265
6324659590
6324669416
6324675215
6324682600
6324689253
6324697492
6324707014
6324712812
6324719831
6324727888
6324736005
6324743085
6324751508
6324760725
6324767194
6324775373
6324782453
6324790693
6324797651
6324808149
6324812910
6324823285
6324830610
6324838117
6324845563
6324852094
6324859601
6324866803
6324871808
6324883527
6324892011
6324898969
6324906415
6324912824
6324919843
6324927533
6324934491
6324944013
6324951947
6324959394
6324967145
6324974225
6324982343
6324990643
6324997235
6325006329
6325014386
6325021466
6325029706
6325038678
6325044293
6325052228
6325060651
6325069257
6325077313
6325084332
6325092145
6325100384
6325106488
6325114422
6325122601
6325130963
6325139691
6325146039
6325153424
6325162091
6325167889
6325175457
6325184674
6325194256
6325202252
6325209088
6325216595
6325223553
6325229290
6325237469
6325245953
6325254254
6325260845
6325269207
6325276959
6325284405
6325291973
6325298077
6325306377
6325316021
6325323772
6325329998
6325337322
6325345806
6325350628
6325358379
6325364849
6325374309
6325381634
6325391155
6325398540
6325405620
6325413006
6325420147
6325428203
6325436443
6325444927
6325452434
6325460003
6325466106
6325473674
6325482036
6325488079
6325496257
6325504497
6325510906
6325518474
6325526775
6325533123
6325541667
6325549724
6325559368
6325567485
6325573894
6325581767
6325589946
6325598186
6325604961
6325614482
6325622356
6325630779
6325638225
6325643901
6325652568
6325658366
6325666484
6325674663
6325681743
6325689616
6325697490
6325704936
6325711406
6325719035
6325727092
6325735515
6325742656
6325752116
6325758952
6325766642
6325775615
6325783366
6325789531
6325797770
6325804789
6325812663
6325820170
6325827555
6325836833
6325842753
6325851237
6325857707
6325866923
6325874735
6325880717
6325888285
6325896098
6325903605
6325910990
6325917216
6325926615
6325935282
6325941264
6325951029
6325958659
6325965311
6325973429
6325982523
6325989420
6325997233
6326005533
6326011454
6326018717
6326026590
6326034464
6326043680
6326051249
6326059122
6326066507
6326072245
6326079691
6326087870
6326097269
6326103495
6326112528
6326120584
6326126139
6326135660
6326143534
6326150308
6326158609
6326166788
6326175821
6326183878
6326190653
6326198282
6326208231
6326216470
6326222940
6326231790
6326239786
6326248331
6326255777
6326262735
6326270730
6326278299
6326284524
6326293863
6326302652
6326309121
6326316446
6326323648
6326331460
6326337869
6326346170
6326353860
6326361856
6326369424
6326377603
6326384072
6326391519
6326399026
6326406900
6326414468
6326422647
6326429238
6326436624
6326443887
6326451638
6326458718
6326468118
6326477212
6326483193
6326490884
6326498513
6326505288
6326513955
6326520852
6326528909
6326536599
6326544961
6326553139
6326557778
6326567544
6326572182
6326581826
6326590188
6326598244
6326606057
6326611794
6326619546
6326627419
6326634865
6326641396
6326649270
6326657998
6326664284
6326671975
6326679665
6326687966
6326696266
6326704933
6326714272
6326724587
6326730629
6326739540
6326745278
6326754433
6326759865
6326768044
6326776772
6326783974
6326791725
6326799904
6326807472
6326813637
6326820900
6326827736
6326836098
6326844521
6326852699
6326859413
6326866920
6326875038
6326882301
6326889564
6326898842
6326905678
6326913368
6326922096
6326929725
6326935707
6326943519
6326951332
6326959510
6326966774
6326974891
6326983741
6326991737
6326998695
6327006507
6327012794
6327020668
6327030738
6327036354
6327045570
6327055030
6327062049
6327070777
6327078040
6327087379
6327095069
6327102882
6327110267
6327118568
6327124244
6327132362
6327140968
6327149207
6327157325
6327164222
6327173133
6327180640
6327188270
6327195228
6327199866
6327209815
6327217689
6327224524
6327231116
6327239844
6327246680
6327251746
6327260718
6327271704
6327277259
6327286170
6327292823
6327302222
6327309729
6327315161
6327321631
6327331702
6327339026
6327346045
6327353430
6327360083
6327367468
6327375525
6327383460
6327392615
6327400488
6327408728
6327414404
6327421851
6327429663
6327436316
6327442664
6327455542
6327464148
6327471716
6327477392
6327487158
6327492285
6327501867
6327506994
6327518530
6327523779
6327531469
6327538611
6327546728
6327553259
6327563025
6327568274
6327577612
6327585058
6327593237
6327599768
6327608251
6327615454
6327623632
6327630468
6327640112
6327647131
6327655615
6327663061
6327670019
6327677709
6327684301
6327691015
6327701879
6327707067
6327714941
6327721777
6327729894
6327737218
6327746191
6327752965
6327763952
6327770116
6327777746
6327785192
6327791906
6327798559
6327806371
6327812841
6327824743
6327830236
6327838781
6327846227
6327852697
6327859899
6327868016
6327874425
6327883702
6327891210
6327898656
6327904454
6327911962
6327918614
6327925145
6327931981
6327937169
6327944005
6327950292
6327955724
6327960729
6327968907
6327974950
6327981786
6327987889
6328005589
6328011266
6328017003
6328025243
6328031163
6328037877
6328043309
6328048802
6328054784
6328061986
6328069798
6328075535
6328081700
6328087559
6328093297
6328098973
6328105137
6328112462
6328117589
6328124730
6328131382
6328137303
6328143467
6328150059
6328159703
6328166172
6328171727
6328179051
6328183934
6328190281
6328197300
6328202610
6328207554
6328214268
6328220005
6328226963
6328232517
6328238804
6328245213
6328250828
6328257298
6328262425
6328267491
6328273594
6328280918
6328285313
6328292393
6328297337
6328303257
6328308262
6328314976
6328321506
6328327976
6328333103
6328340366
6328345615
6328352085
6328359897
6328364902
6328372227
6328378086
6328383701
6328390110
6328395725
6328401340
6328408115
6328415317
6328422947
6328429355
6328435154
6328440830
6328447849
6328453891
6328462009
6328469760
6328475437
6328481296
6328488193
6328495395
6328502109
6328509189
6328515232
6328521823
6328529087
6328536899
6328545322
6328551425
6328557468
6328563266
6328570834
6328575473
6328583408
6328591403
6328597751
6328603061
6328610202
6328616367
6328622531
6328627780
6328636447
6328641513
6328650363
6328656100
6328662875
6328668551
6328675509
6328684299
6328691623
6328697970
6328706149
6328712863
6328719027
6328724887
6328731234
6328738559
6328745639
6328751986
6328757907
6328765109
6328770358
6328777011
6328784396
6328792453
6328798190
6328803744
6328809420
6328816378
6328822482
6328829440
6328836764
6328842745
6328850192
6328856173
6328863558
6328870089
6328876498
6328882601
6328889742
6328897372
6328903414
6328910006
6328916537
6328921481
6328928988
6328934603
6328941683
6328948824
6328955111
6328961886
6328968416
6328977755
6328985872
6328992403
6328998629
6329005587
6329012728
6329019320
6329025362
6329032503
6329038424
6329044283
6329051119
6329057528
6329064669
6329070955
6329077974
6329084017
6329090303
6329096773
6329104280
6329111788
6329119112
6329124849
6329131807
6329137789
6329144380
6329150545
6329157198
6329164217
6329169527
6329177339
6329182832
6329190828
6329198885
6329208162
6329213716
6329221651
6329228670
6329236055
6329243318
6329248384
6329255281
6329262361
6329269990
6329276338
6329283601
6329290742
6329296907
6329304414
6329312898
6329320710
6329327058
6329335298
6329342134
6329349092
6329356111
6329363435
6329370454
6329378450
6329385285
6329391572
6329399629
6329407014
6329415864
6329423249
6329431367
6329439057
6329443940
6329450227
6329458894
6329467072
6329473786
6329482331
6329489289
6329495942
6329502839
6329509614
6329517121
6329524873
6329532502
6329539094
6329545869
6329552643
6329559174
6329566376
6329575898
6329584321
6329592255
6329599762
6329607880
6329615448
6329622590
6329629425
6329637848
6329645844
6329653962
6329660920
6329668610
6329675873
6329683075
6329690705
6329697174
6329706208
6329714508
6329720673
6329728607
6329735932
6329743500
6329751373
6329757538
6329765534
6329773468
6329780914
6329788483
6329795807
6329803986
6329810944
6329819733
6329829681
6329834686
6329845306
6329853485
6329860260
6329868805
6329875885
6329887054
6329895111
6329902130
6329909576
6329917267
6329922088
6329932098
6329940094
6329946869
6329954742
6329961639
6329968231
6329976532
6329984405
6329993255
6329998260
6330009918
6330016326
6330025787
6330033904
6330040130
6330047820
6330057098
6330065276
6330073821
6330081817
6330088653
6330096404
6330103912
6330111297
6330118987
6330128631
6330136077
6330144622
6330152190
6330159576
6330165557
6330173064
6330180388
6330188384
6330195403
6330203338
6330211516
6330218902
6330224700
6330232024
6330240996
6330247893
6330257415
6330265105
6330271147
6330280364
6330287261
6330294768
6330300200
6330309111
6330318389
6330323393
6330333281
6330338652
6330348967
6330354033
6330363616
6330371428
6330378935
6330387785
6330392790
6330400664
6330407378
6330416838
6330421538
6330433012
6330441008
6330446684
6330454130
6330462553
6330470610
6330478178
6330484709
6330493986
6330503508
6330510527
6330518705
6330525786
6330533354
6330544157
6330550261
6330560270
6330568937
6330575834
6330585600
6330593656
6330599577
6330606901
6330617582
6330625639
6330632231
6330639738
6330647245
6330654813
6330663603
6330669645
6330679411
6330687406
6330694242
6330701994
6330709623
6330715543
6330723966
6330730192
6330740201
6330746000
6330754301
6330761869
6330768705
6330777372
6330785673
6330792325
6330802335
6330810514
6330818815
6330826566
6330833219
6330840604
6330850125
6330858121
6330864347
6330872464
6330881192
6330887113
6330896268
6330905179
6330913297
6330921170
6330928922
6330936002
6330943631
6330951016
6330956204
6330965054
6330971768
6330982022
6330990201
6330997098
6331004910
6331012295
6331016934
6331025113
6331034085
6331041287
6331047818
6331056241
6331063809
6331071194
6331078335
6331086575
6331094449
6331100857
6331108365
6331118435
6331126309
6331132718
6331139737
6331147183
6331155300
6331163601
6331169583
6331176846
6331184170
6331191189
6331201077
6331207485
6331215786
6331222622
6331231899
6331237942
6331245754
6331252224
6331263393
6331270168
6331278042
6331284512
6331293728
6331301357
6331307827
6331314907
6331322231
6331330349
6331337368
6331346401
6331352260
6331359646
6331367092
6331374660
6331381923
6331390712
6331400112
6331407131
6331415676
6331421291
6331429409
6331436916
6331443508
6331451992
6331459865
6331467739
6331474208
6331482021
6331490322
6331498134
6331504360
6331512355
6331520656
6331529140
6331536952
6331545009
6331552394
6331560573
6331568630
6331577235
6331586513
6331592616
6331600795
6331607082
6331613979
6331621669
6331629726
6331636561
6331646388
6331654079
6331661037
6331668849
6331675136
6331681849
6331691005
6331695521
6331708278
6331713466
6331723353
6331728907
6331738002
6331745387
6331752101
6331760279
6331767848
6331775660
6331781947
6331788356
6331797633
6331804652
6331812098
6331818995
6331829188
6331836939
6331845118
6331852686
6331859644
6331867274
6331874110
6331880518
6331891322
6331899683
6331906153
6331912562
6331921961
6331926722
6331936060
6331944239
6331952112
6331960596
6331967798
6331974390
6331982020
6331989100
6331997950
6332003443
6332013147
6332020411
6332028650
6332035364
6332043360
6332050196
6332057398
6332064051
6332075586
6332084497
6332091211
6332098474
6332107630
6332115137
6332121729
6332130884
6332139490
6332145410
6332154016
6332161524
6332167871
6332175439
6332182520
6332190454
6332199426
6332205835
6332214014
6332221399
6332228479
6332236536
6332242700
6332251428
6332258264
6332266687
6332274072
6332281457
6332288659
6332296960
6332304956
6332314050
6332323327
6332331628
6332339868
6332347375
6332353784
6332361169
6332369470
6332375756
6332386071
6332394433
6332401208
6332406274
6332414208
6332421533
6332429955
6332439111
6332446557
6332455712
6332463464
6332469567
6332477685
6332485741
6332494042
6332503930
6332509789
6332517235
6332524621
6332532921
6332540612
6332547387
6332556054
6332564538
6332572899
6332580773
6332586388
6332593529
6332601220
6332610253
6332616295
6332625390
6332633324
6332641320
6332648827
6332655663
6332663170
6332670739
6332678795
6332686791
6332694725
6332702599
6332708275
6332716698
6332723839
6332731346
6332737816
6332746483
6332754173
6332761986
6332769615
6332776512
6332784142
6332790489
6332800316
6332809044
6332816734
6332823448
6332831200
6332839561
6332845116
6332853111
6332859459
6332868126
6332876182
6332882164
6332889976
6332898948
6332904930
6332911888
6332920128
6332929832
6332937645
6332943199
6332951011
6332958824
6332966270
6332972373
6332979270
6332990379
6332995628
6333005393
6333010826
6333019920
6333027427
6333034385
6333041282
6333050864
6333058128
6333067588
6333075828
6333080100
6333088889
6333099631
6333108237
6333114768
6333122398
6333130759
6333138145
6333146079
6333151816
6333160422
6333168906
6333176902
6333184958
6333191123
6333199180
6333206870
6333214011
6333220481
6333229514
6333237693
6333244101
6333253134
6333259055
6333266440
6333276084
6333285544
6333293601
6333300681
6333308493
6333318503
6333327536
6333338706
6333346640
6333353537
6333362570
6333370383
6333379660
6333387106
6333394003
6333401511
6333409079
6333417258
6333425925
6333432638
6333440573
6333447958
6333454428
6333461874
6333469565
6333478171
6333486471
6333494223
6333500448
6333507589
6333516806
6333524191
6333530294
6333537008
6333548056
6333554892
6333562338
6333569662
6333576132
6333583517
6333591818
6333596578
6333606283
6333614645
6333621664
6333629049
6333636312
6333643514
6333651327
6333656881
6333668600
6333676168
6333683309
6333690877
6333699178
6333706625
6333713399
6333721883
6333731649
6333736898
6333744283
6333751790
6333759847
6333768209
6333775533
6333784017
6333790853
6333800557
6333807332
6333814290
6333820211
6333830098
6333837423
6333848043
6333853841
6333864461
6333872579
6333879720
6333886617
6333894490
6333901082
6333911763
6333919881
6333926656
6333933980
6333940389
6333948506
6333957295
6333963643
6333972737
6333980061
6333987324
6333994527
6334002461
6334008076
6334014790
6334023518
6334032551
6334040486
6334047383
6334055440
6334062642
6334069783
6334077839
6334086506
6334095173
6334103230
6334109394
6334117329
6334124409
6334131916
6334139607
6334147969
6334154682
6334163166
6334170796
6334178730
6334186360
6334193806
6334200093
6334209797
6334216999
6334225239
6334232685
6334240070
6334247822
6334254047
6334262714
6334270649
6334278706
6334284870
6334293415
6334299763
6334307575
6334315388
6334323139
6334332355
6334340473
6334348102
6334355549
6334363361
6334369953
6334377338
6334383747
6334391864
6334401264
6334407184
6334414203
6334422565
6334429889
6334437702
6334444904
6334450031
6334459918
6334468402
6334476154
6334483600
6334490253
6334497821
6334504657
6334511127
6334520465
6334527606
6334535114
6334542133
6334551349
6334558490
6334566303
6334573138
6334583697
6334588763
6334597125
6334606464
6334612506
6334621234
6334629169
6334636737
6334649188
6334654132
6334663470
6334670062
6334677813
6334684894
6334689959
6334699969
6334709979
6334715533
6334725604
6334732562
6334740313
6334746844
6334754168
6334761126
6334770404
6334777850
6334786334
6334794634
6334802020
6334810259
6334818194
6334828509
6334835528
6334843096
6334849139
6334856646
6334863909
6334871478
6334879046
6334887591
6334896197
6334904681
6334911639
6334919207
6334925860
6334933428
6334941668
6334947893
6334956499
6334964312
6334971026
6334978350
6334986223
6334994036
6335002092
6335008623
6335018206
6335026628
6335033770
6335039263
6335048784
6335054033
6335062639
6335070146
6335078997
6335086870
6335094682
6335102251
6335109514
6335117693
6335124590
6335132890
6335141130
6335149431
6335158037
6335163164
6335173235
6335180376
6335187517
6335198198
6335205827
6335211809
6335219255
6335227006
6335234758
6335242082
6335250078
6335260209
6335266557
6335275102
6335282609
6335290483
6335297990
6335306413
6335312944
6335322282
6335330766
6335337968
6335343583
6335352311
6335358171
6335367448
6335374284
6335384965
6335391129
6335400163
6335408402
6335415238
6335423112
6335430131
6335439164
6335446915
6335454850
6335463029
6335470597
6335478226
6335485551
6335491776
6335500748
6335509171
6335517411
6335525284
6335532487
6335539811
6335547318
6335554642
6335563798
6335571427
6335580765
6335587723
6335595047
6335601029
6335608414
6335617752
6335625504
6335633133
6335641129
6335647721
6335655533
6335662003
6335668961
6335677933
6335683365
6335693253
6335700821
6335707657
6335715653
6335722061
6335730484
6335737625
6335749039
6335755936
6335764297
6335771011
6335778519
6335785904
6335793655
6335800308
6335809280
6335816727
6335824173
6335831680
6335838089
6335845291
6335853409
6335862747
6335870681
6335878921
6335885818
6335893325
6335900589
6335908035
6335915542
6335924270
6335933487
6335941177
6335948440
6335956802
6335963394
6335971755
6335978774
6335990127
6335997695
6336005691
6336013198
6336019668
6336028152
6336035232
6336043960
6336052566
6336060500
6336067397
6336075210
6336084243
6336092178
6336099258
6336105300
6336113418
6336121474
6336130507
6336138686
6336144851
6336153029
6336160109
6336172072
6336179458
6336187270
6336193984
6336201308
6336209060
6336216811
6336222609
6336230910
6336240126
6336248671
6336254775
6336264601
6336270583
6336278090
6336286452
6336292677
6336301772
6336310195
6336315871
6336323195
6336330458
6336338393
6336344374
6336353102
6336361708
6336368544
6336377150
6336384474
6336390517
6336398146
6336405653
6336414076
6336423048
6336431227
6336437086
6336444716
6336452040
6336459364
6336467177
6336473890
6336482863
6336488844
6336497450
6336504896
6336511854
6336519789
6336525953
6336534132
6336543348
6336549513
6336556959
6336564955
6336571852
6336578993
6336586927
6336591688
6336603895
6336611585
6336618849
6336626295
6336632764
6336640882
6336648389
6336657178
6336664991
6336673109
6336681226
6336688856
6336695203
6336702833
6336712110
6336720472
6336728284
6336736341
6336742872
6336750440
6336757886
6336765394
6336772596
6336780652
6336790052
6336796277
6336806165
6336813367
6336820996
6336827527
6336837049
6336846875
6336855542
6336863599
6336870252
6336878064
6336883862
6336891553
6336899915
6336908582
6336917432
6336925549
6336932629
6336940686
6336948499
6336956555
6336963025
6336971082
6336979626
6336988415
6336994824
6337002392
6337010266
6337018933
6337026990
6337038952
6337046521
6337055737
6337063550
6337070813
6337078625
6337084485
6337092114
6337103711
6337111645
6337118237
6337125866
6337131726
6337138745
6337146496
6337155590
6337162853
6337171276
6337179394
6337187023
6337192944
6337201061
6337206860
6337214123
6337220104
6337227856
6337233288
6337238476
6337245068
6337250927
6337258068
6337265026
6337271557
6337278515
6337283581
6337289867
6337297008
6337304821
6337311107
6337316662
6337322155
6337327892
6337334362
6337339794
6337346447
6337353405
6337359752
6337367199
6337373058
6337378307
6337385204
6337391369
6337398510
6337404735
6337410472
6337415844
6337422252
6337426769
6337435863
6337441234
6337447582
6337452404
6337458568
6337464061
6337468944
6337477489
6337483287
6337490306
6337494457
6337501842
6337507213
6337513622
6337518749
6337525584
6337530833
6337538585
6337544322
6337549937
6337558604
6337563853
6337569713
6337575450
6337581187
6337587108
6337591624
6337599742
6337605174
6337611278
6337616527
6337622813
6337628306
6337634776
6337641307
6337648814
6337653636
6337660167
6337665721
6337670848
6337676158
6337684581
6337690440
6337695628
6337702098
6337706858
6337714183
6337719737
6337727916
6337732981
6337740550
6337746470
6337752940
6337758738
6337765757
6337774119
6337779551
6337786692
6337793406
6337800181
6337805613
6337812144
6337819651
6337824778
6337831675
6337838755
6337845652
6337851572
6337857005
6337864085
6337872507
6337879038
6337886240
6337891672
6337899790
6337904978
6337912180
6337919260
6337925486
6337931223
6337938425
6337944956
6337950388
6337960947
6337967051
6337972544
6337979685
6337985300
6337991404
6337997263
6338005686
6338011423
6338018503
6338023447
6338030466
6338037607
6338042856
6338049143
6338055429
6338062204
6338069528
6338073557
6338081369
6338086740
6338095102
6338102243
6338110544
6338117075
6338123850
6338129953
6338137094
6338142465
6338150278
6338156259
6338163705
6338169504
6338174875
6338182809
6338189706
6338196725
6338202829
6338208627
6338214609
6338221445
6338227487
6338233224
6338239389
6338247445
6338251535
6338259469
6338266183
6338272165
6338279672
6338286325
6338293039
6338299630
6338305368
6338311044
6338317941
6338324044
6338331308
6338337960
6338344186
6338351083
6338357308
6338363534
6338370492
6338377450
6338385201
6338392098
6338401132
6338407418
6338414315
6338421578
6338428658
6338434762
6338442391
6338450692
6338457955
6338464303
6338471200
6338476937
6338483895
6338495492
6338506844
6338513680
6338521981
6338529244
6338535653
6338542672
6338550301
6338556038
6338564827
6338573250
6338579964
6338588692
6338594918
6338603157
6338610604
6338617195
6338624398
6338633919
6338640999
6338647042
6338655525
6338662728
6338673165
6338680367
6338688484
6338695076
6338702583
6338709847
6338719002
6338725899
6338734749
6338741829
6338750557
6338755562
6338765938
6338773323
6338780952
6338787422
6338795540
6338801948
6338809334
6338815498
6338823738
6338830635
6338838325
6338845222
6338856453
6338864082
6338872139
6338880073
6338886848
6338894600
6338903266
6338914314
6338920478
6338928840
6338935981
6338944526
6338952339
6338958991
6338967292
6338974983
6338983466
6338990241
6338997627
6339005988
6339011665
6339019355
6339027351
6339034492
6339043037
6339049750
6339056281
6339065192
6339072700
6339079475
6339086555
6339096198
6339103889
6339112067
6339118659
6339127265
6339134467
6339142402
6339149115
6339158088
6339165046
6339173529
6339180976
6339189826
6339197516
6339207892
6339215522
6339225653
6339233283
6339240119
6339246833
6339254340
6339261786
6339271002
6339279547
6339287116
6339295233
6339302863
6339307501
6339316534
6339323859
6339332404
6339339484
6339352301
6339357367
6339365485
6339372687
6339382513
6339387213
6339397406
6339406256
6339414252
6339422247
6339429388
6339436957
6339445501
6339450811
6339459356
6339466497
6339476080
6339481817
6339490911
6339495611
6339505072
6339512884
6339518866
6339526373
6339538214
6339546759
6339553228
6339560125
6339570501
6339575201
6339583624
6339591192
6339602789
6339609136
6339616033
6339623602
6339630621
6339638189
6339645879
6339654119
6339662725
6339670415
6339677129
6339684514
6339692083
6339699346
6339706060
6339713140
6339722967
6339728155
6339736821
6339744268
6339750554
6339757207
6339766546
6339777471
6339784978
6339792852
6339801152
6339808660
6339815740
6339824102
6339833013
6339842168
6339850102
6339858281
6339864324
6339872014
6339880315
6339887395
6339893742
6339901616
6339909734
6339918218
6339925481
6339933171
6339940129
6339947697
6339955693
6339964543
6339972905
6339980412
6339988103
6339995732
6340003911
6340011357
6340017399
6340028691
6340033879
6340042302
6340049382
6340057072
6340063542
6340073246
6340078434
6340088566
6340096440
6340105351
6340112370
6340121281
6340128910
6340136112
6340143254
6340151371
6340159184
6340165653
6340172245
6340180424
6340187199
6340194767
6340201847
6340212711
6340220646
6340230045
6340237797
6340245060
6340252628
6340260563
6340268742
6340277470
6340286198
6340294315
6340302616
6340311100
6340319645
6340328983
6340337162
6340344608
6340353336
6340361515
6340367923
6340376407
6340383731
6340394291
6340402347
6340409610
6340416996
6340422855
6340429447
6340443973
6340448917
6340458988
6340467533
6340474918
6340482364
6340489810
6340498111
6340505008
6340513858
6340521487
6340528934
6340537479
6340545169
6340552920
6340560916
6340567569
6340575809
6340584659
6340591495
6340597903
6340605350
6340612430
6340620303
6340629153
6340638186
6340644168
6340653872
6340661197
6340669070
6340675967
6340684939
6340693789
6340700747
6340708377
6340718081
6340725833
6340733035
6340740420
6340747988
6340756777
6340766482
6340772646
6340781374
6340787112
6340795413
6340802920
6340809267
6340817385
6340826174
6340833926
6340840395
6340848452
6340854983
6340862307
6340868777
6340876833
6340885805
6340893496
6340899538
6340907351
6340914370
6340922548
6340931399
6340940249
6340947451
6340955385
6340963442
6340970949
6340977968
6340985414
6340992067
6341003176
6341009401
6341019167
6341026369
6341035524
6341042665
6341052065
6341060671
6341068422
6341078371
6341085390
6341093141
6341099794
6341107668
6341116090
6341121889
6341131837
6341139955
6341147279
6341155397
6341161867
6341169313
6341175844
6341184389
6341193056
6341200868
6341207033
6341213746
6341223146
6341230836
6341237306
6341245302
6341253175
6341261903
6341270265
6341277650
6341285340
6341289918
6341299256
6341304383
6341315919
6341321290
6341330751
6341338258
6341344239
6341350709
6341358949
6341365479
6341376954
6341382142
6341391419
6341399110
6341405518
6341412110
6341420289
6341427186
6341435792
6341443177
6341450745
6341457337
6341465882
6341473084
6341482911
6341489869
6341501404
6341506775
6341516480
6341521790
6341531067
6341537781
6341546692
6341551270
6341562500
6341570191
6341576233
6341582947
6341591675
6341596436
6341605591
6341612183
6341621826
6341628723
6341636963
6341643860
6341648926
6341659485
6341667298
6341674622
6341684021
6341692139
6341700501
6341706482
6341714783
6341722290
6341728333
6341736206
6341745544
6341752319
6341760132
6341767944
6341775207
6341782410
6341790161
6341796631
6341808044
6341815979
6341826172
6341831726
6341842468
6341850341
6341857422
6341867431
6341875854
6341884887
6341892578
6341898559
6341906738
6341913635
6341923217
6341932495
6341939208
6341946960
6341954345
6341961242
6341968932
6341976074
6341985839
6341993102
6342001464
6342008849
6342016235
6342022765
6342030578
6342038634
6342046081
6342055297
6342063354
6342069396
6342077392
6342084594
6342091857
6342099181
6342107116
6342115050
6342123046
6342129577
6342137023
6342145629
6342151976
6342159240
6342167540
6342175292
6342183043
6342191649
6342202208
6342210326
6342219664
6342228087
6342237364
6342245055
6342251036
6342257567
6342267088
6342275023
6342282347
6342287413
6342297789
6342305724
6342312621
6342320128
6342327330
6342335020
6342343504
6342348753
6342358824
6342366698
6342374937
6342382323
6342389158
6342396727
6342403624
6342411863
6342419249
6342427305
6342433958
6342441465
6342449766
6342454588
6342463926
6342468626
6342479673
6342487547
6342494993
6342502439
6342510252
6342517820
6342524473
6342533567
6342540708
6342549070
6342557798
6342565366
6342572508
6342580137
6342588438
6342596372
6342606260
6342615537
6342624876
6342632810
6342639707
6342647459
6342656065
6342664182
6342672849
6342680601
6342687925
6342696714
6342704831
6342716306
6342725278
6342733091
6342740903
6342747251
6342754880
6342761838
6342769529
6342773557
6342782346
6342794309
6342801999
6342809140
6342816098
6342825131
6342829831
6342836850
6342844174
6342856442
6342864377
6342870541
6342876950
6342886044
6342893063
6342900021
6342906003
6342914975
6342921262
6342928525
6342937741
6342942868
6342950375
6342958188
6342966000
6342974057
6342983700
6342988766
6342998105
6343005917
6343013058
6343018124
6343027707
6343037289
6343044491
6343051876
6343059079
6343066342
6343072995
6343080441
6343089535
6343097897
6343105831
6343112301
6343119015
6343126644
6343133480
6343142636
6343151302
6343161312
6343169125
6343176205
6343184017
6343191769
6343199459
6343207760
6343215450
6343224972
6343232662
6343238277
6343245968
6343254208
6343260189
6343269039
6343275326
6343285152
6343291988
6343299801
6343307186
6343314937
6343320614
6343329830
6343337948
6343347225
6343355281
6343362362
6343370113
6343378170
6343384334
6343392025
6343400569
6343409908
6343418148
6343425411
6343430965
6343439998
6343445979
6343453060
6343462581
6343471187
6343479427
6343486507
6343493831
6343501827
6343509334
6343515804
6343523860
6343532161
6343539973
6343547053
6343554378
6343562007
6343569392
6343576594
6343582210
6343592036
6343599727
6343606807
6343614375
6343622310
6343628962
6343637751
6343646418
6343654353
6343661006
6343673030
6343680598
6343688227
6343695857
6343702876
6343712092
6343868647
6343878290
6343885676
6343899042
6343907160
6343917414
6343929194
6343940180
6343952753
6343961725
6343973383
6343983942
6343992670
6344005731
6344013788
6344026728
6344038080
6344046747
6344057062
6344064874
6344075678
6344086054
6344096552
6344110406
6344118402
6344129083
6344140924
6344147211
6344158197
6344170404
6344176202
6344191949
6344202936
6344211114
6344222040
6344230401
6344239679
6344247308
6344259027
6344269281
6344277703
6344288201
6344300042
6344310479
6344318231
6344329278
6344338067
6344345025
6344356988
6344366082
6344377374
6344387444
6344396539
6344404290
6344412530
6344422356
6344433099
6344439507
6344450860
6344462639
6344470940
6344481133
6344488701
6344498406
6344507805
6344514885
6344525628
6344538323
6344547173
6344557976
6344567131
6344578057
6344585015
6344595085
6344603630
6344612847
6344620842
6344631218
6344641777
6344652092
6344659783
6344671013
6344679070
6344688957
6344696648
6344709465
6344719048
6344726128
6344736076
6344746635
6344755913
6344763908
6344773186
6344783012
6344794365
6344803764
6344810356
6344819450
6344830009
6344839531
6344846122
6344856865
6344866264
6344877616
6344887077
6344894096
6344903129
6344914909
6344924247
6344932060
6344943168
6344949272
6344965934
6344972587
6344982414
6344990836
6345000236
6345009147
6345018241
6345026298
6345033256
6345041373
6345049003
6345058890
6345064323
6345075065
6345083304
6345092277
6345100455
6345108512
6345115958
6345124137
6345132438
6345140921
6345148063
6345156302
6345166129
6345174918
6345181571
6345190970
6345197867
6345205130
6345213187
6345225089
6345233450
6345241934
6345248526
6345257620
6345264212
6345272086
6345279593
6345287466
6345295279
6345304312
6345311575
6345319998
6345326224
6345335074
6345341055
6345352225
6345357474
6345366995
6345374380
6345382864
