5276956461
5276966898
5276971293
5276976298
5276981852
5276986979
5276992106
5276996317
5277000284
5277004862
5277008524
5277012552
5277016886
5277020975
5277025614
5277029581
5277033915
5277038126
5277042704
5277047342
5277051676
5277055704
5277060160
5277064798
5277068643
5277072611
5277077616
5277082498
5277087625
5277092386
5277097147
5277102457
5277107889
5277113260
5277119791
5277125406
5277131510
5277138101
5277146097
5277152628
5277158792
5277165140
5277173502
5277181558
5277187967
5277194803
5277202798
5277211038
5277216531
5277223550
5277230936
5277240091
5277246194
5277255105
5277263223
5277271402
5277278726
5277285501
5277294717
5277302224
5277311746
5277326883
5277335489
5277342385
5277348306
5277359231
5277366250
5277375589
5277382058
5277390908
5277397134
5277406045
5277413552
5277419290
5277427712
5277436135
5277444497
5277452004
5277458291
5277466897
5277473122
5277480508
5277489846
5277496438
5277505288
5277512002
5277521828
5277528603
5277535073
5277543557
5277551064
5277560280
5277566567
5277574441
5277581704
5277590065
5277598366
5277604836
5277613198
5277620461
5277626503
5277635415
5277642739
5277652016
5277659157
5277666603
5277676308
5277683449
5277692665
5277700051
5277709816
5277716469
5277725441
5277732399
5277740639
5277749428
5277756691
5277764931
5277772072
5277779152
5277786781
5277796059
5277803932
5277811989
5277820106
5277826210
5277835731
5277842445
5277849830
5277860512
5277869606
5277876381
5277884804
5277890236
5277898719
5277907325
5277915626
5277924232
5277931861
5277939003
5277945472
5277953224
5277963844
5277973365
5277982154
5277988746
5278000160
5278008888
5278019935
5278026405
5278033485
5278042396
5278049842
5278057533
5278066261
5278071998
5278081214
5278089454
5278096351
5278102454
5278111732
5278118079
5278127051
5278134376
5278142310
5278149512
5278156226
5278162513
5278170936
5278177344
5278186683
5278196753
5278202430
5278209693
5278218116
5278226722
5278232581
5278241736
5278249305
5278256995
5278262793
5278270484
5278278174
5278285803
5278293433
5278301428
5278307227
5278316382
5278322058
5278329871
5278337805
5278344641
5278352820
5278360022
5278368323
5278376868
5278383032
5278390295
5278399939
5278406409
5278412634
5278420264
5278429663
5278437048
5278444067
5278451575
5278458594
5278466345
5278473486
5278480322
5278487646
5278496862
5278504309
5278511450
5278517004
5278524084
5278532385
5278537878
5278547461
5278553320
5278562841
5278570593
5278577246
5278584875
5278592810
5278599340
5278608801
5278618200
5278625952
5278633337
5278641210
5278649206
5278657079
5278666174
5278672155
5278682470
5278690527
5278698400
5278704992
5278714269
5278721288
5278730993
5278737829
5278747350
5278754857
5278764562
5278772313
5278777807
5278786962
5278795018
5278801793
5278807470
5278816991
5278822789
5278832311
5278838903
5278845983
5278854161
5278860936
5278869054
5278875890
5278884007
5278890355
5278898900
5278905858
5278912999
5278920445
5278928136
5278935582
5278942723
5278950536
5278959020
5278966100
5278973668
5278980504
5278988621
5278995946
5279002904
5279009984
5279018712
5279026158
5279033543
5279040928
5279048680
5279056920
5279063756
5279071934
5279080357
5279088963
5279097081
5279103978
5279111058
5279117955
5279124974
5279132786
5279140110
5279147190
5279155003
5279163792
5279171482
5279179661
5279188328
5279196385
5279204014
5279211033
5279220066
5279227024
5279234470
5279243015
5279249668
5279258274
5279266026
5279272923
5279278599
5279287022
5279295139
5279302586
5279308262
5279319065
5279326328
5279333103
5279339329
5279345554
5279353428
5279359714
5279366489
5279373020
5279378940
5279384189
5279391636
5279400242
5279408115
5279417087
5279423740
5279431430
5279439853
5279445591
5279455600
5279461704
5279469577
5279474948
5279481296
5279489292
5279495151
5279502353
5279509006
5279515720
5279522861
5279529697
5279535861
5279543002
5279548679
5279555515
5279561435
5279566806
5279574008
5279579501
5279586887
5279594760
5279599826
5279607394
5279612277
5279619968
5279624972
5279631747
5279639071
5279644687
5279652255
5279659274
5279665866
5279672580
5279679294
5279686923
5279695346
5279701999
5279709140
5279717013
5279724337
5279730075
5279738742
5279747042
5279755160
5279765597
5279771823
5279779391
5279786898
5279794589
5279804049
5279809969
5279818636
5279826388
5279834200
5279839632
5279847140
5279854830
5279863619
5279868990
5279877352
5279884737
5279892062
5279899508
5279906710
5279914278
5279920626
5279927096
5279935763
5279942354
5279949190
5279957674
5279965548
5279972506
5279980135
5279985994
5279994539
5280000582
5280009127
5280014864
5280022921
5280030916
5280039583
5280045504
5280053438
5280061006
5280069246
5280075533
5280084810
5280091097
5280099275
5280111727
5280119539
5280126985
5280137056
5280143526
5280151277
5280157991
5280166292
5280172578
5280179597
5280188264
5280194368
5280202913
5280209077
5280217073
5280223909
5280231721
5280239473
5280245454
5280252900
5280261262
5280266877
5280274995
5280282380
5280290193
5280297639
5280303926
5280310823
5280320100
5280327424
5280333467
5280340119
5280349214
5280355683
5280363557
5280370027
5280376924
5280385407
5280392243
5280398286
5280406526
5280414216
5280422212
5280430146
5280435578
5280443696
5280449128
5280459870
5280465424
5280473664
5280481477
5280489777
5280495759
5280505036
5280510285
5280520417
5280529206
5280536530
5280545014
5280552155
5280558808
5280566010
5280571991
5280580414
5280590180
5280598359
5280604950
5280611420
5280619233
5280626984
5280633454
5280643463
5280649933
5280659699
5280666168
5280674469
5280681671
5280689667
5280696686
5280704132
5280713837
5280722015
5280729706
5280739105
5280746857
5280753204
5280761688
5280768280
5280776642
5280785248
5280791534
5280801483
5280807770
5280817291
5280822357
5280831573
5280838775
5280847687
5280854950
5280864044
5280876739
5280885589
5280892425
5280900238
5280908905
5280918243
5280926727
5280934661
5280942169
5280948944
5280956634
5280965118
5280969818
5280979095
5280986724
5280996307
5281000945
5281009796
5281016815
5281025726
5281032378
5281040435
5281047027
5281055083
5281061126
5281070159
5281076141
5281084075
5281091949
5281099700
5281105865
5281113921
5281122588
5281128387
5281137542
5281145598
5281152312
5281159820
5281166411
5281173552
5281182280
5281189727
5281198577
5281205901
5281214446
5281221099
5281227080
5281237456
5281246611
5281253020
5281262664
5281269255
5281277617
5281285002
5281293242
5281300749
5281308074
5281318205
5281325346
5281335906
5281343779
5281355681
5281362273
5281370940
5281380217
5281388151
5281396147
5281402922
5281409575
5281416899
5281425444
5281431975
5281438627
5281447477
5281456755
5281462431
5281470244
5281475920
5281483671
5281491301
5281498198
5281507780
5281515715
5281523283
5281531034
5281535673
5281544889
5281551420
5281558866
5281566191
5281574552
5281581022
5281589079
5281595182
5281603239
5281611051
5281616728
5281625211
5281631010
5281642362
5281649870
5281656705
5281661466
5281673673
5281679655
5281689359
5281700895
5281709501
5281722135
5281729093
5281740018
5281744779
5281753934
5281761258
5281768400
5281775724
5281782926
5281790433
5281798673
5281804532
5281813504
5281819303
5281828275
5281833890
5281842679
5281848661
5281857816
5281864041
5281874417
5281880582
5281889920
5281897672
5281903836
5281912015
5281920316
5281927396
5281933926
5281945340
5281951749
5281961392
5281968533
5281977505
5281984158
5281993375
5282002164
5282011319
5282019314
5282025906
5282033108
5282042386
5282050992
5282059781
5282067166
5282075650
5282083096
5282089627
5282094998
5282106472
5282112515
5282122586
5282132656
5282140896
5282147915
5282158352
5282164334
5282174343
5282180386
5282188687
5282197170
5282206814
5282212063
5282222378
5282227505
5282237637
5282244961
5282253017
5282259975
5282269985
5282277370
5282285488
5282292080
5282301052
5282307339
5282316921
5282326748
5282334560
5282341823
5282349819
5282356655
5282364956
5282371975
5282381191
5282388698
5282397426
5282404567
5282413539
5282419826
5282428554
5282434841
5282440700
5282453517
5282465602
5282472133
5282481105
5282490016
5282498622
5282506496
5282514736
5282522365
5282530849
5282538051
5282547084
5282553798
5282560939
5282569667
5282577174
5282583156
5282591762
5282600490
5282607326
5282613368
5282621486
5282629481
5282635402
5282644618
5282652308
5282659999
5282666591
5282675563
5282683375
5282689906
5282697657
5282704921
5282711634
5282719081
5282727381
5282737208
5282742152
5282752223
5282758937
5282765895
5282771937
5282780604
5282789637
5282795802
5282804408
5282812830
5282819361
5282827479
5282836085
5282842127
5282852991
5282859034
5282866968
5282875208
5282883997
5282889124
5282899439
5282907496
5282916407
5282923609
5282932215
5282939478
5282946497
5282957544
5282963892
5282972925
5282981348
5282989161
5282994837
5283002954
5283011560
5283020838
5283030237
5283038721
5283047083
5283055078
5283062647
5283069605
5283077417
5283084314
5283091089
5283098901
5283105554
5283114404
5283121057
5283128870
5283137537
5283143762
5283152185
5283158350
5283167627
5283174402
5283183435
5283189416
5283197412
5283203027
5283211938
5283217370
5283224756
5283233301
5283242639
5283248132
5283256189
5283263696
5283273034
5283283227
5283290490
5283303735
5283311425
5283320947
5283330163
5283338891
5283347070
5283353112
5283362634
5283368554
5283374230
5283384362
5283390099
5283399194
5283404809
5283413842
5283422448
5283430383
5283438012
5283446130
5283451867
5283460839
5283468652
5283474572
5283482629
5283491662
5283496483
5283505700
5283512353
5283521264
5283525963
5283535424
5283542260
5283551171
5283557763
5283565331
5283571251
5283579491
5283585534
5283593651
5283601769
5283608178
5283618248
5283626854
5283633568
5283641869
5283649193
5283657250
5283664513
5283672020
5283680382
5283687645
5283696556
5283703087
5283711266
5283719872
5283726219
5283734947
5283745628
5283755150
5283763451
5283770164
5283776146
5283785667
5283791832
5283801414
5283806663
5283818138
5283826317
5283833702
5283841270
5283849327
5283857261
5283865257
5283871421
5283881553
5283889549
5283895897
5283903831
5283912132
5283920249
5283926536
5283935325
5283943687
5283951683
5283960777
5283966392
5283975181
5283980674
5283989341
5283998069
5284006370
5284015403
5284021751
5284030540
5284036643
5284044517
5284053245
5284062949
5284073020
5284080222
5284087180
5284096519
5284105918
5284115134
5284121421
5284130515
5284138633
5284146567
5284155600
5284161094
5284170066
5284177634
5284185080
5284193015
5284200339
5284207846
5284215476
5284220114
5284230185
5284237021
5284244467
5284251914
5284261191
5284267844
5284275168
5284283896
5284290976
5284296958
5284305686
5284311667
5284320578
5284327292
5284336142
5284344870
5284351096
5284361105
5284367148
5284377157
5284385519
5284394858
5284400473
5284409445
5284414145
5284424093
5284431662
5284437643
5284444845
5284452902
5284459555
5284469626
5284476950
5284485739
5284492514
5284501852
5284508566
5284517477
5284526327
5284532431
5284540609
5284549826
5284558126
5284566305
5284573324
5284580099
5284589193
5284597006
5284603719
5284610922
5284618978
5284628317
5284636556
5284643331
5284653585
5284660177
5284669210
5284675802
5284684896
5284691488
5284699727
5284707418
5284715902
5284726278
5284731344
5284740987
5284748250
5284756795
5284763997
5284773092
5284780538
5284789083
5284795491
5284805379
5284811971
5284820577
5284826985
5284835347
5284842855
5284850972
5284859456
5284867635
5284875691
5284880757
5284889668
5284896687
5284907857
5284914632
5284925191
5284932881
5284940022
5284956013
5284964192
5284970235
5284979329
5284987569
5284993977
5285000874
5285009846
5285017354
5285023457
5285030049
5285039143
5285049092
5285055684
5285062458
5285071919
5285076863
5285086079
5285092732
5285101094
5285107685
5285114216
5285122456
5285128437
5285135762
5285142597
5285148030
5285152241
5285162495
5285168476
5285178486
5285183796
5285191975
5285196980
5285205830
5285212666
5285219624
5285228107
5285236103
5285241352
5285248737
5285255573
5285262348
5285268330
5285275837
5285283100
5285293293
5285301411
5285308368
5285315571
5285324726
5285332050
5285342487
5285355549
5285364521
5285373249
5285380634
5285387836
5285395526
5285402790
5285409137
5285416950
5285425800
5285433002
5285440692
5285446369
5285455036
5285463947
5285470600
5285480548
5285486774
5285495136
5285501300
5285511920
5285518085
5285526141
5285536212
5285544330
5285551593
5285559405
5285565814
5285574176
5285583148
5285589801
5285599261
5285606952
5285613788
5285622210
5285629291
5285638751
5285645465
5285653521
5285661822
5285674395
5285680865
5285690997
5285697467
5285707965
5285717059
5285724627
5285733782
5285743060
5285751299
5285758807
5285766375
5285773211
5285779986
5285787188
5285797320
5285803729
5285810564
5285819476
5285825640
5285833453
5285839739
5285847063
5285854021
5285860125
5285867449
5285873858
5285881365
5285886370
5285894732
5285899798
5285907427
5285914812
5285922869
5285927202
5285935930
5285942827
5285950640
5285958269
5285966387
5285974688
5285982683
5285987932
5285996233
5286001299
5286009050
5286016191
5286023455
5286032183
5286039690
5286046221
5286054155
5286060869
5286070390
5286076921
5286083696
5286093034
5286100847
5286108232
5286119829
5286128374
5286137407
5286142595
5286153215
5286161027
5286168046
5286176225
5286183366
5286190874
5286198015
5286204667
5286214006
5286219072
5286229143
5286235978
5286242570
5286251115
5286257463
5286266191
5286274064
5286280839
5286289628
5286296037
5286305070
5286313981
5286322282
5286328813
5286337052
5286344926
5286353227
5286360368
5286367509
5286375871
5286383073
5286391984
5286398393
5286408402
5286415116
5286425248
5286431718
5286441117
5286447892
5286456071
5286464493
5286473893
5286481339
5286494279
5286500748
5286511490
5286518143
5286527237
5286535965
5286542008
5286550980
5286559403
5286565384
5286572953
5286581620
5286587662
5286596268
5286603958
5286611344
5286618912
5286625565
5286632218
5286640702
5286647476
5286655716
5286662247
5286670059
5286679276
5286686844
5286693619
5286701370
5286707413
5286716812
5286722855
5286730850
5286739273
5286745254
5286753921
5286762161
5286768326
5286776260
5286782913
5286790665
5286798721
5286806595
5286814590
5286822342
5286829422
5286836868
5286844986
5286852310
5286859878
5286869766
5286877884
5286884597
5286893386
5286902114
5286908340
5286917434
5286923538
5286933425
5286945693
5286953445
5286960891
5286967117
5286976028
5286982559
5286991836
5287000686
5287007217
5287016677
5287022720
5287030715
5287039138
5287047195
5287054397
5287063369
5287070876
5287078567
5287087844
5287094192
5287103530
5287110000
5287118667
5287124892
5287135756
5287145278
5287151992
5287157973
5287168593
5287174269
5287184340
5287190505
5287200026
5287206557
5287216872
5287223159
5287230849
5287238783
5287247084
5287255629
5287261977
5287271315
5287280653
5287290785
5287297316
5287306471
5287314406
5287322829
5287332655
5287344374
5287352919
5287361220
5287367934
5287375990
5287384779
5287391737
5287398634
5287406569
5287412489
5287421278
5287427504
5287435560
5287443495
5287451857
5287461500
5287469130
5287475233
5287484205
5287490370
5287498915
5287504896
5287512586
5287521253
5287526930
5287535841
5287543531
5287550062
5287556715
5287564588
5287571180
5287580213
5287586988
5287595472
5287602308
5287610426
5287616346
5287624891
5287633619
5287641126
5287647840
5287657423
5287666028
5287672803
5287681653
5287687879
5287696851
5287705152
5287711683
5287719800
5287728528
5287737928
5287745984
5287753247
5287761609
5287768323
5287776868
5287785108
5287793531
5287801770
5287807630
5287817761
5287823865
5287832593
5287841016
5287846936
5287857434
5287865247
5287873425
5287880628
5287888135
5287896558
5287903027
5287912732
5287919446
5287925671
5287935986
5287942273
5287951977
5287960339
5287967908
5287976330
5287983655
5287990857
5287999524
5288006909
5288014416
5288021191
5288027173
5288037610
5288046399
5288055249
5288061657
5288069653
5288078137
5288085705
5288094128
5288100964
5288108715
5288118298
5288126477
5288136669
5288145031
5288157665
5288166515
5288175915
5288182873
5288190380
5288198803
5288208630
5288214184
5288223705
5288229870
5288238964
5288244823
5288253612
5288261974
5288269176
5288276745
5288283825
5288290539
5288297863
5288304699
5288314220
5288321544
5288330028
5288336925
5288344616
5288353222
5288358776
5288366954
5288374767
5288380809
5288389354
5288397289
5288405773
5288412303
5288420665
5288429393
5288434825
5288444835
5288453014
5288460094
5288467479
5288475963
5288483287
5288492320
5288499645
5288505687
5288516002
5288525706
5288532054
5288538402
5288547496
5288555919
5288563548
5288572093
5288579600
5288593028
5288599681
5288609446
5288615550
5288624278
5288630748
5288640025
5288646556
5288655040
5288662303
5288669505
5288677867
5288685191
5288694041
5288700511
5288709788
5288719493
5288726817
5288733470
5288744212
5288750681
5288759470
5288766123
5288775095
5288781748
5288790171
5288798228
5288806773
5288814585
5288821543
5288829722
5288836253
5288842478
5288850291
5288857126
5288863047
5288870920
5288876719
5288883188
5288888987
5288896250
5288901804
5288909250
5288914683
5288922312
5288928476
5288936899
5288943613
5288950998
5288958200
5288968027
5288974985
5288980478
5288987925
5288994028
5289000986
5289007151
5289013986
5289020090
5289025400
5289031503
5289037912
5289043955
5289051279
5289057626
5289063303
5289068796
5289074594
5289078745
5289086008
5289093027
5289097665
5289104745
5289111032
5289116159
5289122446
5289128549
5289133432
5289138986
5289145639
5289151987
5289156747
5289163522
5289169015
5289174631
5289181589
5289186960
5289193002
5289199472
5289205148
5289211129
5289217965
5289222543
5289228891
5289235116
5289243051
5289248544
5289254525
5289260080
5289267709
5289273507
5289279672
5289285592
5289291696
5289296456
5289304147
5289308480
5289316049
5289322640
5289329293
5289335702
5289340768
5289347543
5289352670
5289359200
5289365731
5289371407
5289378976
5289385140
5289390939
5289396920
5289402535
5289409615
5289415292
5289422433
5289430978
5289437081
5289443978
5289448617
5289455575
5289463570
5289468636
5289477059
5289482003
5289490059
5289495492
5289503548
5289510567
5289517281
5289523934
5289531563
5289542611
5289549508
5289555916
5289563118
5289570565
5289576912
5289583321
5289589608
5289597481
5289602181
5289610787
5289615547
5289623665
5289630074
5289636788
5289643196
5289649971
5289656624
5289663765
5289670662
5289675667
5289683174
5289690254
5289696907
5289702461
5289709297
5289714241
5289722359
5289728828
5289736397
5289741890
5289749946
5289755440
5289761970
5289769783
5289774727
5289785103
5289789924
5289797310
5289804390
5289810737
5289815681
5289823433
5289830574
5289836006
5289842964
5289848640
5289855720
5289861946
5289869026
5289874641
5289881660
5289888618
5289894355
5289902168
5289907966
5289915534
5289921943
5289928657
5289937019
5289943549
5289948066
5289955940
5289960700
5289968513
5289974860
5289982978
5289987983
5289995368
5290002876
5290007941
5290014472
5290021735
5290028815
5290036201
5290043830
5290050971
5290057502
5290065009
5290071479
5290079047
5290085212
5290091865
5290100593
5290109076
5290114142
5290120856
5290127814
5290134711
5290141974
5290149115
5290156134
5290164618
5290170722
5290178839
5290187140
5290195563
5290204657
5290214789
5290222174
5290230536
5290236395
5290245734
5290252875
5290260748
5290267889
5290274970
5290282233
5290287787
5290294806
5290302557
5290309454
5290315924
5290323004
5290331061
5290338019
5290344794
5290351691
5290357611
5290363653
5290371954
5290379706
5290388128
5290394964
5290402716
5290407843
5290416327
5290423895
5290431891
5290439337
5290446173
5290453802
5290461004
5290468695
5290477179
5290482122
5290491522
5290498419
5290505987
5290512701
5290520819
5290529669
5290535772
5290544378
5290551458
5290557684
5290567449
5290573797
5290579534
5290588812
5290594366
5290604925
5290610967
5290619390
5290627691
5290636175
5290643743
5290649969
5290657720
5290664739
5290671453
5290679937
5290686712
5290694951
5290701848
5290710637
5290717351
5290723943
5290732854
5290739385
5290747686
5290756597
5290762578
5290771978
5290777898
5290786199
5290794316
5290799871
5290808721
5290817449
5290823430
5290831120
5290839787
5290845647
5290853154
5290860417
5290870244
5290878728
5290885136
5290892522
5290900945
5290907841
5290916936
5290925664
5290935002
5290941716
5290950566
5290959599
5290965886
5290976628
5290985661
5290992192
5291001042
5291009221
5291019047
5291025151
5291033757
5291039921
5291047551
5291054264
5291062016
5291070927
5291078923
5291084904
5291091618
5291101017
5291108647
5291114811
5291121647
5291129215
5291137943
5291145207
5291151981
5291159733
5291165958
5291175724
5291181706
5291189335
5291197330
5291203129
5291212040
5291217777
5291226749
5291232548
5291242130
5291250553
5291258732
5291266910
5291273685
5291281070
5291290470
5291297794
5291304691
5291311405
5291320926
5291327701
5291337101
5291345768
5291351932
5291361148
5291369388
5291377140
5291385318
5291393253
5291402896
5291412540
5291418521
5291427738
5291434940
5291444034
5291451236
5291459476
5291465946
5291476566
5291482852
5291492374
5291498904
5291504947
5291514285
5291522769
5291530643
5291538699
5291545901
5291553042
5291563174
5291570376
5291573672
5291586612
5291593265
5291602237
5291610904
5291617373
5291626956
5291635623
5291641726
5291649905
5291658206
5291666262
5291675479
5291683230
5291691470
5291698916
5291706423
5291714175
5291720767
5291726687
5291738101
5291746829
5291753603
5291764529
5291771365
5291780825
5291787783
5291797182
5291805727
5291817873
5291824343
5291834414
5291840700
5291848452
5291856508
5291865114
5291871340
5291881777
5291888003
5291896181
5291902163
5291907656
5291917788
5291923647
5291932619
5291940371
5291947268
5291954958
5291962282
5291968935
5291978334
5291985964
5291993105
5292000246
5292008119
5292015322
5292023805
5292030519
5292045107
5292052492
5292059816
5292066408
5292075685
5292084291
5292091676
5292100404
5292106508
5292115846
5292120912
5292130739
5292139711
5292148988
5292157289
5292164491
5292171693
5292180787
5292188051
5292196290
5292203370
5292212404
5292218934
5292228639
5292235170
5292241517
5292252992
5292259889
5292268983
5292277650
5292284913
5292292054
5292300294
5292307679
5292316285
5292322694
5292328736
5292340150
5292346436
5292354981
5292363160
5292371522
5292379823
5292387025
5292395264
5292403260
5292410645
5292418030
5292427430
5292433594
5292443116
5292449952
5292456666
5292465943
5292475281
5292484681
5292491272
5292497315
5292508118
5292514466
5292523316
5292531678
5292538453
5292548951
5292556824
5292562073
5292570618
5292580200
5292588135
5292594788
5292603394
5292610352
5292620789
5292630371
5292638184
5292648438
5292655090
5292664795
5292670960
5292680176
5292687927
5292696106
5292703735
5292710632
5292718384
5292724426
5292731323
5292740295
5292748291
5292758423
5292766052
5292772033
5292778808
5292786743
5292795593
5292802307
5292810974
5292818847
5292824951
5292833252
5292839233
5292847351
5292855407
5292863708
5292869812
5292877380
5292886230
5292892089
5292901000
5292909423
5292917297
5292922363
5292933166
5292940734
5292948852
5292956115
5292964660
5292971252
5292979552
5292988403
5292994445
5293004028
5293013122
5293021911
5293028075
5293037475
5293045714
5293052245
5293059752
5293068053
5293075622
5293087523
5293096251
5293104491
5293113524
5293121703
5293126891
5293136718
5293144225
5293152220
5293158812
5293169249
5293175963
5293184630
5293191161
5293199401
5293206420
5293215392
5293223937
5293232115
5293239073
5293246275
5293255614
5293262938
5293271666
5293281248
5293289061
5293296263
5293304869
5293311522
5293320372
5293326964
5293336302
5293343016
5293351317
5293360777
5293367003
5293376036
5293384398
5293391356
5293398619
5293407103
5293414549
5293422544
5293429075
5293438169
5293448484
5293458372
5293465086
5293475279
5293484922
5293491575
5293503599
5293512327
5293519163
5293526975
5293533140
5293538755
5293551206
5293558225
5293564329
5293573911
5293580015
5293588682
5293594907
5293602659
5293612119
5293618040
5293627134
5293632810
5293643064
5293648740
5293658018
5293663572
5293672300
5293679868
5293686887
5293693662
5293701047
5293707700
5293716733
5293723569
5293732114
5293738767
5293748044
5293754636
5293761411
5293770749
5293778867
5293785337
5293794370
5293801206
5293809934
5293818845
5293824033
5293833432
5293840817
5293849789
5293857053
5293864377
5293875180
5293883237
5293889828
5293899289
5293905759
5293914914
5293922299
5293927792
5293939816
5293945859
5293955502
5293960690
5293969235
5293976437
5293985348
5293991940
5294000790
5294010495
5294018795
5294025326
5294031369
5294041623
5294047970
5294057980
5294063107
5294073300
5294081661
5294090389
5294098751
5294106075
5294113583
5294122128
5294129513
5294137508
5294144528
5294154476
5294161068
5294167171
5294178341
5294184383
5294192806
5294201168
5294209103
5294217342
5294224483
5294232540
5294241878
5294249080
5294256710
5294263424
5294271847
5294281612
5294291927
5294298519
5294305538
5294315975
5294324825
5294332759
5294341793
5294349361
5294357601
5294363887
5294370601
5294379085
5294385738
5294394527
5294401241
5294408748
5294417598
5294425655
5294431636
5294441524
5294449214
5294460445
5294466975
5294475215
5294483394
5294489253
5294498653
5294504268
5294512752
5294520381
5294527705
5294535335
5294542110
5294548945
5294558711
5294566340
5294572139
5294579402
5294588740
5294596125
5294605098
5294615657
5294623713
5294630793
5294637446
5294646174
5294655085
5294661494
5294670527
5294677058
5294685481
5294692988
5294701350
5294708979
5294716303
5294724360
5294731623
5294739680
5294746333
5294755549
5294765131
5294773127
5294782038
5294788020
5294796748
5294805170
5294812434
5294819636
5294829401
5294836603
5294844355
5294851557
5294859858
5294866388
5294875361
5294884150
5294890436
5294898615
5294906977
5294914667
5294923029
5294930170
5294937799
5294947809
5294955500
5294965265
5294972650
5294981256
5294988397
5294996515
5295002985
5295012201
5295018732
5295027338
5295036005
5295042047
5295051325
5295059686
5295066339
5295073602
5295081232
5295090692
5295098810
5295105951
5295113580
5295120965
5295129816
5295139276
5295146112
5295156793
5295169732
5295176935
5295185113
5295192559
5295200555
5295209344
5295214776
5295223870
5295230951
5295239556
5295245294
5295253472
5295261041
5295269036
5295274835
5295283746
5295289300
5295298028
5295305596
5295312615
5295320428
5295327447
5295334100
5295343133
5295351312
5295359185
5295366936
5295373956
5295383416
5295389642
5295398919
5295405816
5295414910
5295424309
5295430840
5295439507
5295446221
5295454522
5295461907
5295470147
5295477837
5295485466
5295493828
5295501030
5295509331
5295515984
5295525322
5295531792
5295540337
5295549187
5295557976
5295566765
5295572991
5295582268
5295588371
5295599724
5295606438
5295615593
5295623955
5295631584
5295639763
5295647759
5295654900
5295664116
5295671318
5295678764
5295688835
5295695122
5295704521
5295712456
5295718864
5295724907
5295735161
5295741203
5295751091
5295759269
5295767814
5295773185
5295782036
5295789482
5295797844
5295804496
5295813591
5295820366
5295830558
5295836967
5295842948
5295854179
5295860282
5295868400
5295876701
5295884513
5295893302
5295901969
5295910392
5295916679
5295923637
5295934135
5295939018
5295950431
5295962638
5295969230
5295979789
5295986625
5295995292
5296004508
5296010856
5296020377
5296029166
5296037772
5296045707
5296052176
5296059928
5296068412
5296073356
5296082450
5296089164
5296097953
5296104544
5296111625
5296120353
5296127982
5296134696
5296141532
5296150626
5296157950
5296163809
5296172660
5296182059
5296190177
5296196951
5296206168
5296213126
5296222952
5296229422
5296238760
5296245230
5296253592
5296261771
5296270499
5296277457
5296286002
5296295401
5296301871
5296309256
5296315237
5296323782
5296329703
5296338247
5296345083
5296353567
5296362295
5296367788
5296376516
5296382254
5296390738
5296398184
5296403799
5296414053
5296421988
5296433523
5296439505
5296447561
5296453604
5296460989
5296470327
5296476248
5296485464
5296491140
5296500540
5296505056
5296513357
5296520071
5296527273
5296537893
5296545461
5296552053
5296558218
5296566885
5296572988
5296578970
5296587636
5296595998
5296601919
5296611196
5296616933
5296626150
5296631704
5296639638
5296647207
5296655691
5296661062
5296670644
5296677724
5296686208
5296692739
5296702077
5296708730
5296716726
5296725148
5296733754
5296738637
5296749013
5296755422
5296765737
5296774404
5296783681
5296792958
5296804982
5296815358
5296823354
5296830800
5296837941
5296847340
5296854848
5296861623
5296870778
5296877553
5296886342
5296894093
5296900502
5296908986
5296915944
5296924733
5296931691
5296940053
5296946766
5296952992
5296961354
5296968739
5296975392
5296985280
5296990345
5297001942
5297009755
5297015675
5297023915
5297033497
5297042408
5297051014
5297058094
5297066883
5297073170
5297081654
5297089771
5297098622
5297103993
5297114674
5297119679
5297129871
5297137318
5297144947
5297151600
5297160511
5297167408
5297176441
5297184925
5297190967
5297200672
5297205860
5297215687
5297223926
5297233082
5297240406
5297249622
5297257251
5297267200
5297274646
5297283252
5297290577
5297299244
5297306690
5297316333
5297322803
5297328784
5297339099
5297345081
5297354236
5297362354
5297370716
5297378833
5297386951
5297395313
5297403491
5297408496
5297417590
5297426990
5297433704
5297443164
5297450000
5297459399
5297467578
5297474048
5297480579
5297490893
5297497180
5297506824
5297516284
5297522693
5297531116
5297538867
5297546679
5297553698
5297561633
5297568713
5297577929
5297586108
5297594104
5297603625
5297611621
5297620410
5297627917
5297638781
5297646166
5297654467
5297662402
5297669604
5297677538
5297683154
5297692492
5297698351
5297708117
5297713793
5297722399
5297727038
5297738146
5297743700
5297752795
5297760363
5297766711
5297775256
5297782885
5297790026
5297799792
5297806994
5297813891
5297823168
5297829271
5297838000
5297846361
5297855578
5297862047
5297870653
5297879503
5297885973
5297894274
5297903063
5297911547
5297918566
5297925951
5297934313
5297941454
5297950975
5297958361
5297966966
5297973619
5297979662
5297990587
5297996752
5298005724
5298014147
5298020799
5298028978
5298037218
5298046678
5298054369
5298062059
5298070970
5298078294
5298088182
5298095506
5298102342
5298112169
5298118638
5298128099
5298136094
5298142564
5298148607
5298158983
5298165147
5298173631
5298181993
5298189073
5298196641
5298204698
5298211900
5298221604
5298228868
5298237779
5298245652
5298253099
5298261643
5298268601
5298274583
5298282701
5298290757
5298296678
5298305039
5298314195
5298320603
5298325425
5298335069
5298342820
5298351365
5298356126
5298367356
5298373276
5298384934
5298390549
5298398728
5298407151
5298415207
5298422165
5298431443
5298441208
5298448166
5298455796
5298463913
5298471299
5298479905
5298487534
5298494858
5298502549
5298509873
5298515488
5298524094
5298531723
5298539231
5298544663
5298553208
5298561691
5298568405
5298576279
5298583542
5298588791
5298597641
5298602951
5298612228
5298620895
5298627304
5298632187
5298641586
5298649155
5298656418
5298663010
5298669357
5298679428
5298685165
5298690292
5298699936
5298705246
5298713913
5298719040
5298727890
5298733322
5298742660
5298750229
5298757492
5298765060
5298772140
5298779709
5298785385
5298796127
5298803695
5298810409
5298818161
5298824142
5298833724
5298839889
5298848800
5298856002
5298866073
5298871871
5298878463
5298883468
5298890426
5298896774
5298901229
5298909957
5298916488
5298921981
5298928024
5298934249
5298939742
5298944625
5298951156
5298958724
5298964767
5298970321
5298975875
5298981368
5298987228
5298992782
5299000838
5299007552
5299013839
5299019820
5299024398
5299032271
5299036910
5299043624
5299049117
5299057113
5299063643
5299069686
5299074508
5299080367
5299085189
5299092147
5299102950
5299109725
5299116378
5299124129
5299131453
5299136092
5299143416
5299150191
5299156844
5299163130
5299168563
5299175093
5299180647
5299186873
5299193648
5299198775
5299205428
5299210005
5299216536
5299221419
5299227217
5299234785
5299239790
5299246016
5299253035
5299258345
5299262556
5299269392
5299276472
5299282881
5299288618
5299294050
5299299422
5299304854
5299311690
5299317976
5299324690
5299331221
5299338484
5299345930
5299352766
5299360029
5299365645
5299371687
5299377913
5299384138
5299390303
5299396589
5299403608
5299410566
5299417768
5299424116
5299430220
5299437544
5299444929
5299451094
5299457685
5299462019
5299470747
5299478376
5299483991
5299490705
5299497419
5299504011
5299512067
5299517805
5299538007
5299544782
5299551496
5299559187
5299564985
5299572248
5299580976
5299586835
5299594343
5299600080
5299608015
5299614545
5299621503
5299629316
5299634809
5299642316
5299649762
5299657575
5299665082
5299671430
5299681867
5299688703
5299696027
5299703412
5299710553
5299716535
5299722211
5299729352
5299734967
5299742536
5299748944
5299755292
5299763898
5299770123
5299777814
5299784406
5299791791
5299797467
5299803204
5299812238
5299816998
5299824506
5299831708
5299838544
5299845929
5299852521
5299860577
5299868207
5299875409
5299881573
5299889020
5299894147
5299901898
5299910016
5299915875
5299923565
5299930279
5299936688
5299943158
5299951825
5299958294
5299965558
5299973858
5299980633
5299985455
5299994915
5300001812
5300008221
5300015423
5300023236
5300029339
5300037335
5300043194
5300050335
5300057293
5300064373
5300071697
5300078716
5300084759
5300092877
5300101666
5300106609
5300114422
5300121624
5300127728
5300134075
5300140972
5300151714
5300157207
5300166973
5300173321
5300182049
5300189983
5300197429
5300206219
5300213299
5300221660
5300229717
5300236126
5300242290
5300251201
5300259380
5300269268
5300281353
5300288005
5300296062
5300302288
5300310649
5300318340
5300327983
5300334819
5300341960
5300348735
5300355998
5300363017
5300368877
5300378032
5300384807
5300391704
5300397929
5300404887
5300412090
5300419109
5300426677
5300434428
5300441508
5300448161
5300456462
5300463176
5300470073
5300478862
5300486857
5300493754
5300502055
5300507915
5300516948
5300522929
5300531047
5300538981
5300546489
5300554606
5300564494
5300571391
5300579325
5300585307
5300591105
5300601420
5300607096
5300615092
5300622904
5300630900
5300636637
5300646464
5300652140
5300660807
5300668376
5300674540
5300681498
5300690531
5300697062
5300706767
5300714030
5300721171
5300729960
5300735880
5300745402
5300753702
5300760538
5300767741
5300776469
5300782267
5300790262
5300798258
5300804789
5300813883
5300820048
5300827616
5300836832
5300842447
5300850321
5300858072
5300865580
5300872965
5300881449
5300888834
5300897196
5300906473
5300913065
5300919718
5300928018
5300936807
5300942728
5300954386
5300961649
5300970316
5300976602
5300984720
5300992899
5301000406
5301007913
5301015970
5301023172
5301033121
5301040567
5301049478
5301056558
5301065225
5301072793
5301089700
5301098428
5301105569
5301111978
5301121499
5301126260
5301136636
5301144265
5301151162
5301158792
5301167154
5301171853
5301181741
5301186685
5301196206
5301203042
5301212503
5301219400
5301226785
5301233438
5301241738
5301247903
5301256997
5301263040
5301272561
5301278848
5301287515
5301293679
5301302407
5301308450
5301316445
5301323952
5301332253
5301340676
5301345559
5301360329
5301365823
5301375405
5301381020
5301390603
5301396462
5301405068
5301413003
5301420815
5301428505
5301438088
5301444008
5301453774
5301459084
5301468972
5301479409
5301487160
5301495522
5301502663
5301510109
5301521584
5301527321
5301536110
5301544899
5301553261
5301561257
5301568031
5301575905
5301584511
5301592018
5301598915
5301605446
5301612953
5301619850
5301627907
5301636513
5301644691
5301652809
5301660805
5301666908
5301675575
5301684975
5301693092
5301699745
5301709144
5301715797
5301723976
5301732582
5301738685
5301748207
5301753578
5301763893
5301768898
5301779152
5301786476
5301795448
5301802650
5301812355
5301819801
5301826210
5301835121
5301841224
5301850257
5301855689
5301870338
5301879737
5301887367
5301896156
5301905860
5301913917
5301920875
5301930885
5301936927
5301945533
5301954200
5301959815
5301967322
5301974952
5301983558
5301989173
5301998267
5302005958
5302012366
5302019080
5302027198
5302034766
5302046607
5302055213
5302063086
5302069678
5302078162
5302084327
5302093787
5302099829
5302108679
5302115454
5302124427
5302130469
5302139563
5302145667
5302154761
5302160986
5302169592
5302175879
5302183692
5302192114
5302196692
5302206213
5302213843
5302220251
5302226904
5302237097
5302244543
5302252844
5302260229
5302267065
5302276587
5302283179
5302292029
5302298315
5302307776
5302316076
5302322485
5302330725
5302339026
5302346777
5302355688
5302362951
5302371679
5302379370
5302387854
5302394262
5302400549
5302411352
5302417639
5302426855
5302432958
5302443517
5302449743
5302459692
5302468115
5302476049
5302481115
5302491552
5302498815
5302506872
5302514135
5302524023
5302531103
5302538366
5302544836
5302553808
5302562475
5302571020
5302579931
5302586339
5302596105
5302602208
5302612462
5302618749
5302628576
5302633947
5302642980
5302650304
5302658178
5302667943
5302675084
5302681676
5302693334
5302701451
5302710301
5302717076
5302731236
5302738988
5302746861
5302754369
5302764501
5302772191
5302779271
5302786046
5302796605
5302802892
5302810887
5302817662
5302825719
5302832310
5302841588
5302848485
5302857640
5302865269
5302873997
5302881505
5302889195
5302896947
5302904698
5302912694
5302918736
5302925572
5302935093
5302941868
5302948460
5302957371
5302965062
5302972508
5302979954
5302986119
5302994725
5303003514
5303011143
5303017002
5303026585
5303032871
5303042454
5303048680
5303058689
5303065464
5303072788
5303081638
5303090061
5303097508
5303106052
5303113621
5303122288
5303129368
5303135349
5303145237
5303152683
5303160923
5303170811
5303177585
5303183628
5303194126
5303200290
5303210727
5303215854
5303225742
5303233982
5303242160
5303249424
5303256687
5303266025
5303273105
5303279636
5303289768
5303296543
5303304782
5303313632
5303319919
5303327732
5303335910
5303344577
5303352878
5303360629
5303367893
5303376621
5303383884
5303391696
5303398166
5303407870
5303414340
5303422885
5303431796
5303440158
5303449130
5303455478
5303464877
5303473056
5303479281
5303485263
5303495578
5303506503
5303513400
5303523166
5303529940
5303540927
5303548739
5303557467
5303565951
5303571933
5303582125
5303587924
5303595004
5303602633
5303609774
5303616732
5303625888
5303634066
5303642062
5303649569
5303655978
5303662753
5303670199
5303678866
5303686373
5303693270
5303700838
5303706881
5303714938
5303722994
5303730013
5303738070
5303745699
5303752535
5303762179
5303770724
5303777132
5303784762
5303792025
5303800387
5303807894
5303815889
5303825350
5303834078
5303841646
5303849398
5303858919
5303865023
5303874544
5303880587
5303889315
5303897737
5303907747
5303914095
5303921724
5303930025
5303938692
5303947176
5303953829
5303961641
5303969881
5303977266
5303985262
5303992647
5304001985
5304010896
5304019197
5304025728
5304034212
5304043367
5304049531
5304057039
5304064302
5304072969
5304080232
5304090181
5304097688
5304106355
5304112825
5304121797
5304128572
5304137422
5304146211
5304152375
5304160127
5304168367
5304177278
5304185456
5304192231
5304199494
5304207734
5304214448
5304223481
5304233369
5304239594
5304248383
5304254609
5304265107
5304271272
5304279694
5304287934
5304298005
5304306733
5304315949
5304321320
5304330048
5304337434
5304348054
5304355500
5304363801
5304371308
5304385346
5304394562
5304402741
5304411286
5304420075
5304425019
5304433442
5304440155
5304449616
5304456269
5304462983
5304471711
5304477692
5304485871
5304492707
5304501313
5304511383
5304517426
5304525543
5304531891
5304540253
5304548432
5304554047
5304563507
5304569428
5304578461
5304586212
5304593414
5304600983
5304607697
5304614349
5304624786
5304630218
5304640289
5304647735
5304655304
5304662018
5304670807
5304679474
5304685821
5304695221
5304701385
5304710052
5304718292
5304725982
5304734405
5304741058
5304748260
5304758087
5304765838
5304774017
5304780792
5304791473
5304798065
5304804412
5304814788
5304820892
5304829925
5304838348
5304847503
5304852813
5304863006
5304871246
5304878631
5304885955
5304893401
5304902740
5304910003
5304916656
5304925872
5304932647
5304941985
5304948638
5304957183
5304966338
5304972442
5304980132
5304987517
5304996306
5305003509
5305011626
5305021087
5305028716
5305036284
5305045134
5305054534
5305061553
5305070342
5305078093
5305084746
5305093108
5305101226
5305110076
5305119963
5305126128
5305135527
5305140532
5305149199
5305156462
5305166838
5305174345
5305181914
5305188628
5305199187
5305208403
5305215178
5305225127
5305231718
5305241606
5305251982
5305258024
5305267790
5305273771
5305279448
5305288359
5305297453
5305304289
5305312956
5305320891
5305326628
5305334501
5305342253
5305349516
5305357084
5305367216
5305375883
5305383879
5305389433
5305397062
5305404814
5305412870
5305420561
5305428068
5305436064
5305442594
5305449247
5305457914
5305465299
5305474027
5305480375
5305489347
5305495878
5305509367
5305516569
5305525358
5305532621
5305540006
5305546476
5305555875
5305564603
5305574125
5305580533
5305589567
5305596036
5305604215
5305611112
5305619474
5305627958
5305635648
5305643094
5305652616
5305659085
5305666471
5305677091
5305683805
5305693448
5305700101
5305709195
5305715787
5305724027
5305733243
5305738309
5305747525
5305754788
5305763638
5305771207
5305779569
5305786038
5305795438
5305802029
5305808194
5305819058
5305825406
5305835171
5305845547
5305852627
5305858731
5305869168
5305877530
5305883938
5305891568
5305898770
5305907864
5305915921
5305924344
5305931729
5305939541
5305946377
5305954251
5305964016
5305973355
5305979702
5305987271
5305994900
5306001065
5306011624
5306020413
5306026821
5306034634
5306045925
5306054714
5306064419
5306074307
5306083706
5306091396
5306097988
5306106960
5306114895
5306120571
5306130031
5306135647
5306145473
5306151272
5306158779
5306166714
5306174831
5306182400
5306190639
5306195522
5306204494
5306211208
5306220241
5306227199
5306235256
5306241970
5306249904
5306256557
5306263515
5306272243
5306279323
5306285366
5306293422
5306301357
5306309535
5306315700
5306324123
5306332729
5306338710
5306347011
5306355861
5306363185
5306370387
5306378505
5306386012
5306394618
5306401210
5306411586
5306419032
5306425380
5306436671
5306444362
5306453151
5306459254
5306467799
5306476527
5306486598
5306496852
5306503749
5306512477
5306521876
5306527858
5306537806
5306546778
5306553370
5306562709
5306571131
5306578273
5306587062
5306593104
5306602259
5306611842
5306620020
5306628321
5306635340
5306643763
5306650416
5306657801
5306667445
5306674769
5306682948
5306689967
5306696070
5306706995
5306713343
5306723719
5306729883
5306738184
5306746546
5306753809
5306761133
5306770106
5306777613
5306786707
5306794092
5306802820
5306810389
5306816858
5306825769
5306837854
5306844934
5306853052
5306860010
5306867517
5306879908
5306887659
5306896692
5306902979
5306913660
5306919397
5306928308
5306936487
5306942651
5306950220
5306960535
5306966882
5306977686
5306987756
5306997400
5307006799
5307016138
5307024683
5307030420
5307038293
5307044885
5307052331
5307058923
5307066186
5307073755
5307080835
5307087243
5307094568
5307102136
5307109277
5307115747
5307123071
5307129541
5307137292
5307145593
5307152551
5307159082
5307166955
5307172631
5307180871
5307189111
5307194726
5307203881
5307212060
5307218041
5307227380
5307233239
5307240685
5307248376
5307255761
5307264123
5307272118
5307278283
5307286584
5307294946
5307303368
5307311364
5307316857
5307325524
5307333214
5307341332
5307346947
5307355187
5307362816
5307371056
5307375817
5307385338
5307392968
5307401879
5307408532
5307416283
5307422936
5307430687
5307439293
5307445580
5307455407
5307463036
5307469017
5307477684
5307483666
5307492455
5307500450
5307506188
5307514977
5307523094
5307531029
5307538841
5307544884
5307552635
5307560082
5307567650
5307574425
5307582176
5307591087
5307598778
5307605370
5307613487
5307621727
5307630455
5307640831
5307649132
5307655235
5307667259
5307677940
5307684959
5307693016
5307701500
5307706138
5307716270
5307723228
5307729698
5307736778
5307743248
5307749168
5307758262
5307765220
5307772056
5307779136
5307786460
5307793479
5307799583
5307805808
5307814842
5307822593
5307829246
5307835410
5307843955
5307850059
5307857383
5307863548
5307870383
5307879295
5307886680
5307892783
5307900291
5307905906
5307913840
5307921714
5307927207
5307937461
5307945090
5307953940
5307963584
5307971702
5307979209
5307987143
5307995749
5308004416
5308012229
5308020774
5308029258
5308034018
5308042990
5308049826
5308057883
5308069419
5308076132
5308083457
5308093283
5308100485
5308108298
5308115012
5308121237
5308130942
5308141989
5308148520
5308157065
5308165671
5308174094
5308180380
5308188376
5308197531
5308206930
5308213522
5308219870
5308229269
5308237692
5308243979
5308251913
5308261496
5308267965
5308277487
5308283407
5308292990
5308302633
5308308920
5308314840
5308326437
5308332907
5308343283
5308349569
5308358480
5308366415
5308374655
5308380819
5308391073
5308397665
5308408163
5308416708
5308424276
5308433431
5308441610
5308449789
5308458090
5308471517
5308480917
5308487142
5308495443
5308502767
5308511922
5308519247
5308526327
5308533712
5308543172
5308550985
5308559347
5308565877
5308575399
5308581930
5308588094
5308598775
5308606588
5308615377
5308621663
5308631185
5308639547
5308646260
5308653646
5308661336
5308668294
5308678243
5308684957
5308693379
5308700582
5308707662
5308717366
5308724996
5308732564
5308741292
5308750142
5308759114
5308765584
5308773824
5308782124
5308788228
5308797200
5308805073
5308811543
5308818684
5308826131
5308832661
5308838215
5308845784
5308851399
5308857625
5308864216
5308870564
5308877461
5308884724
5308891316
5308895894
5308903584
5308910115
5308916584
5308921284
5308928608
5308934895
5308941304
5308945881
5308954060
5308961933
5308966816
5308974629
5308979634
5308986164
5308992512
5308999043
5309006550
5309014057
5309019489
5309025532
5309032490
5309039631
5309045002
5309050983
5309058613
5309065205
5309071186
5309077412
5309082966
5309088459
5309094013
5309101276
5309107746
5309114338
5309120685
5309125568
5309133808
5309139850
5309145466
5309155597
5309162861
5309170246
5309174946
5309182331
5309188678
5309194660
5309201252
5309207599
5309212299
5309218525
5309224384
5309230915
5309238178
5309243732
5309249897
5309255451
5309262043
5309268085
5309274494
5309278705
5309286151
5309290241
5309298664
5309305255
5309311359
5309317829
5309324298
5309329974
5309337299
5309342853
5309349811
5309355548
5309361469
5309367877
5309373492
5309380634
5309387530
5309392657
5309400165
5309407306
5309413959
5309419025
5309426288
5309433734
5309441669
5309448016
5309455096
5309461688
5309468707
5309473712
5309483050
5309492267
5309497943
5309504413
5309509845
5309517535
5309522967
5309530474
5309537066
5309543658
5309550067
5309556903
5309562823
5309569354
5309575823
5309582537
5309590899
5309596331
5309603900
5309609637
5309615679
5309623126
5309629351
5309638140
5309642779
5309649920
5309656878
5309662554
5309669512
5309675433
5309683367
5309688372
5309697222
5309702837
5309708697
5309716204
5309720904
5309728350
5309736834
5309744646
5309750384
5309757708
5309765093
5309771135
5309779863
5309786760
5309794695
5309801226
5309808611
5309814226
5309820757
5309826494
5309834673
5309842485
5309849382
5309854082
5309861711
5309867876
5309874468
5309880632
5309888445
5309893083
5309900713
5309905351
5309913408
5309918047
5309926408
5309930986
5309940874
5309945696
5309953020
5309960466
5309965532
5309973711
5309978777
5309986528
5309991838
5309999223
5310006547
5310014787
5310020341
5310028215
5310033647
5310040849
5310048173
5310055559
5310062700
5310070329
5310075883
5310084550
5310089982
5310097490
5310105607
5310113542
5310119157
5310126970
5310135026
5310142533
5310148271
5310155900
5310164140
5310171647
5310179399
5310185258
5310192399
5310200395
5310206437
5310212113
5310222489
5310230363
5310236283
5310244828
5310250810
5310258500
5310266984
5310274491
5310283402
5310289262
5310298356
5310303971
5310313859
5310321549
5310328202
5310335831
5310343888
5310351517
5310359452
5310367203
5310373978
5310380631
5310388810
5310395524
5310403641
5310412735
5310419571
5310426407
5310435501
5310442398
5310449356
5310458634
5310464676
5310473587
5310479325
5310491776
5310500687
5310508804
5310515640
5310522781
5310532181
5310536881
5310545975
5310552628
5310560806
5310567642
5310576065
5310582718
5310591141
5310600296
5310607254
5310614090
5310622696
5310628555
5310634231
5310644241
5310652298
5310658462
5310667312
5310673538
5310682510
5310690445
5310695938
5310705520
5310711135
5310719863
5310727615
5310734451
5310742202
5310750076
5310757705
5310765579
5310770278
5310779251
5310786086
5310794631
5310801345
5310810317
5310817092
5310824844
5310831680
5310839309
5310846572
5310856582
5310863052
5310873000
5310879653
5310889358
5310896133
5310904494
5310913344
5310926162
5310933852
5310941848
5310947890
5310956496
5310962600
5310972182
5310978591
5310988234
5310994338
5311002822
5311011489
5311017714
5311025283
5311034255
5311042556
5311051589
5311059462
5311064284
5311073500
5311080153
5311086501
5311094985
5311102309
5311108595
5311117445
5311127333
5311135939
5311142836
5311152907
5311159682
5311169508
5311176466
5311182448
5311193190
5311199293
5311209730
5311215773
5311224867
5311230238
5311239515
5311246718
5311255385
5311263258
5311273695
5311281691
5311289747
5311296644
5311305799
5311316969
5311326429
5311335401
5311341383
5311349440
5311357374
5311363172
5311370924
5311378492
5311387037
5311394605
5311401319
5311409132
5311417433
5311424940
5311430433
5311437879
5311448072
5311454664
5311461683
5311467725
5311475965
5311484571
5311492139
5311498304
5311506971
5311513135
5311522352
5311529004
5311537916
5311544507
5311552747
5311561658
5311570081
5311576734
5311584119
5311593274
5311600599
5311608655
5311615247
5311623487
5311633557
5311639966
5311648816
5311657117
5311663770
5311671948
5311679639
5311688062
5311696851
5311705396
5311712781
5311721143
5311727857
5311735181
5311743420
5311753247
5311759961
5311768933
5311777417
5311784009
5311792187
5311801526
5311807690
5311815808
5311824048
5311832104
5311839306
5311847241
5311854565
5311864575
5311871716
5311878979
5311885449
5311895581
5311902722
5311909375
5311920056
5311926098
5311934582
5311942944
5311950939
5311958264
5311965832
5311976147
5311983166
5311989880
5311999218
5312005871
5312016064
5312022656
5312028698
5312038525
5312046948
5312054821
5312063244
5312070263
5312077465
5312085277
5312092724
5312102978
5312113964
5312121349
5312129528
5312140453
5312148388
5312155712
5312162426
5312171398
5312180126
5312188427
5312195018
5312202221
5312208263
5312217174
5312225353
5312231029
5312239696
5312248363
5312256359
5312261913
5312269115
5312276683
5312283946
5312290660
5312302013
5312307140
5312316539
5312323680
5312332225
5312342052
5312349742
5312356334
5312365306
5312372081
5312380809
5312389476
5312395579
5312405162
5312411449
5312419810
5312427012
5312437083
5312445201
5312452403
5312459727
5312468943
5312476024
5312483348
5312489817
5312499278
5312508555
5312516429
5312522898
5312531382
5312539866
5312548289
5312554637
5312561961
5312571116
5312581248
5312591624
5312597971
5312607005
5312615122
5312622385
5312630686
5312637705
5312644968
5312653574
5312660960
5312669505
5312678843
5312686350
5312692942
5312698984
5312711069
5312717051
5312726328
5312732493
5312742502
5312753916
5312763315
5312769480
5312779184
5312787790
5312795115
5312803659
5312812876
5312820932
5312827707
5312834909
5312844919
5312853525
5312860910
5312868357
5312876108
5312885446
5312892893
5312899301
5312905405
5312915964
5312922067
5312932809
5312940988
5312952036
5312958810
5312966745
5312978281
5312988351
5312999704
5313008310
5313015024
5313024606
5313030649
5313039804
5313046518
5313054574
5313063058
5313069345
5313079721
5313085641
5313094369
5313101937
5313109750
5313117501
5313123788
5313130563
5313141244
5313146432
5313155221
5313162606
5313171151
5313180490
5313186898
5313196359
5313203561
5313209969
5313216073
5313226937
5313233041
5313243539
5313251778
5313258309
5313265755
5313274728
5313282174
5313290291
5313297555
5313306466
5313313424
5313323311
5313329903
5313335946
5313346261
5313352364
5313362862
5313368905
5313377205
5313385750
5313393868
5313401070
5313408944
5313416207
5313426155
5313432869
5313442269
5313448738
5313458016
5313464546
5313475411
5313482063
5313490425
5313497017
5313505623
5313515083
5313521309
5313529854
5313538216
5313547066
5313552315
5313562874
5313570015
5313577827
5313585640
5313594307
5313600593
5313610725
5313617988
5313624824
5313634224
5313641975
5313651741
5313658333
5313667549
5313676216
5313682686
5313691475
5313698005
5313704292
5313715156
5313725166
5313731636
5313737800
5313747993
5313754341
5313763679
5313773078
5313779731
5313791084
5313801338
5313808540
5313817268
5313826484
5313833869
5313841682
5313852363
5313860053
5313868049
5313875739
5313882880
5313889472
5313897040
5313903754
5313911933
5313918281
5313928229
5313935737
5313943183
5313949225
5313958564
5313964728
5313970343
5313980170
5313989325
5313995429
5314001410
5314012152
5314017768
5314026862
5314032904
5314043280
5314051154
5314058905
5314064643
5314072821
5314080634
5314089179
5314096625
5314102911
5314110053
5314119391
5314127325
5314134650
5314141913
5314150519
5314158087
5314167303
5314174872
5314184027
5314190741
5314197088
5314207525
5314213812
5314222601
5314231207
5314240057
5314251471
5314260687
5314267828
5314273809
5314282293
5314291754
5314299017
5314305670
5314311651
5314322637
5314331427
5314338140
5314346441
5314354254
5314362493
5314370428
5314378485
5314387335
5314394537
5314403326
5314410772
5314420721
5314427923
5314434270
5314443304
5314449468
5314459234
5314465459
5314475042
5314483404
5314490545
5314498846
5314507390
5314515752
5314523992
5314532171
5314539007
5314546453
5314555547
5314563054
5314571904
5314578557
5314587468
5314594121
5314604863
5314611638
5314618657
5314629949
5314638005
5314646977
5314652898
5314661809
5314669988
5314677922
5314685613
5314693181
5314697881
5314706975
5314716740
5314724492
5314732182
5314739262
5314746220
5314753667
5314760625
5314770085
5314776982
5314785832
5314792912
5314800969
5314807683
5314815251
5314823918
5314831547
5314838383
5314846989
5314852910
5314861943
5314868473
5314878056
5314884526
5314893010
5314901066
5314909489
5314916935
5314924443
5314933293
5314940739
5314947880
5314957401
5314964543
5314971317
5314981205
5314987797
5314997318
5315003788
5315012150
5315019535
5315027775
5315037113
5315045414
5315051640
5315058842
5315067692
5315074955
5315085087
5315093021
5315099796
5315108829
5315114872
5315124698
5315133365
5315139835
5315148258
5315156742
5315161869
5315172855
5315181461
5315188541
5315195804
5315204349
5315211795
5315218753
5315227298
5315236576
5315243228
5315249576
5315259891
5315265994
5315276248
5315282596
5315291324
5315299503
5315307742
5315315921
5315323978
5315331241
5315341006
5315346072
5315355838
5315363284
5315372989
5315380435
5315388370
5315395144
5315404178
5315410892
5315419681
