4765537604
4765547187
4765555854
4765568061
4765575385
4765586371
4765596320
4765604865
4765615546
4765625068
4765635077
4765644294
4765654853
4765665045
4765675727
4765686774
4765695990
4765708197
4765719550
4765732062
4765740485
4765753180
4765758917
4765777167
4765785590
4765799689
4765817877
4765827948
4765838263
4765851690
4765864935
4765876654
4765889349
4765903570
4765912420
4765923529
4765934271
4765945013
4765956060
4765971014
4765979498
4765992254
4766003240
4766012090
4766026312
4766036382
4766048406
4766056646
4766071661
4766082403
4766090459
4766105230
4766114385
4766122503
4766129217
4766138372
4766147100
4766156011
4766163640
4766171575
4766179448
4766187200
4766193548
4766202642
4766211187
4766219915
4766228399
4766234258
4766240483
4766247991
4766253972
4766265203
4766271916
4766282598
4766290044
4766303349
4766311284
4766319402
4766327702
4766334233
4766343877
4766350530
4766358525
4766367863
4766375676
4766383672
4766392522
4766399602
4766409672
4766418339
4766427983
4766437016
4766445073
4766452336
4766461003
4766467900
4766477421
4766485234
4766492985
4766500981
4766506291
4766515629
4766522404
4766530705
4766540287
4766547795
4766554875
4766583805
4766594364
4766600590
4766611942
4766618961
4766628849
4766637577
4766645390
4766654179
4766659855
4766668339
4766676945
4766686771
4766695805
4766703434
4766711735
4766721989
4766729801
4766737064
4766746647
4766756534
4766763859
4766771305
4766779422
4766788150
4766796085
4766806034
4766813297
4766821598
4766829532
4766838016
4766845584
4766855045
4766864444
4766874637
4766882633
4766888431
4766898319
4766904605
4766914005
4766924320
4766930789
4766940372
4766947574
4766955692
4766966434
4766972110
4766982181
4766990237
4766998599
4767007632
4767014224
4767023807
4767030459
4767040347
4767048648
4767055484
4767061954
4767070743
4767079043
4767087588
4767095706
4767103335
4767110354
4767118167
4767127566
4767134280
4767142886
4767151309
4767158145
4767166445
4767173342
4767183230
4767188174
4767199282
4767206362
4767212161
4767220461
4767229250
4767237856
4767245913
4767257937
4767267275
4767275820
4767283816
4767293825
4767303225
4767311343
4767318301
4767326052
4767331728
4767343508
4767351870
4767360537
4767368349
4767374148
4767383486
4767392031
4767398317
4767407534
4767414431
4767423342
4767430666
4767438662
4767444399
4767454348
4767463381
4767470095
4767478151
4767485292
4767493776
4767501161
4767508363
4767516237
4767523927
4767531740
4767538271
4767549989
4767560182
4767569704
4767575258
4767585329
4767593507
4767601991
4767609865
4767616212
4767626100
4767637147
4767643129
4767654054
4767661378
4767669984
4767678224
4767687379
4767695863
4767704469
4767712587
4767720094
4767729371
4767737245
4767745179
4767753114
4767761598
4767771241
4767778749
4767787049
4767796205
4767805299
4767813538
4767821900
4767828858
4767839112
4767848145
4767856324
4767864320
4767873231
4767881959
4767890137
4767898377
4767906251
4767913453
4767924439
4767933655
4767941590
4767948853
4767958191
4767965333
4767974915
4767981751
4767988831
4767996521
4768005249
4768013062
4768021424
4768029541
4768037537
4768046265
4768054261
4768057556
4768067322
4768075684
4768082337
4768088257
4768093872
4768100830
4768108704
4768113892
4768122009
4768127869
4768134705
4768139343
4768146423
4768153503
4768159424
4768165710
4768171509
4768179504
4768184265
4768191772
4768198303
4768203613
4768211120
4768216431
4768224060
4768230285
4768236145
4768242676
4768248230
4768254272
4768261535
4768267822
4768273681
4768280212
4768286255
4768293335
4768299926
4768306762
4768313415
4768317871
4768325439
4768330078
4768338073
4768344665
4768352294
4768357604
4768364624
4768371887
4768378295
4768383972
4768390014
4768398193
4768401733
4768411865
4768418762
4768426696
4768434387
4768442443
4768451354
4768455383
4768466125
4768473022
4768480346
4768487731
4768492858
4768499999
4768508727
4768515746
4768525207
4768534301
4768539672
4768547057
4768553527
4768559569
4768567870
4768574584
4768581237
4768588927
4768593993
4768603148
4768609862
4768616027
4768622008
4768629271
4768635375
4768642577
4768647704
4768655394
4768662902
4768669860
4768675902
4768682250
4768687682
4768696105
4768702818
4768708495
4768716429
4768723143
4768730772
4768737547
4768744200
4768751402
4768757079
4768766600
4768770201
4768778746
4768784117
4768792174
4768798704
4768804503
4768811339
4768819212
4768825804
4768832884
4768841246
4768850340
4768858275
4768865660
4768871275
4768878294
4768885618
4768892576
4768898924
4768905272
4768910948
4768919310
4768924314
4768933958
4768939817
4768945494
4768954466
4768960691
4768968626
4768974790
4768982359
4768988462
4768998472
4769006773
4769013792
4769021787
4769028562
4769035581
4769043394
4769048704
4769056577
4769061338
4769071226
4769079160
4769086484
4769093687
4769099119
4769107542
4769117551
4769124631
4769130552
4769139097
4769145810
4769153806
4769158933
4769166990
4769173765
4769181699
4769188657
4769196592
4769203122
4769209836
4769216794
4769222287
4769230039
4769238950
4769246213
4769252622
4769261045
4769267636
4769274045
4769281613
4769290097
4769297116
4769303952
4769310605
4769317380
4769322934
4769329953
4769338071
4769344418
4769352902
4769358456
4769366208
4769372922
4769379330
4769385434
4769393552
4769399472
4769408566
4769414792
4769422909
4769430173
4769439084
4769446347
4769453244
4769461422
4769467282
4769475338
4769483090
4769488644
4769494564
4769503170
4769512265
4769518002
4769527829
4769535763
4769543087
4769549618
4769557492
4769566647
4769573849
4769581112
4769589718
4769598690
4769606625
4769613094
4769623043
4769629086
4769635067
4769643673
4769651669
4769658627
4769663815
4769672604
4769679745
4769688778
4769692257
4769702389
4769709102
4769715389
4769721798
4769729488
4769736995
4769745907
4769752743
4769759090
4769765926
4769772213
4769779232
4769786434
4769795101
4769802181
4769809444
4769816219
4769823787
4769830989
4769837520
4769845394
4769852840
4769860774
4769866512
4769875850
4769879939
4769888912
4769894954
4769903133
4769909297
4769916377
4769923641
4769930232
4769937312
4769942378
4769950557
4769958858
4769964656
4769971004
4769978572
4769985774
4769992915
4770000056
4770007136
4770013850
4770021602
4770027766
4770034541
4770041621
4770046443
4770053950
4770059321
4770067622
4770073359
4770080928
4770087031
4770095088
4770102900
4770110347
4770117549
4770123103
4770131343
4770136836
4770144892
4770150325
4770157649
4770165278
4770171443
4770178767
4770184565
4770188227
4770198542
4770205195
4770215449
4770221064
4770228877
4770237910
4770243281
4770251887
4770258906
4770266657
4770272883
4770278925
4770284968
4770292292
4770299128
4770305414
4770312739
4770319880
4770328486
4770333063
4770339960
4770344477
4770354426
4770360834
4770368097
4770376398
4770383905
4770391047
4770396784
4770403315
4770410151
4770416986
4770423639
4770429865
4770436457
4770442926
4770449518
4770455561
4770461908
4770469232
4770475458
4770481378
4770487787
4770493036
4770499262
4770503900
4770511652
4770518976
4770525140
4770532648
4770539728
4770545038
4770552240
4770560175
4770568048
4770572687
4770581171
4770586908
4770593988
4770601129
4770608697
4770615350
4770622552
4770629266
4770635797
4770641473
4770648736
4770655633
4770663934
4770670709
4770678094
4770683221
4770691827
4770698907
4770706720
4770713800
4770721246
4770726007
4770733697
4770740777
4770748040
4770754693
4770761407
4770769708
4770776666
4770783990
4770789422
4770796441
4770801202
4770811883
4770820550
4770825982
4770833367
4770839166
4770848260
4770855584
4770862481
4770869622
4770878472
4770886529
4770891350
4770899834
4770906060
4770914483
4770920952
4770928460
4770934685
4770941338
4770949517
4770954644
4770964959
4770974846
4770981499
4770989373
4770995964
4771004143
4771010247
4771020073
4771028984
4771035271
4771044243
4771051018
4771057549
4771064324
4771071037
4771078667
4771087151
4771093071
4771099419
4771105339
4771113335
4771120110
4771129631
4771135857
4771144157
4771153007
4771159660
4771169243
4771178093
4771186455
4771194694
4771202019
4771209221
4771217033
4771225395
4771233146
4771241569
4771248832
4771258293
4771264396
4771272270
4771278373
4771286430
4771292900
4771301567
4771309623
4771316703
4771323295
4771330680
4771337699
4771345085
4771354179
4771361442
4771367973
4771375724
4771381950
4771388236
4771396171
4771401298
4771410514
4771419242
4771426872
4771433707
4771439201
4771447746
4771453849
4771460929
4771469352
4771475638
4771482780
4771490592
4771496940
4771503287
4771510001
4771518973
4771525748
4771533805
4771540702
4771547904
4771554984
4771561942
4771570243
4771576102
4771584586
4771591605
4771597953
4771606131
4771612479
4771619559
4771627066
4771634635
4771642569
4771650077
4771657279
4771665091
4771671622
4771682669
4771690360
4771697562
4771704154
4771711966
4771718131
4771726492
4771732718
4771740164
4771747671
4771755118
4771762503
4771770499
4771775442
4771783377
4771788626
4771797537
4771803824
4771812430
4771819327
4771824759
4771830618
4771838370
4771846243
4771852591
4771860586
4771868033
4771877737
4771881704
4771891592
4771898428
4771907461
4771915396
4771922537
4771930471
4771935964
4771942495
4771950674
4771957998
4771963674
4771972830
4771979849
4771989675
4771996328
4772002981
4772009939
4772016775
4772024953
4772032278
4772041433
4772047170
4772054250
4772061636
4772068105
4772075857
4772083486
4772089712
4772099355
4772105886
4772112111
4772118154
4772127248
4772134939
4772142141
4772150502
4772156057
4772164174
4772172048
4772180471
4772188161
4772195668
4772203725
4772211232
4772218312
4772224233
4772231313
4772238088
4772245107
4772253713
4772261769
4772269093
4772276418
4772285634
4772293324
4772301381
4772308278
4772314931
4772324513
4772331593
4772339528
4772345204
4772352345
4772359486
4772367360
4772374074
4772381886
4772389882
4772394826
4772404103
4772411854
4772418141
4772424977
4772433339
4772439076
4772447011
4772454457
4772463307
4772469777
4772476918
4772485218
4772492360
4772499440
4772505543
4772513050
4772522633
4772529103
4772536793
4772543507
4772550892
4772557667
4772564991
4772573414
4772580555
4772589100
4772594349
4772602589
4772608814
4772616871
4772622425
4772631092
4772639332
4772647327
4772653919
4772661488
4772668262
4772676807
4772684193
4772691028
4772698902
4772705616
4772715015
4772721607
4772726917
4772732776
4772741504
4772750416
4772757801
4772764454
4772773548
4772780262
4772787403
4772794666
4772803882
4772811512
4772817798
4772825061
4772832447
4772838428
4772845264
4772851673
4772859912
4772868396
4772875476
4772882434
4772887927
4772895984
4772902271
4772911975
4772918079
4772925464
4772934131
4772940295
4772947253
4772953601
4772960803
4772968066
4772975085
4772983630
4772989368
4772997302
4773004687
4773010119
4773016650
4773025500
4773030932
4773039233
4773048205
4773055102
4773064807
4773072192
4773082141
4773089526
4773098681
4773105517
4773111743
4773115466
4773125842
4773132006
4773138964
4773147814
4773155200
4773161608
4773168749
4773176745
4773183154
4773194079
4773198168
4773213183
4773218249
4773226550
4773232836
4773240954
4773247546
4773254626
4773264147
4773270617
4773277636
4773286181
4773294115
4773301073
4773307726
4773316576
4773324389
4773329821
4773337206
4773343248
4773352038
4773358019
4773367540
4773375780
4773382311
4773388964
4773395678
4773403429
4773411425
4773417406
4773424303
4773432909
4773440660
4773447069
4773454881
4773464220
4773471422
4773480089
4773487352
4773496080
4773501085
4773509264
4773515428
4773521837
4773529344
4773536180
4773543321
4773552476
4773559129
4773565233
4773572435
4773578966
4773586351
4773594163
4773600267
4773609910
4773616014
4773623826
4773630418
4773638353
4773646287
4773651780
4773661119
4773669420
4773676133
4773682481
4773691209
4773697740
4773705735
4773712388
4773720262
4773726243
4773734788
4773742723
4773749131
4773757981
4773764146
4773774095
4773780625
4773789109
4773796067
4773802110
4773809007
4773816148
4773823777
4773832322
4773838425
4773845628
4773853562
4773861680
4773869187
4773875291
4773886338
4773892869
4773900742
4773907456
4773916611
4773924119
4773931748
4773939072
4773944626
4773953354
4773959458
4773969101
4773975998
4773983933
4773992173
4774000901
4774009445
4774015732
4774024887
4774032212
4774043991
4774048508
4774059006
4774062790
4774071762
4774077988
4774087814
4774095627
4774101181
4774109787
4774118576
4774125717
4774132553
4774139145
4774144882
4774151169
4774159958
4774166489
4774174484
4774181869
4774190414
4774197494
4774204391
4774211288
4774218857
4774227218
4774234604
4774241623
4774249557
4774255478
4774262924
4774272201
4774278244
4774285324
4774292221
4774299362
4774305221
4774312606
4774320846
4774326522
4774334762
4774340255
4774347824
4774355758
4774362777
4774368820
4774376876
4774385970
4774393905
4774398055
4774408309
4774413192
4774421554
4774428085
4774435165
4774442428
4774451339
4774458114
4774467452
4774475509
4774480758
4774488570
4774497481
4774504317
4774512496
4774520003
4774526351
4774533797
4774541915
4774547164
4774556258
4774562850
4774571212
4774578780
4774585006
4774593306
4774598616
4774608260
4774615889
4774623458
4774630477
4774636519
4774645674
4774652205
4774660140
4774668990
4774676314
4774684493
4774692488
4774697371
4774705550
4774712325
4774719222
4774725386
4774734969
4774741988
4774747542
4774755659
4774765486
4774772749
4774781233
4774788618
4774794661
4774802046
4774809797
4774816878
4774826460
4774835127
4774842512
4774849470
4774856306
4774864302
4774872419
4774878584
4774886946
4774893843
4774901838
4774910200
4774915998
4774923811
4774931806
4774939741
4774945478
4774954511
4774961286
4774969282
4774974836
4774983015
4774987837
4774996626
4775004499
4775011518
4775016584
4775024580
4775030256
4775038435
4775044050
4775053083
4775062299
4775068647
4775076459
4775084699
4775092145
4775101301
4775108686
4775115522
4775124311
4775130414
4775139020
4775144391
4775153669
4775162336
4775169477
4775178205
4775183698
4775192853
4775198835
4775207318
4775215253
4775222028
4775229352
4775237226
4775244672
4775251569
4775259015
4775265485
4775272504
4775279645
4775286542
4775294782
4775301495
4775310712
4775320538
4775327618
4775338666
4775345807
4775352338
4775359479
4775366376
4775374859
4775381268
4775388714
4775398053
4775405438
4775413373
4775420086
4775428143
4775432904
4775441449
4775446454
4775453595
4775461224
4775470135
4775476178
4775482464
4775489666
4775496136
4775503216
4775509991
4775517437
4775524090
4775530987
4775539532
4775545819
4775552227
4775559979
4775567120
4775575604
4775582134
4775590313
4775597515
4775602886
4775611065
4775616741
4775624920
4775632793
4775640179
4775645916
4775653179
4775660747
4775666180
4775675640
4775682232
4775690227
4775697429
4775704387
4775712505
4775719158
4775724895
4775733928
4775740764
4775748150
4775755108
4775763347
4775770122
4775778118
4775783550
4775795940
4775802410
4775809795
4775814067
4775822368
4775829692
4775836833
4775843120
4775851970
4775860271
4775866191
4775873515
4775880901
4775887126
4775894206
4775901836
4775911357
4775918437
4775924236
4775932719
4775939250
4775945537
4775952739
4775959941
4775967326
4775975871
4775981547
4775989482
4775998271
4776003703
4776012370
4776019816
4776027324
4776033732
4776042399
4776048747
4776055705
4776061564
4776072245
4776078959
4776086161
4776093241
4776101542
4776108866
4776116252
4776123088
4776129008
4776138163
4776144755
4776152140
4776159403
4776169413
4776177775
4776186076
4776193888
4776201090
4776207865
4776213541
4776223124
4776228800
4776238261
4776245951
4776252787
4776259562
4776265787
4776272806
4776280924
4776286051
4776295206
4776302775
4776310526
4776317972
4776323404
4776333292
4776341410
4776349039
4776355265
4776363688
4776370584
4776377237
4776383951
4776392618
4776398111
4776407022
4776412577
4776421121
4776429849
4776435343
4776442911
4776451334
4776459268
4776467203
4776474222
4776481424
4776488016
4776496011
4776504007
4776511392
4776519815
4776528177
4776534647
4776541421
4776548135
4776556802
4776564065
4776574014
4776580484
4776587625
4776596048
4776601480
4776607828
4776615030
4776621988
4776627725
4776635904
4776642129
4776648111
4776653115
4776660989
4776665994
4776672219
4776678262
4776685891
4776691445
4776697305
4776703225
4776709878
4776717080
4776722573
4776729592
4776736184
4776743020
4776750833
4776758462
4776765847
4776772561
4776780801
4776786294
4776792886
4776801492
4776807656
4776815102
4776820107
4776827676
4776834084
4776839577
4776845742
4776852395
4776857827
4776864419
4776871010
4776876320
4776883156
4776889443
4776896706
4776901894
4776907692
4776913674
4776918007
4776925148
4776930642
4776937172
4776942727
4776948159
4776953286
4776959145
4776965371
4776970986
4776976479
4776982521
4776988076
4776993264
4776999428
4777004006
4777009377
4777016030
4777021645
4777027016
4777033852
4777038002
4777044228
4777048317
4777056801
4777063820
4777070229
4777075478
4777081398
4777088051
4777092262
4777101479
4777106483
4777113747
4777119728
4777125526
4777131264
4777136940
4777146156
4777151832
4777157814
4777165138
4777172157
4777177406
4777183937
4777191322
4777197548
4777204017
4777211281
4777217140
4777224037
4777228920
4777236671
4777243568
4777251625
4777257118
4777263343
4777270607
4777277198
4777284645
4777291297
4777298927
4777305030
4777312660
4777319251
4777326637
4777332008
4777339637
4777347755
4777352699
4777358863
4777366187
4777372169
4777379371
4777386573
4777392982
4777398414
4777404578
4777411109
4777418800
4777424781
4777431495
4777439307
4777445289
4777451331
4777458106
4777462867
4777471229
4777477698
4777485755
4777491797
4777498389
4777504981
4777512244
4777519874
4777527076
4777533423
4777539954
4777545264
4777552710
4777558265
4777566687
4777572669
4777577307
4777585120
4777590552
4777597937
4777603919
4777610327
4777616309
4777623694
4777630469
4777636817
4777643286
4777649756
4777656775
4777663550
4777670142
4777677588
4777683569
4777688635
4777694617
4777701941
4777708777
4777715063
4777721960
4777727820
4777734961
4777742285
4777746680
4777754858
4777760596
4777767981
4777774817
4777779883
4777786474
4777794226
4777801306
4777807654
4777815344
4777820959
4777826025
4777833715
4777840063
4777847204
4777853857
4777861059
4777869360
4777875097
4777882788
4777888220
4777896582
4777904821
4777911596
4777918188
4777925634
4777932592
4777938268
4777946569
4777951696
4777960973
4777968054
4777973730
4777980077
4777987341
4777996130
4778003088
4778010473
4778016820
4778023046
4778029089
4778037511
4778043432
4778051855
4778058385
4778064916
4778073278
4778078710
4778085363
4778092626
4778100744
4778107824
4778115575
4778122899
4778128942
4778135961
4778143285
4778151281
4778158666
4778165502
4778171971
4778180211
4778186986
4778193761
4778200170
4778209386
4778215795
4778224828
4778231053
4778237462
4778243504
4778251256
4778256810
4778265599
4778273839
4778281041
4778288731
4778294041
4778301366
4778308690
4778316685
4778322484
4778331456
4778338963
4778345372
4778352391
4778358739
4778366002
4778372716
4778379368
4778387669
4778395543
4778402257
4778410374
4778417027
4778424107
4778432713
4778441136
4778449070
4778455540
4778464695
4778468846
4778479100
4778486607
4778495396
4778502354
4778511997
4778518650
4778526463
4778532444
4778540318
4778546421
4778555210
4778562107
4778571507
4778578037
4778587498
4778595921
4778603428
4778609531
4778618565
4778627048
4778633274
4778641758
4778649631
4778655552
4778663425
4778669468
4778678257
4778687473
4778695347
4778701572
4778711094
4778718113
4778728733
4778738071
4778746738
4778753269
4778761936
4778770359
4778778781
4778786228
4778794101
4778801242
4778810642
4778819431
4778825534
4778833347
4778841647
4778847934
4778855624
4778862521
4778871982
4778881564
4778887607
4778894199
4778902194
4778909518
4778917453
4778925021
4778933505
4778941867
4778947970
4778955966
4778962436
4778970492
4778979220
4778987948
4778995395
4779003207
4779007113
4779017001
4779023532
4779032687
4779038607
4779048495
4779054354
4779064364
4779071994
4779078768
4779085604
4779093783
4779101412
4779110873
4779117648
4779126803
4779133456
4779140475
4779148348
4779157320
4779163729
4779172213
4779179476
4779187838
4779196383
4779204012
4779209872
4779217806
4779225375
4779232027
4779240938
4779248690
4779255099
4779263277
4779270662
4779276827
4779283602
4779294771
4779302584
4779309847
4779316317
4779324129
4779332369
4779339022
4779344210
4779354891
4779364290
4779369966
4779378084
4779385897
4779390901
4779401338
4779411897
4779422457
4779431734
4779438631
4779446260
4779451936
4779459810
4779466097
4779476534
4779484346
4779492097
4779498811
4779506868
4779513399
4779520906
4779527132
4779536592
4779543672
4779553071
4779558443
4779567537
4779573518
4779582490
4779588716
4779595491
4779605317
4779613496
4779620088
4779627778
4779635591
4779641816
4779649934
4779656648
4779665315
4779673982
4779680207
4779685578
4779696199
4779704194
4779710603
4779719148
4779728120
4779735627
4779743379
4779748628
4779756928
4779763337
4779771455
4779780305
4779789338
4779795441
4779803803
4779811311
4779817231
4779824677
4779832062
4779839875
4779847321
4779855256
4779863618
4779871064
4779878815
4779885407
4779892975
4779899628
4779905610
4779915314
4779923493
4779930817
4779938507
4779945588
4779952240
4779962738
4779971710
4779979462
4779986908
4779994171
4780002167
4780008148
4780014801
4780024811
4780033844
4780041657
4780046417
4780055145
4780062592
4780071564
4780076263
4780087250
4780095428
4780103912
4780111420
4780117279
4780124664
4780133514
4780140900
4780147674
4780157196
4780164032
4780172882
4780180084
4780187530
4780194000
4780202057
4780211029
4780218048
4780224640
4780232574
4780240570
4780246795
4780256500
4780262908
4780272735
4780279937
4780287994
4780294464
4780304351
4780312286
4780320464
4780326812
4780334991
4780344085
4780350982
4780358856
4780365752
4780372833
4780379668
4780386748
4780394805
4780403228
4780411101
4780417510
4780425201
4780433990
4780443023
4780450713
4780456206
4780464202
4780472197
4780478179
4780486113
4780490813
4780501983
4780509917
4780518218
4780523894
4780533782
4780541289
4780546782
4780554168
4780563323
4780571990
4780579985
4780587981
4780593657
4780602141
4780608183
4780616667
4780625273
4780633391
4780640105
4780649138
4780655241
4780663359
4780669707
4780678252
4780686919
4780694609
4780700957
4780709135
4780715422
4780724943
4780732817
4780740324
4780747954
4780756743
4780764799
4780771574
4780777556
4780787260
4780794157
4780804716
4780811125
4780817472
4780824492
4780831144
4780838835
4780845549
4780853178
4780862760
4780869413
4780878141
4780883512
4780891874
4780899748
4780905363
4780912016
4780921720
4780927946
4780936918
4780945341
4780953031
4780960600
4780969144
4780975858
4780984525
4780992582
4780998685
4781007535
4781012846
4781021085
4781029142
4781037565
4781045194
4781054105
4781058317
4781068632
4781072355
4781082486
4781086576
4781097989
4781104276
4781112760
4781120755
4781126615
4781134549
4781142545
4781149198
4781157560
4781165006
4781172330
4781179959
4781185575
4781192594
4781200162
4781207425
4781217557
4781225736
4781231656
4781239591
4781247525
4781253568
4781262601
4781270902
4781278043
4781287808
4781293607
4781301053
4781308377
4781315396
4781324002
4781331448
4781339017
4781347073
4781350796
4781359646
4781365445
4781374600
4781380520
4781389370
4781395535
4781405117
4781412198
4781418911
4781425015
4781434353
4781438382
4781447964
4781455899
4781462551
4781471707
4781477566
4781485073
4781491604
4781498257
4781509182
4781515408
4781524502
4781534634
4781541470
4781550686
4781558926
4781567287
4781573696
4781584316
4781593166
4781599697
4781608486
4781616909
4781622707
4781633144
4781640224
4781648891
4781657314
4781663296
4781671901
4781678005
4781686550
4781694240
4781703090
4781708583
4781717434
4781727077
4781736293
4781744106
4781751186
4781759975
4781767421
4781775417
4781781520
4781789638
4781796047
4781805873
4781812953
4781822109
4781826991
4781835719
4781839504
4781849880
4781856593
4781864772
4781873317
4781881190
4781888698
4781894679
4781903163
4781909694
4781919154
4781925319
4781935756
4781939906
4781948573
4781954188
4781962611
4781966090
4781977992
4781985011
4781992946
4782001796
4782008754
4782012904
4782024257
4782031092
4782038478
4782044032
4782052760
4782060878
4782068019
4782075282
4782081751
4782090602
4782097254
4782104151
4782111781
4782120142
4782126612
4782136195
4782142359
4782152247
4782159266
4782167139
4782175501
4782181483
4782189356
4782197535
4782205347
4782212794
4782219935
4782225367
4782235132
4782239466
4782248255
4782254603
4782262842
4782270411
4782279078
4782286097
4782294642
4782302088
4782310816
4782320154
4782326929
4782336634
4782342249
4782349817
4782357508
4782364649
4782368433
4782377954
4782383753
4782393640
4782397425
4782407800
4782411768
4782421472
4782430017
4782439661
4782443994
4782455957
4782459863
4782470178
4782477319
4782483606
4782489770
4782497827
4782504907
4782512781
4782520349
4782528345
4782535486
4782543054
4782550134
4782559106
4782567834
4782573877
4782582666
4782588037
4782595910
4782603967
4782610681
4782618005
4782624902
4782630456
4782638879
4782644372
4782651452
4782659448
4782667504
4782674218
4782683312
4782689111
4782696618
4782703576
4782710656
4782718896
4782727807
4782735742
4782741540
4782750939
4782757043
4782764001
4782770104
4782781029
4782787560
4782795922
4782803796
4782811608
4782818871
4782824425
4782833031
4782838524
4782847741
4782854394
4782861779
4782869713
4782875634
4782881859
4782891015
4782899804
4782907921
4782915612
4782923851
4782930687
4782937950
4782947716
4782956078
4782963158
4782969750
4782976891
4782983116
4782990196
4782997338
4783006004
4783013024
4783021446
4783028221
4783031822
4783043480
4783050194
4783058556
4783065880
4783073021
4783080223
4783088036
4783095482
4783102257
4783111595
4783117088
4783125999
4783132713
4783141197
4783149193
4783157127
4783164268
4783173668
4783181541
4783187706
4783195518
4783203514
4783210777
4783219810
4783225730
4783235679
4783243980
4783251792
4783259544
4783265953
4783274131
4783280052
4783285789
4783295555
4783301841
4783311179
4783317466
4783327110
4783332786
4783341392
4783349754
4783359214
4783367271
4783374168
4783383445
4783391074
4783401694
4783409934
4783420798
4783426108
4783434714
4783443381
4783449607
4783458457
4783466514
4783473166
4783481955
4783491050
4783497214
4783507041
4783513449
4783521811
4783530234
4783537436
4783545859
4783553427
4783561545
4783568381
4783576010
4783583212
4783589316
4783597189
4783606040
4783613120
4783619101
4783626914
4783634848
4783643027
4783650290
4783656821
4783665488
4783674033
4783680014
4783687949
4783696677
4783702719
4783711386
4783719504
4783728354
4783735434
4783741415
4783750998
4783757162
4783765524
4783772238
4783782675
4783791464
4783799765
4783806417
4783813925
4783822714
4783829977
4783834188
4783844015
4783850058
4783859762
4783865621
4783875570
4783881979
4783890341
4783897177
4783907003
4783914877
4783924032
4783932821
4783940511
4783949056
4783955892
4783962972
4783971761
4783979757
4783988546
4783995382
4784004110
4784012044
4784019979
4784028585
4784034749
4784044027
4784052022
4784059224
4784065572
4784072652
4784079915
4784087545
4784095662
4784104634
4784111287
4784121175
4784125753
4784134481
4784140462
4784149068
4784155843
4784166341
4784172627
4784180806
4784186910
4784194783
4784202840
4784210774
4784218282
4784227254
4784236104
4784242635
4784250813
4784257283
4784265279
4784273396
4784281514
4784288716
4784296529
4784302449
4784310078
4784316182
4784325215
4784332661
4784341023
4784347737
4784355488
4784363911
4784369832
4784378254
4784384541
4784392476
4784401326
4784409993
4784417622
4784425434
4784431416
4784439472
4784445698
4784454365
4784462910
4784470967
4784476826
4784485188
4784490925
4784499348
4784507343
4784516987
4784523151
4784531818
4784537922
4784546528
4784552631
4784561726
4784570087
4784577656
4784581806
4784592853
4784597858
4784607868
4784616108
4784622577
4784629413
4784640400
4784647053
4784655781
4784664509
4784670551
4784676960
4784685871
4784691974
4784701862
4784709186
4784717670
4784723041
4784731891
4784737628
4784747821
4784755390
4784764240
4784771808
4784777790
4784786762
4784792804
4784802631
4784808368
4784817523
4784827228
4784835040
4784841937
4784849750
4784856158
4784864276
4784870319
4784879596
4784886249
4784894916
4784901202
4784909930
4784916034
4784924335
4784932269
4784940570
4784946917
4784956256
4784964435
4784971881
4784977923
4784985858
4784994464
4785000567
4785006671
4785017962
4785025408
4785032611
4785036578
4785045550
4785055133
4785062335
4785068804
4785076983
4785086871
4785094256
4785100909
4785110735
4785118792
4785128314
4785136736
4785142657
4785151385
4785160601
4785166460
4785174700
4785181719
4785191607
4785200396
4785207476
4785215044
4785222552
4785230547
4785239092
4785246355
4785254168
4785261919
4785268206
4785276018
4785282610
4785291582
4785297991
4785306597
4785316484
4785325151
4785332537
4785340166
4785344316
4785354204
4785362627
4785368975
4785377153
4785384844
4785394121
4785399736
4785407915
4785414995
4785423479
4785431108
4785440569
4785448625
4785455339
4785463029
4785472002
4785477678
4785485979
4785493974
4785500871
4785510148
4785518815
4785526689
4785535234
4785542619
4785550554
4785559526
4785568437
4785574418
4785583329
4785589494
4785597551
4785606340
4785611955
4785622026
4785630021
4785637956
4785644425
4785652299
4785659562
4785667863
4785675126
4785683305
4785692399
4785698991
4785705949
4785713883
4785721207
4785729752
4785737382
4785746354
4785755082
4785763383
4785771073
4785777360
4785785721
4785791703
4785801591
4785808182
4785817887
4785824235
4785832413
4785837967
4785845048
4785852799
4785860672
4785866105
4785873856
4785878617
4785887589
4785892594
4785899186
4785903885
4785912430
4785918473
4785923050
4785931229
4785937210
4785942337
4785948563
4785955826
4785961807
4785967484
4785972733
4785978714
4785985001
4785990738
4785997452
4786002945
4786009659
4786017044
4786023636
4786030411
4786035538
4786044083
4786049515
4786055923
4786061905
4786067703
4786075149
4786085037
4786093094
4786098770
4786105118
4786110061
4786115005
4786121780
4786127762
4786134048
4786139663
4786145584
4786151077
4786157852
4786163406
4786170364
4786176712
4786182327
4786188064
4786194534
4786200088
4786205825
4786211502
4786217971
4786223098
4786228897
4786233596
4786241165
4786247207
4786253555
4786259475
4786266372
4786270828
4786277053
4786282607
4786289260
4786295425
4786301650
4786308669
4786312820
4786321182
4786327224
4786334365
4786341872
4786347976
4786354629
4786360549
4786366347
4786373916
4786380996
4786387893
4786394179
4786400893
4786407912
4786414870
4786421462
4786427749
4786434157
4786440993
4786448317
4786454482
4786460402
4786467421
4786474990
4786480727
4786487441
4786494094
4786500319
4786507705
4786513869
4786520156
4786528029
4786533705
4786540358
4786547438
4786554152
4786558608
4786566542
4786574294
4786579543
4786587660
4786594008
4786600844
4786605605
4786613356
4786619887
4786625258
4786633864
4786637221
4786647292
4786652785
4786660231
4786667433
4786672133
4786681654
4786687453
4786694594
4786701308
4786708143
4786714491
4786721083
4786728163
4786733900
4786740858
4786746718
4786752821
4786760878
4786766005
4786773390
4786780043
4786786818
4786794081
4786800978
4786808546
4786815016
4786820448
4786827467
4786834669
4786838880
4786848646
4786854139
4786860121
4786868421
4786871778
4786880506
4786886305
4786893690
4786900587
4786905348
4786913648
4786920606
4786927320
4786931593
4786940931
4786947095
4786952344
4786960523
4786967237
4786973890
4786980360
4786986585
4786994276
4786999464
4787007581
4787012891
4787020704
4787026563
4787033582
4787041150
4787048841
4787056043
4787062391
4787069227
4787074537
4787084119
4787090528
4787098340
4787105970
4787115430
4787121411
4787129834
4787137403
4787145764
4787151441
4787160718
4787164258
4787172681
4787179822
4787186475
4787192212
4787200574
4787207715
4787214612
4787221875
4787227063
4787235425
4787241772
4787251233
4787257642
4787265088
4787272534
4787279187
4787283826
4787293286
4787300061
4787305188
4787315381
4787319592
4787330639
4787336865
4787346814
4787351941
4787361096
4787369214
4787377514
4787384716
4787390637
4787400586
4787406689
4787416882
4787423352
4787430859
4787437573
4787445263
4787451489
4787460278
4787469189
4787476208
4787482739
4787490307
4787496899
4787505016
4787512768
4787521618
4787529125
4787537304
4787543652
4787552746
4787558605
4787567394
4787571972
4787583080
4787591320
4787600048
4787607006
4787613842
4787622387
4787630504
4787638134
4787646557
4787655651
4787661693
4787669201
4787675243
4787684215
4787691234
4787701000
4787707836
4787716381
4787722606
4787730968
4787737071
4787746837
4787752819
4787762767
4787769237
4787779125
4787789378
4787795726
4787803722
4787811229
4787816905
4787826427
4787834178
4787841075
4787848643
4787856456
4787865184
4787868907
4787882213
4787889232
4787898204
4787907054
4787915477
4787924022
4787931834
4787940684
4787947337
4787955272
4787961192
4787970225
4787977244
4787986460
4787990672
4788002330
4788009532
4788016673
4788025889
4788032847
4788040232
4788047923
4788054087
4788062571
4788070933
4788078929
4788086863
4788092478
4788101023
4788110056
4788116709
4788125925
4788132639
4788140818
4788147349
4788155588
4788163279
4788170176
4788178538
4788185984
4788195444
4788202341
4788210093
4788214853
4788223398
4788231516
4788237742
4788243601
4788254648
4788264292
4788270334
4788278208
4788285959
4788291880
4788300974
4788306406
4788316233
4788322214
4788331247
4788337839
4788346872
4788353891
4788359934
4788367563
4788375131
4788382150
4788390756
4788397958
4788404855
4788408823
4788420053
4788426096
4788435068
4788443246
4788451181
4788456430
4788464609
4788471933
4788480783
4788487802
4788497507
4788505807
4788511911
4788519906
4788528024
4788534921
4788540902
4788549814
4788558236
4788566964
4788573312
4788581674
4788588327
4788595712
4788603646
4788608895
4788618661
4788625619
4788633370
4788639230
4788648324
4788654244
4788663644
4788669625
4788680306
4788688424
4788696359
4788703927
4788709969
4788717477
4788726449
4788733102
4788742806
4788751595
4788755929
4788768258
4788772591
4788783944
4788791329
4788801888
4788809762
4788817513
4788825814
4788831917
4788840279
4788847725
4788856392
4788863045
4788871651
4788880257
4788887886
4788893868
4788901985
4788908211
4788915535
4788924691
4788933785
4788939705
4788947273
4788955147
4788962044
4788968025
4788975716
4788982979
4788990425
4788996468
4789004585
4789012337
4789019295
4789028084
4789034920
4789043892
4789050972
4789059273
4789065681
4789073799
4789081550
4789087959
4789093391
4789102730
4789108894
4789117866
4789125007
4789133125
4789138008
4789147407
4789155891
4789162056
4789170356
4789176643
4789184272
4789191230
4789197822
4789207160
4789214057
4789222846
4789230598
4789237373
4789244941
4789251777
4789259529
4789266059
4789275031
4789282356
4789289924
4789298652
4789304633
4789313606
4789319404
4789328132
4789333808
4789346442
4789353095
4789359016
4789366889
4789375556
4789380805
4789389533
4789396857
4789404609
4789413459
4789421454
4789426703
4789435676
4789441596
4789450873
4789460395
4789466925
4789476081
4789482245
4789490973
4789496894
4789504279
4789513495
4789522895
4789529853
4789537787
4789544318
4789554999
4789562567
4789569403
4789577948
4789587958
4789595648
4789603278
4789610602
4789618781
4789626471
4789632513
4789642218
4789651190
4789659247
4789665167
4789673529
4789679938
4789687811
4789695746
4789701910
4789711310
4789719793
4789728338
4789733954
4789741949
4789750067
4789756720
4789767157
4789774420
4789783575
4789790411
4789797979
4789801275
4789810614
4789817388
4789824713
4789831976
4789842230
4789849737
4789857916
4789865911
4789871771
4789880499
4789888799
4789895757
4789904180
4789911626
4789917486
4789925970
4789933965
4789942388
4789949224
4789957220
4789963384
4789972600
4789979192
4789986455
4789994207
4790000799
4790008916
4790017400
4790025762
4790033086
4790039007
4790047185
4790053167
4790063176
4790072454
4790078618
4790086370
4790092961
4790100469
4790106267
4790114446
4790124272
4790133000
4790140447
4790146489
4790157048
4790164128
4790171941
4790179570
4790188237
4790196233
4790204961
4790211003
4790219792
4790225285
4790234196
4790240483
4790249943
4790258610
4790266301
4790273137
4790281682
4790287175
4790294804
4790304387
4790310856
4790320195
4790326848
4790337101
4790344914
4790352482
4790359929
4790368229
4790376103
4790385441
4790392155
4790401432
4790409550
4790417546
4790425175
4790436466
4790443730
4790450504
4790456852
4790465946
4790473148
4790479923
4790487553
4790495915
4790502995
4790511723
4790519779
4790525761
4790534183
4790540226
4790550053
4790559635
4790566410
4790573002
4790582828
4790589420
4790598881
4790609745
4790615848
4790624210
4790632511
4790639957
4790646366
4790655826
4790661991
4790671451
4790678409
4790685245
4790692752
4790699832
4790706302
4790715885
4790721439
4790730472
4790738651
4790745975
4790751956
4790760684
4790767093
4790775394
4790781436
4790790775
4790797000
4790806827
4790815128
4790822574
4790829044
4790836673
4790842654
4790850650
4790859378
4790866824
4790872989
4790881961
4790888553
4790896853
4790904666
4790913577
4790920230
4790927737
4790934146
4790943057
4790949221
4790958438
4790964663
4790972964
4790981326
4790987979
4790995852
4791003115
4791010745
4791018801
4791025088
4791030642
4791041812
4791047915
4791057070
4791062991
4791072024
4791077639
4791086428
4791093203
4791102908
4791112307
4791119448
4791126467
4791134280
4791142214
4791148562
4791157412
4791166262
4791173159
4791180971
4791188112
4791196169
4791203676
4791209475
4791217287
4791227114
4791234743
4791240786
4791248171
4791255861
4791261721
4791270510
4791279726
4791289186
4791296144
4791302248
4791309084
4791317751
4791323610
4791332521
4791338320
4791348757
4791355592
4791363710
4791371767
4791377931
4791384645
4791393617
4791401857
4791409975
4791415163
4791423769
4791430299
4791437196
4791444643
4791451967
4791460145
4791468446
4791477540
4791483583
4791490785
4791497682
4791506898
4791514406
4791522035
4791529725
4791538575
4791545533
4791553956
4791560060
4791567201
4791576051
4791582704
4791593080
4791601686
4791607667
4791615907
4791622071
4791629823
4791639100
4791645692
4791655457
4791662415
4791671204
4791677247
4791686585
4791694520
4791703675
4791711976
4791721497
4791728150
4791736390
4791743714
4791751588
4791758485
4791767457
4791775269
4791783692
4791790650
4791797303
4791806641
4791813172
4791822388
4791828370
4791837708
4791844422
4791854798
4791859803
4791869934
4791876831
4791885865
4791889954
4791899781
4791908325
4791914551
4791920471
4791930054
4791936402
4791945313
4791951416
4791960877
4791967468
4791975769
4791981995
4791991089
4791999451
4792007141
4792013428
4792022461
4792028625
4792038086
4792045593
4792052490
4792061767
4792071228
4792076904
4792086365
4792095520
4792101928
4792111572
4792118103
4792125549
4792133056
4792142944
4792151611
4792159179
4792168335
4792175293
4792183593
4792191467
4792199218
4792208068
4792217163
4792223022
4792232116
4792238708
4792246215
4792254089
4792261840
4792270202
4792277770
4792283691
4792291625
4792299438
4792306030
4792314025
4792321899
4792328063
4792336974
4792342956
4792352843
4792360045
4792368285
4792374877
4792382506
4792390746
4792398742
4792407409
4792415099
4792423400
4792430419
4792434264
4792446959
4792455199
4792465148
4792472655
4792480773
4792488036
4792496581
4792503722
4792512389
4792520751
4792526915
4792536742
4792543212
4792550780
4792557066
4792567015
4792575682
4792584532
4792591063
4792599181
4792605284
4792614256
4792620604
4792629454
4792636046
4792645140
4792651427
4792658751
4792667235
4792673887
4792681883
4792689634
4792699766
4792708006
4792714720
4792723021
4792729734
4792738646
4792745665
4792754942
4792763487
4792771055
4792777098
4792785765
4792791685
4792800352
4792806272
4792815428
4792822325
4792832029
4792838682
4792846372
4792853697
4792863096
4792870298
4792878050
4792885862
4792895017
4792900755
4792910093
4792917112
4792924497
4792930784
4792940488
4792947385
4792956174
4792963804
4792970151
4792978574
4792984983
4792990598
4793001767
4793008603
4793017270
4793022825
4793031797
4793038450
4793047727
4793053708
4793063413
4793070615
4793080503
4793085996
4793094846
4793100522
4793108945
4793116818
4793124387
4793131528
4793140378
4793147336
4793154782
4793161191
4793169980
4793175778
4793185239
4793191891
4793200864
4793208493
4793215451
4793222714
4793231747
4793238217
4793249570
4793254941
4793263791
4793269223
4793278134
4793286069
4793294064
4793301205
4793310910
4793317379
4793326352
4793331906
4793340756
4793347653
4793354916
4793364071
4793372067
4793380856
4793387020
4793394039
4793401425
4793409481
4793418453
4793424130
4793435299
4793443905
4793450497
4793457577
4793466305
4793473385
4793480770
4793487423
4793497799
4793504269
4793512936
4793521175
4793527096
4793534054
4793542782
4793548153
4793561092
4793568661
4793575008
4793582271
4793591305
4793596126
4793605587
4793611690
4793621334
4793627010
4793636470
4793641780
4793651058
4793659786
4793666133
4793672603
4793683834
4793691524
4793698665
4793706050
4793712947
4793720210
4793727229
4793733882
4793743221
4793749629
4793759639
4793766109
4793773677
4793779598
4793787105
4793795222
4793803889
4793810237
4793820369
4793825069
4793837520
4793844722
4793854671
4793863032
4793869380
4793876521
4793885493
4793893550
4793901851
4793907527
4793913569
4793922603
4793931208
4793939021
4793944941
4793951899
4793957881
4793967646
4793975764
4793983943
4793993769
4794001887
4794011408
4794019282
4794025141
4794031977
4794040339
4794048884
4794055171
4794062922
4794070857
4794077265
4794085017
4794092951
4794101618
4794107905
4794116083
4794124323
4794130915
4794140192
4794146540
4794153620
4794161371
4794168451
4794176447
4794183710
4794191401
4794199274
4794205683
4794213312
4794221003
4794230097
4794239252
4794246637
4794256037
4794263056
4794267206
4794278009
4794282648
4794294062
4794301935
4794309198
4794316950
4794325739
4794332269
4794341242
4794348200
4794356989
4794366449
4794372369
4794380670
4794386652
4794394098
4794402582
4794410699
4794417535
4794426263
4794436090
4794444391
4794450921
4794458917
4794464960
4794474969
4794482538
4794490655
4794498102
4794505792
4794512323
4794520135
4794526361
4794535943
4794541986
4794551568
4794555780
4794567193
4794573907
4794583306
4794588922
4794598748
4794607354
4794613763
4794619744
4794628655
4794635919
4794642938
4794647210
4794661431
4794667901
4794674981
4794682305
4794689751
4794696526
4794704949
4794711236
4794722527
4794728753
4794738396
4794744927
4794754143
4794760064
4794769097
4794777703
4794785759
4794792717
4794801690
4794809990
4794818108
4794825554
4794833611
4794841545
4794850090
4794857170
4794865227
4794871575
4794879692
4794888176
4794893914
4794901360
4794911553
4794918633
4794926689
4794934380
4794940300
4794949638
4794957756
4794966362
4794974968
4794983025
4794989433
4794997368
4795005119
4795011894
4795020256
4795024528
4795036186
4795044792
4795050834
4795057243
4795066887
4795072380
4795081169
4795086418
4795097465
4795105644
4795115104
4795123771
4795132438
4795139885
4795146659
4795157035
4795163627
4795172599
4795178459
4795188346
4795194755
4795201286
4795208793
4795214225
4795222526
4795228019
4795234489
4795241630
4795247306
4795255302
4795262077
4795267997
4795273734
4795279777
4795285758
4795290763
4795298637
4795305411
4795311759
4795316642
4795324393
4795331290
4795335807
4795342704
4795348685
4795355094
4795362784
4795368339
4795373282
4795380118
4795385611
4795392325
4795399833
4795405143
4795411124
4795415580
4795421378
4795428946
4795433280
4795441397
4795447806
4795452445
4795458609
4795466239
4795471732
4795477408
4795483084
4795488822
4795494193
4795499930
4795504630
4795511771
4795516837
4795523795
4795529593
4795534049
4795541800
4795546988
4795554984
4795561148
4795567374
4795573172
4795579398
4795584952
4795592276
4795598013
4795605460
4795611563
4795617117
4795624625
4795630484
4795637442
4795644949
4795650686
4795656668
4795661917
4795668081
4795674978
4795680655
4795688467
4795693655
4795701040
4795706961
4795714041
4795720572
4795727652
4795735403
4795742117
4795747610
4795753469
4795760672
4795765432
4795775137
4795781607
4795786672
4795794729
4795799673
4795805837
4795812856
4795819143
4795825430
4795833547
4795839468
4795845510
4795852285
4795858572
4795865530
4795870901
4795879568
4795885671
4795893117
4795898977
4795905386
4795913198
4795917959
4795926015
4795932119
4795939199
4795944692
4795948659
4795960500
4795965200
4795972036
4795978444
4795985036
4795992788
4795998037
4796005300
4796013784
4796019399
4796026662
4796033315
4796038930
4796044423
4796053823
4796059804
4796067128
4796072133
4796079274
4796087026
4796090200
4796099172
4796106252
4796113576
4796119374
4796124867
4796133962
4796139943
4796148488
4796155568
4796162892
4796168752
4796175526
4796182118
4796186574
4796196645
4796203603
4796209157
4796216176
4796222829
4796228810
4796234730
4796242421
4796249379
4796255299
4796261403
4796267689
4796273671
4796278676
4796287526
4796293934
4796300648
4796305714
4796312794
4796320301
4796328175
4796335804
4796342213
4796350087
4796357655
4796364430
4796372608
4796378773
4796386647
4796395069
4796402821
4796409413
4796412831
4796424122
4796429310
4796437550
4796444630
4796452137
4796458790
4796466969
4796472157
4796480640
4796487720
4796494190
4796501820
4796510670
4796517078
4796525074
4796530323
4796538196
4796545521
4796551075
4796556141
4796567676
4796573536
4796580677
4796585865
4796593799
4796601490
4796607288
4796616443
4796625415
4796634510
4796641407
4796650074
4796658435
4796667835
4796674549
4796683093
4796688343
4796698596
4796705860
4796711353
4796718616
4796725513
4796736072
4796740344
4796750903
4796757800
4796766956
4796774463
4796783618
4796790698
4796800525
4796808337
4796816699
4796823779
4796831897
4796839892
4796845813
4796854846
4796861316
4796871142
4796878222
4796885486
4796892016
4796899951
4796907397
4796918444
4796925097
4796933764
4796939135
4796948474
4796953906
4796962817
4796970446
4796978564
4796986071
4796994982
4797002307
4797009204
4797016161
4797025012
4797032031
4797040698
4797048022
4797056567
4797064501
4797072741
4797080187
4797086230
4797092577
4797102770
4797110888
4797119494
4797127795
4797133837
4797142199
4797148241
4797156481
4797164660
4797174364
4797180590
4797188891
4797194811
4797203295
4797209215
4797218676
4797225328
4797235765
4797240160
4797249926
4797256029
4797265123
4797271044
4797279833
4797285997
4797295214
4797301134
4797308641
4797317674
4797323595
4797331712
4797340196
4797348985
4797356920
4797363207
4797371629
4797377306
4797385545
4797394701
4797403917
4797412279
4797419542
4797427232
4797435960
4797441759
4797450426
4797457322
4797466112
4797474412
4797481065
4797490403
4797496629
4797504991
4797511033
4797520677
4797526963
4797536180
4797542039
4797550584
4797557359
4797567002
4797576829
4797585923
4797593553
4797602220
4797607591
4797616563
4797625291
4797631822
4797640122
4797649583
4797656297
4797664658
4797672166
4797680222
4797687730
4797693528
4797700730
4797710313
4797718857
4797726609
4797733506
4797741685
4797747605
4797755295
4797763535
4797772019
4797779099
4797786850
4797794663
4797800583
4797808762
4797814866
4797821152
4797831650
4797838303
4797847153
4797854904
4797861740
4797869065
4797877793
4797885666
4797893967
4797903122
4797909104
4797916672
4797923813
4797932419
4797939743
4797947067
4797956467
4797964279
4797970200
4797976913
4797986069
4797993210
4797999924
4798007614
4798014938
4798022201
4798031418
4798036850
4798044235
4798051437
4798059128
4798068649
4798077133
4798086410
4798093246
4798100326
4798107345
4798114669
4798123764
4798129440
4798139267
4798146225
4798153732
4798161483
4798169113
4798176742
4798186569
4798194442
4798204147
4798211959
4798220016
4798227096
4798234969
4798240768
4798249007
4798256393
4798264510
4798271407
4798279220
4798286422
4798294295
4798301375
4798309737
4798318465
4798324752
4798333541
4798339644
4798348128
4798354842
4798363204
4798372237
4798378158
4798387618
4798395430
4798401717
4798410628
4798416915
4798424117
4798430953
4798438948
4798446456
4798454512
4798461837
4798465987
4798476729
4798481001
4798492110
4798497420
4798508040
4798514937
4798521834
4798527937
4798535506
4798545454
4798552901
4798559004
4798570540
4798578841
4798586714
4798592512
4798601790
4798607771
4798616682
4798626204
4798633284
4798643171
4798651594
4798659285
4798668013
4798675825
4798682783
4798693098
4798699446
4798709455
4798713423
4798723738
4798730268
4798738142
4798744306
4798755659
4798761457
4798767866
4798778059
4798783796
4798792158
4798797834
4798807050
4798811872
4798822614
4798828718
4798835920
4798842085
4798850690
4798857099
4798867170
4798871259
4798882612
4798887006
4798895856
4798901777
4798912214
4798919172
4798927106
4798935773
4798943220
4798951093
4798957502
4798963544
4798972150
4798978681
4798987592
4798993879
4799002790
4799008161
4799017499
4799024457
4799031171
4799039716
4799048322
4799057782
4799065412
4799073285
4799080060
4799085126
4799096662
4799105512
4799112836
4799118878
4799127606
4799134625
4799143720
4799148846
4799157025
4799166791
4799175275
4799181927
4799189862
4799196149
4799204205
4799211407
4799217511
4799223187
4799232525
4799239117
4799248639
4799255963
4799262127
4799267804
4799276410
4799284222
4799292462
4799299908
4799306744
4799314129
4799321392
4799328595
4799335430
4799344403
4799352398
4799360516
4799367230
4799371319
4799380352
4799386761
4799395428
4799406719
4799414654
4799423016
4799430706
4799439861
4799448162
4799455914
4799464581
4799474712
4799483684
4799490887
4799498089
4799506512
4799513836
4799522259
4799527569
4799537212
4799544292
4799553814
4799559978
4799568828
4799574627
4799583172
4799590862
4799601360
4799607219
4799616497
4799622295
4799630962
4799636760
4799645732
4799653240
4799660930
4799668865
4799678020
4799686138
4799694988
4799701763
4799711040
4799720989
4799727214
4799736675
4799742107
4799751323
4799758342
4799765239
4799773723
4799781230
4799790446
4799797832
4799805583
4799812968
4799820537
4799828471
4799837077
4799846477
4799854472
4799861613
4799870463
4799876994
4799885966
4799892558
4799904216
4799911296
4799920634
4799927226
4799936137
4799942790
4799949809
4799957682
4799967448
4799975993
4799982585
4799989420
4799998087
4800003459
4800012553
4800022685
4800031535
4800038432
4800044352
4800051066
4800059977
4800065958
4800074747
4800079813
4800090861
4800097025
4800105753
4800113016
4800120829
4800127360
4800136088
4800142801
4800153544
4800159708
4800168802
4800175211
4800184549
4800190226
4800198893
4800204203
4800214273
4800221903
4800230509
4800237955
4800243936
4800250955
4800257913
4800261881
4800274210
4800282755
4800289652
4800297525
4800307413
4800315164
4800323160
4800331949
4800339761
4800348672
4800352884
4800364114
4800371805
4800378824
4800385904
4800395975
4800403665
4800410440
4800419534
4800428079
4800433877
4800443277
4800450479
4800460611
4800467569
4800475564
4800483804
4800492227
4800499124
4800507302
4800514199
4800520181
4800528604
4800535256
4800545144
4800554360
4800560159
4800566018
4800577371
4800583596
4800593667
4800599770
4800607888
4800613931
4800622537
4800628579
4800638894
4800645119
4800655190
4800662026
4800671426
4800677956
4800686806
4800692300
4800702798
4800711770
4800719887
4800726540
4800734597
4800741616
4800749428
4800756020
4800764077
4800772500
4800778420
4800786843
4800795632
4800802468
4800810341
4800818520
4800827614
4800835427
4800841469
4800849953
4800858376
4800865273
4800873085
4800882240
4800891457
4800899513
4800906227
4800915321
4800921059
4800929237
4800935280
4800942909
4800951515
4800960670
4800966652
4800974647
4800980812
4800989601
4800995582
4801005226
4801011452
4801020973
4801027138
4801033912
4801041786
4801048561
4801057045
4801063820
4801073463
4801082008
4801088295
4801096595
4801103065
4801108802
4801117775
4801126930
4801135414
4801141639
4801149513
4801155189
4801164100
4801169898
4801178504
4801185462
4801194618
4801202796
4801211036
4801216895
4801225929
4801233680
4801240455
4801247535
4801257667
4801265784
4801271827
4801279883
4801287757
4801294288
4801302222
4801311866
4801319495
4801327003
4801333960
4801341712
4801347510
4801357581
4801367347
4801374366
4801382300
4801389380
4801398108
4801406348
4801413184
4801421180
4801431250
4801437659
4801446570
4801456458
4801464453
4801473059
4801480261
4801488745
4801497107
4801505408
4801512976
4801522376
4801530249
4801534766
4801546484
4801550818
4801563574
4801569800
4801578589
4801587561
4801594397
4801603918
4801610449
4801620032
4801628637
4801635046
4801642859
4801651404
4801657934
4801665686
4801673376
4801682409
4801691504
4801697607
4801705847
4801713964
4801720373
4801728430
4801736181
4801743505
4801751684
4801757665
4801765783
4801772192
4801780370
4801787512
4801795629
4801803259
4801811865
4801819677
4801826269
4801832006
4801840856
4801847326
4801856908
4801862096
4801874792
4801880712
4801890050
4801898107
4801905248
4801912511
4801919347
4801927648
4801937108
4801942968
4801952184
4801959020
4801969030
4801975072
4801984716
4801991918
4802001256
4802009130
4802017980
4802025731
4802033361
4802041417
4802050817
4802058446
4802066380
4802073338
4802081151
4802088963
4802096959
4802103734
4802110509
4802120152
4802130040
4802137425
4802145482
4802151463
4802160619
4802166722
4802174596
4802184849
4802191014
4802200108
4802205540
4802214329
4802221165
4802230992
4802237340
4802247044
4802255284
4802262974
4802269139
4802278477
4802283482
4802291844
4802301487
4802309910
4802318089
4802324314
4802332981
4802341282
4802349156
4802357884
4802365147
4802371433
4802380711
4802386814
4802395298
4802401402
4802410374
4802418736
4802426853
4802435947
4802445103
4802451084
4802460178
4802466709
4802473423
4802481113
4802488804
4802496921
4802503513
4802512241
4802518955
4802526890
4802534641
4802540500
4802547214
4802556369
4802564975
4802572788
4802579807
4802587558
4802593357
4802601230
4802608188
4802617771
4802623447
4802634983
4802643344
4802652011
4802658542
4802668002
4802676608
4802684543
4802693088
4802699558
4802707309
4802716342
4802721896
4802728305
4802737765
4802743808
4802755099
4802760043
4802771457
4802778415
4802787143
4802795199
4802802585
4802809909
4802819003
4802825717
4802834323
4802841037
4802847995
4802855868
4802866427
4802871981
4802880954
4802887118
4802896579
4802902560
4802911471
4802919284
4802926669
4802934359
4802941806
4802949374
4802956332
4802964633
4802971957
4802976840
4802988070
4802996249
4803003451
4803009249
4803018771
4803026278
4803032931
4803040133
4803050814
4803058626
4803065523
4803073641
4803081148
4803088290
4803095247
4803099215
4803111910
4803119356
4803128634
4803138582
4803145723
4803149935
4803161593
4803168306
4803179476
4803185335
4803194124
4803201570
4803209078
4803216951
4803224214
4803232210
