6055836914
6055842529
6055848327
6055854431
6055860656
6055865234
6055871826
6055878234
6055883544
6055890075
6055896545
6055902404
6055907165
6055913573
6055921264
6055927184
6055933593
6055942626
6055949523
6055955382
6055960570
6055967345
6055975463
6055980285
6055988524
6055996459
6056002318
6056011657
6056019103
6056026305
6056035521
6056045409
6056052123
6056063720
6056071471
6056076842
6056084960
6056093871
6056100280
6056107054
6056115782
6056125914
6056132445
6056141722
6056148924
6056156371
6056163329
6056169798
6056177794
6056186278
6056192870
6056199339
6056205809
6056212279
6056218810
6056229002
6056234679
6056241759
6056247374
6056255492
6056261107
6056268919
6056277647
6056284605
6056293028
6056301390
6056308165
6056317747
6056325316
6056328001
6056338804
6056349302
6056355406
6056363340
6056369566
6056378782
6056385252
6056394102
6056401792
6056409544
6056416502
6056423399
6056430662
6056437620
6056443479
6056452390
6056459898
6056467466
6056473936
6056481748
6056488340
6056498655
6056505857
6056514463
6056519834
6056526792
6056533750
6056542112
6056547178
6056557127
6056563169
6056572263
6056576780
6056586423
6056594785
6056601926
6056611204
6056617002
6056625730
6056632383
6056640378
6056644468
6056653562
6056661802
6056669309
6056677488
6056685117
6056691281
6056698911
6056705075
6056712888
6056722776
6056729550
6056737485
6056743405
6056750913
6056757077
6056767636
6056777280
6056786069
6056793454
6056800473
6056809995
6056816586
6056827145
6056832028
6056842526
6056851193
6056857419
6056867062
6056873349
6056882931
6056890927
6056898617
6056905819
6056913876
6056920956
6056928036
6056935238
6056942318
6056949276
6056958737
6056965329
6056972897
6056979977
6056985836
6056992916
6057001034
6057009335
6057015621
6057024838
6057031674
6057039364
6057043514
6057053402
6057057919
6057069637
6057076595
6057083675
6057090328
6057097408
6057103573
6057110531
6057118893
6057127193
6057133358
6057141109
6057148128
6057155819
6057162533
6057168819
6057179134
6057186703
6057194393
6057201229
6057208370
6057212520
6057220943
6057228878
6057236385
6057244686
6057251705
6057258907
6057266170
6057271907
6057278743
6057288631
6057294979
6057302242
6057307979
6057316646
6057322139
6057328548
6057336177
6057344417
6057351802
6057358699
6057366634
6057373897
6057382686
6057391658
6057400752
6057408931
6057416011
6057423640
6057429256
6057438106
6057445918
6057454890
6057460139
6057470027
6057476863
6057484065
6057491023
6057501094
6057508418
6057518794
6057526973
6057534602
6057543940
6057549739
6057558101
6057564692
6057573237
6057581721
6057586848
6057595271
6057600337
6057608637
6057616633
6057624690
6057631404
6057639521
6057645442
6057654109
6057660456
6057666621
6057673029
6057682063
6057689448
6057696589
6057703303
6057710261
6057718684
6057724055
6057733454
6057741389
6057747858
6057755488
6057762751
6057768610
6057775385
6057781550
6057791620
6057799311
6057806940
6057813532
6057821222
6057827875
6057834284
6057842585
6057849237
6057856745
6057863092
6057870478
6057877253
6057883600
6057891535
6057900019
6057907282
6057914118
6057920038
6057928217
6057935236
6057942499
6057949640
6057957697
6057965814
6057972467
6057980097
6057987238
6057995294
6058000360
6058011102
6058018121
6058026910
6058035089
6058042535
6058050226
6058058465
6058067621
6058076105
6058083246
6058090265
6058096185
6058103814
6058109247
6058118341
6058125360
6058132196
6058140069
6058145013
6058153863
6058162286
6058168267
6058175225
6058182855
6058188836
6058196649
6058205621
6058212762
6058220880
6058225701
6058235223
6058243035
6058250237
6058258111
6058266656
6058274102
6058280633
6058288384
6058296075
6058303277
6058309747
6058315911
6058324090
6058330498
6058339043
6058346856
6058353264
6058361199
6058366448
6058373650
6058380059
6058386468
6058394524
6058400933
6058406731
6058413201
6058419365
6058425469
6058432610
6058438958
6058445977
6058452080
6058458977
6058464226
6058473137
6058479790
6058488335
6058496269
6058503777
6058509209
6058516350
6058522148
6058528252
6058536980
6058543144
6058550774
6058556450
6058564018
6058569573
6058577446
6058584343
6058591728
6058596245
6058604362
6058610771
6058618462
6058625603
6058631157
6058637627
6058646477
6058653740
6058661186
6058665397
6058674614
6058680900
6058687675
6058694267
6058703666
6058710319
6058717216
6058723259
6058731437
6058737602
6058744987
6058754020
6058761772
6058768241
6058775322
6058784721
6058791618
6058800712
6058808036
6058818168
6058825675
6058833671
6058841056
6058848441
6058855155
6058859001
6058868522
6058876884
6058882377
6058889457
6058896232
6058903373
6058910026
6058916618
6058922111
6058930411
6058938773
6058944083
6058951896
6058959708
6058965201
6058973380
6058978995
6058988151
6058996024
6059003898
6059009879
6059016898
6059024283
6059031241
6059036856
6059046256
6059054007
6059059867
6059067069
6059074637
6059082083
6059087638
6059095511
6059103018
6059110709
6059118033
6059125479
6059130667
6059138053
6059145316
6059153250
6059159049
6059168814
6059177786
6059183218
6059190298
6059197501
6059205313
6059210867
6059217398
6059225638
6059233328
6059241141
6059247977
6059253592
6059259634
6059268912
6059276297
6059284170
6059290518
6059297781
6059304983
6059312491
6059319021
6059326468
6059335623
6059343252
6059351126
6059361563
6059368216
6059377554
6059384146
6059391287
6059397329
6059407522
6059416860
6059423818
6059430349
6059439626
6059445791
6059453298
6059461355
6059469106
6059477590
6059484487
6059490774
6059498220
6059506826
6059511770
6059521657
6059529653
6059540639
6059546499
6059557241
6059567129
6059573842
6059583913
6059593740
6059602285
6059608510
6059616872
6059622915
6059630361
6059636403
6059645498
6059650014
6059661061
6059665578
6059674611
6059680715
6059687856
6059694081
6059702077
6059708608
6059718495
6059724843
6059731496
6059739308
6059746266
6059752492
6059760610
6059767140
6059773671
6059781911
6059790028
6059797963
6059806630
6059811452
6059821095
6059830678
6059838368
6059845021
6059852162
6059859730
6059865285
6059869496
6059879567
6059884755
6059895375
6059900380
6059909840
6059916432
6059925099
6059931691
6059939198
6059945424
6059954335
6059960621
6059970082
6059976246
6059984059
6059991871
6059999623
6060005543
6060014576
6060022938
6060030140
6060036122
6060043751
6060050831
6060057545
6060067005
6060072071
6060083546
6060090626
6060098133
6060104664
6060113636
6060120350
6060127491
6060133289
6060144886
6060150928
6060159412
6060165577
6060173816
6060180042
6060188648
6060195301
6060203479
6060214283
6060222828
6060231250
6060238819
6060247913
6060257007
6060266529
6060276172
6060282642
6060291919
6060299060
6060309131
6060315296
6060323963
6060330371
6060342212
6060349414
6060356921
6060364002
6060373401
6060379321
6060387988
6060392993
6060402637
6060411731
6060419116
6060424792
6060432239
6060439502
6060446948
6060452807
6060461658
6060469958
6060478198
6060486377
6060492236
6060500659
6060508471
6060517077
6060523303
6060532275
6060537768
6060546008
6060551562
6060559314
6060567065
6060576464
6060582263
6060589404
6060596850
6060602893
6060610888
6060615527
6060624865
6060633166
6060640795
6060648913
6060656054
6060662585
6060670336
6060677050
6060686510
6060693529
6060701647
6060708666
6060717821
6060724779
6060730639
6060738634
6060745592
6060753466
6060761584
6060769396
6060777697
6060783739
6060792223
6060798143
6060806383
6060812426
6060821825
6060830004
6060838427
6060844469
6060849352
6060861437
6060869371
6060875963
6060881090
6060891161
6060899401
6060907091
6060914659
6060921251
6060927843
6060934801
6060943773
6060953294
6060960436
6060967943
6060974535
6060981859
6060988023
6060996690
6061004442
6061011949
6061020250
6061027208
6061033372
6061041734
6061047899
6061055589
6061063707
6061072679
6061082933
6061091539
6061098619
6061105882
6061115037
6061122850
6061131028
6061136338
6061145494
6061152513
6061160142
6061167283
6061174852
6061179368
6061188767
6061193406
6061202622
6061210191
6061218003
6061222276
6061231736
6061238816
6061244920
6061251756
6061261948
6061266892
6061275681
6061281846
6061288438
6061294663
6061303513
6061310227
6061317673
6061324815
6061334580
6061340745
6061346665
6061355088
6061361313
6061369614
6061377305
6061384079
6061392930
6061399643
6061406785
6061412766
6061421067
6061429001
6061436020
6061444260
6061450425
6061458420
6061464157
6061473679
6061478318
6061487412
6061496628
6061505478
6061510544
6061521469
6061526108
6061535019
6061541611
6061550034
6061557602
6061566147
6061573105
6061581467
6061587448
6061595688
6061601852
6061609604
6061617477
6061624679
6061633041
6061641159
6061647568
6061655075
6061661911
6061668503
6061675949
6061683090
6061693466
6061700302
6061708175
6061714828
6061722824
6061729782
6061737167
6061743148
6061754074
6061760421
6061767929
6061775863
6061782455
6061790451
6061798324
6061804305
6061814010
6061822738
6061830367
6061836898
6061848190
6061860152
6061870712
6061880904
6061889815
6061898788
6061907699
6061916000
6061923812
6061931930
6061940169
6061947982
6061956771
6061962813
6061971541
6061977645
6061986617
6061994429
6062001510
6062009444
6062018172
6062024215
6062032271
6062040389
6062045943
6062053572
6062060775
6062070967
6062078658
6062084578
6062091231
6062100142
6062106978
6062115279
6062122176
6062131331
6062138106
6062146040
6062152937
6062159651
6062169051
6062176009
6062184737
6062192305
6062200850
6062207869
6062216536
6062222517
6062230208
6062237532
6062246687
6062254194
6062262922
6062269392
6062278547
6062287825
6062293928
6062302595
6062309858
6062318403
6062327253
6062335981
6062342573
6062351423
6062356489
6062366621
6062374983
6062382124
6062389387
6062398481
6062407881
6062414167
6062423567
6062431745
6062438398
6062447309
6062453718
6062460798
6062470991
6062479353
6062485944
6062493391
6062501874
6062509016
6062517499
6062527204
6062534528
6062541120
6062551191
6062557844
6062566022
6062574811
6062582929
6062589521
6062598859
6062605451
6062614789
6062621503
6062629804
6062637494
6062644635
6062654096
6062662335
6062671186
6062685651
6062694501
6062702619
6062710919
6062713727
6062726544
6062738263
6062744550
6062754315
6062761884
6062768842
6062775372
6062783307
6062790082
6062799054
6062805829
6062815228
6062822003
6062829327
6062835248
6062843548
6062852276
6062860455
6062866681
6062874371
6062882367
6062890484
6062896527
6062904095
6062912701
6062923138
6062929058
6062939495
6062946392
6062953839
6062959881
6062968487
6062974530
6062984173
6062990032
6062999615
6063005840
6063014813
6063020794
6063025433
6063035809
6063044659
6063052227
6063059368
6063067364
6063074261
6063082317
6063090679
6063099651
6063106304
6063114788
6063122417
6063131145
6063137615
6063145550
6063152813
6063161663
6063169353
6063179607
6063186809
6063195781
6063202984
6063212261
6063219646
6063227947
6063234478
6063243084
6063251628
6063259685
6063266460
6063271770
6063283061
6063288127
6063298808
6063306011
6063314617
6063321819
6063332317
6063339458
6063346416
6063355815
6063363750
6063370280
6063378947
6063385783
6063395305
6063401836
6063410319
6063419047
6063425151
6063435283
6063440837
6063452800
6063463603
6063470134
6063476298
6063488200
6063496623
6063505412
6063510722
6063519816
6063534648
6063543559
6063550944
6063557231
6063565898
6063574687
6063582255
6063588359
6063597941
6063603983
6063612040
6063620646
6063628336
6063634501
6063643839
6063649821
6063658183
6063666483
6063674662
6063680704
6063686503
6063696757
6063705607
6063713663
6063720255
6063728800
6063737467
6063743571
6063752482
6063758707
6063767740
6063775736
6063781900
6063789835
6063794535
6063804911
6063812906
6063819010
6063826700
6063835550
6063840311
6063850016
6063856851
6063865457
6063872293
6063879618
6063886637
6063895853
6063902506
6063912332
6063919718
6063926798
6063933206
6063943765
6063950235
6063959146
6063967874
6063975320
6063981973
6063991373
6063998148
6064007425
6064014810
6064021951
6064032144
6064039285
6064048562
6064055826
6064064187
6064071390
6064079507
6064089212
6064096963
6064103616
6064112527
6064119119
6064129434
6064136575
6064142007
6064153604
6064159097
6064171975
6064178140
6064192971
6064201638
6064211526
6064221230
6064229775
6064237954
6064244485
6064251138
6064256509
6064264138
6064270303
6064276528
6064286355
6064294289
6064302102
6064310158
6064317605
6064325295
6064332131
6064342934
6064348305
6064356545
6064360756
6064369484
6064376992
6064383522
6064390969
6064397316
6064404580
6064412514
6064419167
6064426979
6064434304
6064440590
6064448281
6064454201
6064461586
6064469582
6064476601
6064482826
6064490273
6064498940
6064505959
6064511940
6064522011
6064528725
6064536232
6064542458
6064550453
6064558510
6064566933
6064574867
6064596107
6064604774
6064612709
6064620766
6064628700
6064636574
6064642494
6064652565
6064658241
6064666786
6064675453
6064681495
6064689308
6064697059
6064704750
6064712196
6064718971
6064728553
6064733558
6064742897
6064749794
6064757728
6064766273
6064774513
6064781166
6064788490
6064799171
6064806800
6064815833
6064823829
6064830665
6064838050
6064844276
6064853126
6064859229
6064867896
6064874000
6064884376
6064890357
6064898536
6064906592
6064913184
6064921180
6064929053
6064937110
6064944983
6064951331
6064960364
6064966468
6064973975
6064980933
6064987708
6064997229
6065003943
6065012000
6065018836
6065026526
6065035926
6065044287
6065051673
6065059119
6065069495
6065078040
6065085242
6065093299
6065099951
6065108862
6065117713
6065125342
6065133521
6065140845
6065148901
6065156592
6065164587
6065172278
6065178320
6065183142
6065193823
6065202673
6065210730
6065216406
6065225561
6065230566
6065239844
6065247229
6065254309
6065260901
6065268835
6065275610
6065283545
6065289648
6065296484
6065304358
6065311682
6065318212
6065328161
6065334570
6065340795
6065348791
6065354711
6065362524
6065369299
6065374792
6065384863
6065390783
6065397558
6065405004
6065411962
6065419164
6065426061
6065432043
6065442602
6065449255
6065454809
6065463781
6065468603
6065478246
6065485998
6065491979
6065499242
6065509191
6065516393
6065523839
6065530614
6065537877
6065546544
6065552648
6065561620
6065571142
6065577916
6065586034
6065591893
6065600072
6065608068
6065613744
6065621679
6065630590
6065639257
6065646947
6065652867
6065662389
6065668187
6065676732
6065682775
6065689733
6065698949
6065707372
6065713841
6065720372
6065730321
6065737889
6065744969
6065752721
6065762913
6065768040
6065777989
6065784581
6065792393
6065799046
6065806859
6065815953
6065827305
6065842198
6065853428
6065866246
6065880467
6065887242
6065895482
6065901951
6065909520
6065917271
6065924900
6065933018
6065939061
6065946446
6065953709
6065960850
6065966465
6065973973
6065981236
6065988255
6065997349
6066005100
6066013279
6066021153
6066030064
6066038120
6066046055
6066056187
6066061619
6066070469
6066080112
6066086643
6066095188
6066104038
6066111912
6066117710
6066126255
6066131809
6066140598
6066146152
6066153110
6066161289
6066169162
6066177829
6066184665
6066190647
6066199741
6066205661
6066213352
6066221225
6066229160
6066237949
6066243991
6066252902
6066257541
6066266025
6066272617
6066281528
6066288547
6066296665
6066305637
6066313327
6066319980
6066327304
6066333286
6066341098
6066348911
6066358127
6066364719
6066372226
6066380283
6066388278
6066394321
6066399264
6066409030
6066418246
6066426669
6066431979
6066442477
6066452060
6066460360
6066467746
6066476840
6066486605
6066493258
6066504000
6066511019
6066519015
6066525790
6066532931
6066540316
6066549594
6066556735
6066566195
6066573458
6066583834
6066591830
6066600863
6066608920
6066621127
6066625765
6066636935
6066641817
6066652438
6066660372
6066667940
6066674715
6066683565
6066690462
6066697848
6066704623
6066714144
6066720980
6066727999
6066736849
6066743563
6066752291
6066760164
6066766207
6066774447
6066780489
6066788790
6066796785
6066805025
6066810884
6066818819
6066826815
6066834627
6066840731
6066848360
6066856844
6066861788
6066871797
6066878572
6066886690
6066893465
6066903414
6066910738
6066917329
6066927522
6066935945
6066942476
6066951387
6066960847
6066967989
6066974458
6066984590
6066991304
6067001314
6067007844
6067012849
6067024934
6067030366
6067038850
6067046174
6067055940
6067063569
6067072175
6067079438
6067087495
6067096772
6067104036
6067110994
6067119355
6067125764
6067136018
6067142488
6067152009
6067158296
6067167207
6067173432
6067182466
6067188935
6067201386
6067208589
6067217255
6067224274
6067231110
6067240144
6067246491
6067256074
6067264130
6067271638
6067281525
6067288239
6067296235
6067304841
6067312592
6067319306
6067328950
6067337555
6067342804
6067353486
6067358735
6067369416
6067376801
6067384003
6067390778
6067401276
6067408600
6067422943
6067431427
6067441620
6067450653
6067458100
6067466461
6067480255
6067488556
6067495087
6067503632
6067511688
6067517853
6067525848
6067534088
6067541656
6067548920
6067555878
6067561371
6067567779
6067575104
6067581573
6067587555
6067594269
6067600555
6067605926
6067614166
6067619537
6067626739
6067632477
6067638885
6067644378
6067652374
6067658416
6067664093
6067669525
6067677887
6067684539
6067690948
6067697723
6067704071
6067709076
6067715362
6067722503
6067728668
6067734283
6067740631
6067744903
6067752166
6067758819
6067764739
6067770477
6067777130
6067783599
6067788238
6067794586
6067799224
6067805755
6067810333
6067816436
6067822906
6067830352
6067836639
6067842559
6067849090
6067855376
6067861968
6067868804
6067875030
6067881499
6067885161
6067892364
6067897918
6067905608
6067910979
6067917449
6067924163
6067930205
6067937530
6067943328
6067950042
6067956023
6067961455
6067969268
6067972869
6067978911
6067984587
6067990203
6067998320
6068002654
6068010344
6068017913
6068026152
6068033354
6068042571
6068049956
6068056059
6068063933
6068072722
6068079802
6068085906
6068092070
6068097991
6068104155
6068110320
6068117033
6068123808
6068129851
6068134978
6068142790
6068147734
6068155730
6068162016
6068168608
6068175627
6068182158
6068188689
6068195280
6068201750
6068208403
6068214812
6068221525
6068228422
6068235258
6068243681
6068249113
6068255278
6068262358
6068268156
6068275297
6068281034
6068288603
6068296476
6068302824
6068309599
6068315947
6068322599
6068329008
6068336271
6068343412
6068349882
6068356718
6068363615
6068370329
6068375273
6068383146
6068388151
6068396330
6068401151
6068408231
6068414762
6068421537
6068428861
6068435575
6068440763
6068449247
6068454679
6068462125
6068467435
6068474943
6068480375
6068487882
6068493680
6068501554
6068507169
6068514066
6068521940
6068528104
6068534635
6068542325
6068548856
6068555753
6068562284
6068567777
6068575345
6068581388
6068587857
6068594999
6068601529
6068607938
6068614896
6068621122
6068626554
6068633756
6068639310
6068648831
6068658109
6068664395
6068673123
6068678861
6068687894
6068694180
6068704923
6068712918
6068721768
6068727994
6068735806
6068742886
6068749661
6068756192
6068763028
6068769498
6068774991
6068781705
6068788724
6068795193
6068801663
6068808011
6068814419
6068821683
6068827176
6068834012
6068840909
6068848843
6068855862
6068863430
6068869961
6068875576
6068882168
6068889431
6068895657
6068901883
6068909512
6068915432
6068922940
6068928616
6068935635
6068941189
6068948696
6068954739
6068964138
6068970181
6068977078
6068983181
6068991909
6068998074
6069005398
6069011929
6069019985
6069026455
6069033779
6069039394
6069047024
6069052578
6069060818
6069068325
6069077053
6069082912
6069090908
6069098293
6069105190
6069112514
6069118068
6069125454
6069135341
6069141079
6069149135
6069154689
6069158901
6069169094
6069173427
6069182277
6069188991
6069198696
6069203334
6069214260
6069223293
6069229213
6069238307
6069244655
6069254054
6069260280
6069269069
6069277919
6069286891
6069294154
6069302333
6069309718
6069320522
6069327846
6069335353
6069342128
6069352321
6069359401
6069368007
6069375575
6069385646
6069392665
6069401698
6069408534
6069415980
6069424708
6069432216
6069438746
6069446986
6069453151
6069462062
6069466700
6069476039
6069484095
6069491542
6069499476
6069507106
6069512904
6069520716
6069528590
6069534144
6069541712
6069549037
6069558131
6069565943
6069571375
6069578517
6069585902
6069593409
6069597620
6069606104
6069612818
6069620936
6069628626
6069636561
6069640833
6069648890
6069654871
6069662379
6069670862
6069678614
6069685450
6069692347
6069698389
6069706690
6069712794
6069719446
6069725489
6069735743
6069742090
6069750208
6069756373
6069765039
6069772852
6069779078
6069787134
6069796839
6069803614
6069812097
6069817957
6069825525
6069833704
6069841272
6069847803
6069855188
6069863855
6069870813
6069878809
6069885400
6069894861
6069901392
6069908472
6069914636
6069924036
6069930322
6069938501
6069946558
6069952356
6069960229
6069965906
6069975122
6069983972
6069992578
6070001123
6070008142
6070017297
6070026880
6070034875
6070044336
6070055383
6070061670
6070068505
6070076562
6070082055
6070090173
6070097924
6070106530
6070111657
6070122216
6070131249
6070139794
6070148400
6070155725
6070163049
6070172082
6070180200
6070189782
6070198083
6070206200
6070210473
6070220116
6070228356
6070234032
6070244347
6070252038
6070258385
6070265893
6070271020
6070279565
6070284020
6070292321
6070299218
6070309228
6070317040
6070325097
6070331872
6070339806
6070348961
6070354943
6070364647
6070370629
6070379357
6070384911
6070393395
6070400780
6070406945
6070414391
6070421593
6070429466
6070436486
6070442040
6070449608
6070457482
6070463219
6070470421
6070479637
6070488426
6070493797
6070506310
6070514977
6070523399
6070530663
6070539207
6070542442
6070554954
6070560081
6070570885
6070575828
6070587059
6070592064
6070600609
6070607933
6070617637
6070624778
6070632469
6070638328
6070647117
6070653221
6070661522
6070669639
6070678245
6070686546
6070689292
6070700401
6070705040
6070714378
6070720970
6070730552
6070735740
6070746238
6070753440
6070761192
6070767783
6070775352
6070784019
6070790244
6070796165
6070805930
6070812644
6070820945
6070829002
6070836326
6070844199
6070849815
6070857505
6070865439
6070872825
6070881370
6070888633
6070895225
6070903647
6070911094
6070919150
6070925986
6070936850
6070944236
6070953208
6070962912
6070969992
6070977256
6070986655
6070994162
6071002219
6071009116
6071016867
6071022971
6071030234
6071038230
6071044577
6071051291
6071059653
6071066184
6071073264
6071081137
6071089560
6071098166
6071103293
6071111899
6071119223
6071125082
6071134238
6071140280
6071148520
6071154623
6071162192
6071169394
6071178671
6071186056
6071193503
6071199423
6071208090
6071214071
6071222433
6071230673
6071240500
6071247091
6071254904
6071262838
6071268698
6071276632
6071284750
6071290731
6071298788
6071307211
6071312521
6071321920
6071328512
6071337606
6071344503
6071352621
6071360189
6071368917
6071376180
6071384115
6071390096
6071398397
6071404440
6071409017
6071419393
6071428670
6071436971
6071442831
6071451864
6071456502
6071465963
6071473592
6071480245
6071487508
6071495809
6071502950
6071510396
6071519185
6071526204
6071532247
6071539632
6071547750
6071555562
6071564351
6071571431
6071577413
6071585591
6071593526
6071598409
6071607869
6071615804
6071624227
6071629109
6071638631
6071646016
6071656819
6071662435
6071674886
6071683003
6071695088
6071702962
6071712544
6071722310
6071731587
6071740254
6071747334
6071757161
6071764119
6071773579
6071779805
6071788655
6071794942
6071801838
6071808308
6071817585
6071823994
6071832417
6071838459
6071845478
6071851155
6071858784
6071867390
6071875386
6071881733
6071888325
6071896199
6071903157
6071908894
6071916401
6071921833
6071932148
6071938374
6071946491
6071952595
6071962116
6071968220
6071976215
6071984089
6071990925
6071999531
6072004231
6072014362
6072019062
6072027668
6072034321
6072043232
6072050495
6072059833
6072066852
6072073810
6072082416
6072088703
6072094623
6072102741
6072111042
6072120258
6072127094
6072135395
6072143390
6072151142
6072157184
6072161701
6072172199
6072180805
6072187458
6072194599
6072206073
6072211566
6072222370
6072231708
6072238178
6072243305
6072254169
6072262653
6072268573
6072273212
6072283222
6072290790
6072299335
6072304401
6072313617
6072320758
6072329974
6072336749
6072343768
6072350360
6072357562
6072363727
6072373797
6072383868
6072391192
6072397052
6072405902
6072412127
6072417804
6072427020
6072432208
6072443072
6072451129
6072457293
6072464862
6072472430
6072479937
6072488116
6072495623
6072507159
6072516131
6072524493
6072533282
6072544512
6072551959
6072560381
6072570574
6072576251
6072584429
6072592303
6072598956
6072604632
6072612811
6072618243
6072627276
6072635943
6072643755
6072649370
6072658098
6072663897
6072671953
6072677386
6072687151
6072695696
6072701067
6072708574
6072716509
6072722124
6072729631
6072738176
6072746477
6072752520
6072760149
6072767473
6072774004
6072781816
6072788042
6072796221
6072806536
6072813188
6072821428
6072827471
6072834001
6072842058
6072848528
6072856523
6072863664
6072872270
6072879228
6072888200
6072894975
6072901994
6072907915
6072916521
6072924882
6072934770
6072941301
6072949419
6072955583
6072961198
6072970842
6072975603
6072986467
6072992021
6073002580
6073007463
6073015947
6073022599
6073030656
6073037309
6073044999
6073051469
6073062516
6073069902
6073076738
6073082658
6073091264
6073099137
6073105668
6073113908
6073122758
6073131486
6073137162
6073145158
6073151811
6073161210
6073168900
6073175187
6073182206
6073191544
6073198808
6073206925
6073215653
6073222977
6073229020
6073236893
6073243119
6073254655
6073261735
6073271866
6073278824
6073287797
6073296952
6073305008
6073313248
6073321915
6073329117
6073338883
6073344681
6073352616
6073358048
6073366227
6073373734
6073381668
6073387589
6073395890
6073403336
6073409806
6073415360
6073422806
6073430191
6073439346
6073447403
6073454361
6073461746
6073467056
6073474686
6073479080
6073489273
6073497757
6073505692
6073510879
6073518936
6073526565
6073532120
6073538223
6073546951
6073555435
6073562393
6073569778
6073577896
6073582596
6073591873
6073600113
6073608230
6073613418
6073622940
6073629898
6073639358
6073646927
6073653579
6073660171
6073668411
6073675796
6073685806
6073693069
6073701553
6073708145
6073715957
6073721939
6073730056
6073739272
6073747817
6073754226
6073762710
6073768691
6073774368
6073784133
6073789016
6073798904
6073808425
6073816909
6073823012
6073831008
6073838637
6073845046
6073851760
6073860671
6073867751
6073874343
6073883071
6073888503
6073897231
6073904921
6073910903
6073916457
6073926467
6073933059
6073941298
6073948378
6073957473
6073962111
6073972243
6073976882
6073986952
6073995864
6074003798
6074011366
6074018935
6074027602
6074034682
6074041518
6074050917
6074057692
6074069716
6074077223
6074087111
6074093581
6074102858
6074109206
6074118178
6074124525
6074134474
6074140700
6074148878
6074156203
6074162123
6074169630
6074177138
6074184645
6074192396
6074200392
6074207228
6074214735
6074221754
6074229078
6074235853
6074243361
6074252272
6074258192
6074263380
6074272657
6074280226
6074285719
6074289930
6074300123
6074309461
6074315199
6074323316
6074329115
6074336927
6074343641
6074350355
6074358595
6074366041
6074375379
6074382398
6074391126
6074397840
6074405042
6074411207
6074418775
6074427808
6074438306
6074444959
6074453992
6074459974
6074468519
6074474744
6074482923
6074490857
6074497388
6074505323
6074513196
6074521924
6074531446
6074541089
6074549146
6074558057
6074566907
6074573560
6074578687
6074587964
6074595410
6074603650
6074611218
6074616834
6074623975
6074633985
6074641187
6074648328
6074657056
6074664136
6074670178
6074678784
6074685132
6074695203
6074702039
6074711194
6074717114
6074725720
6074731885
6074740735
6074746594
6074755871
6074762341
6074770032
6074778760
6074783459
6074792492
6074799634
6074807263
6074814526
6074823925
6074831799
6074840161
6074847180
6074856457
6074863110
6074873242
6074880261
6074890637
6074897045
6074906567
6074913098
6074920056
6074928051
6074935009
6074940746
6074951794
6074958263
6074964611
6074972607
6074979382
6074984753
6074992260
6074999950
6075007763
6075016430
6075023266
6075028698
6075036266
6075043468
6075050182
6075057812
6075065441
6075073253
6075079906
6075085338
6075093029
6075100597
6075106395
6075114879
6075120617
6075131420
6075139415
6075145885
6075152721
6075160717
6075168041
6075176036
6075183361
6075192455
6075199657
6075209361
6075216686
6075226817
6075235301
6075245677
6075253917
6075263683
6075270824
6075280162
6075287059
6075294505
6075303233
6075310313
6075317393
6075326182
6075333812
6075340159
6075346873
6075359752
6075365855
6075374095
6075382335
6075390696
6075396922
6075404979
6075413096
6075417857
6075427440
6075432200
6075441172
6075448802
6075456858
6075462901
6075471324
6075479380
6075486216
6075494578
6075502329
6075508616
6075518504
6075524912
6075533091
6075539805
6075546702
6075554636
6075561533
6075570261
6075578074
6075584361
6075592600
6075599253
6075607188
6075613779
6075622935
6075632090
6075641733
6075651560
6075658152
6075668833
6075675730
6075684946
6075693064
6075702524
6075708628
6075718332
6075724863
6075732798
6075738718
6075746042
6075753977
6075760935
6075767588
6075776499
6075783152
6075790781
6075796945
6075802988
6075810922
6075819162
6075826120
6075834848
6075841440
6075847971
6075856027
6075862619
6075868112
6075876352
6075882333
6075893686
6075900278
6075907114
6075912851
6075920419
6075927743
6075934823
6075943185
6075952951
6075959543
6075967294
6075973581
6075981027
6075988962
6075995858
6076004098
6076012277
6076020883
6076028329
6076034677
6076039682
6076049874
6076057931
6076064035
6076071054
6076080453
6076088388
6076095956
6076102609
6076110665
6076117318
6076125375
6076132821
6076142159
6076148812
6076156686
6076162850
6076171090
6076179208
6076186410
6076192574
6076201424
6076210152
6076214974
6076223641
6076232552
6076240243
6076247079
6076254098
6076264840
6076271859
6076279000
6076288338
6076295113
6076301644
6076310372
6076317086
6076323250
6076334481
6076341133
6076347969
6076356148
6076363777
6076370003
6076374764
6076386055
6076395272
6076402413
6076407784
6076419930
6076430184
6076441109
6076445015
6076459297
6076469246
6076476631
6076488167
6076494637
6076502815
6076508430
6076517158
6076523323
6076532966
6076539436
6076547737
6076555733
6076562813
6076568794
6076573677
6076583748
6076593452
6076601448
6076605781
6076615181
6076619514
6076628852
6076635139
6076642768
6076649787
6076659919
6076664863
6076675422
6076682075
6076689521
6076695686
6076704719
6076710945
6076720039
6076726570
6076734687
6076742622
6076749213
6076757209
6076761909
6076772041
6076781135
6076789436
6076795234
6076804206
6076811774
6076817817
6076824531
6076832587
6076839667
6076847602
6076856757
6076862739
6076868964
6076877448
6076883552
6076892890
6076899115
6076908393
6076916999
6076919684
6076930732
6076938971
6076945136
6076952704
6076959479
6076966498
6076975714
6076983039
6076990546
6076997138
6077006720
6077013495
6077020453
6077027228
6077037116
6077043646
6077052496
6077058600
6077066657
6077074652
6077081549
6077089789
6077098517
6077104864
6077114020
6077119208
6077127020
6077131842
6077138739
6077145209
6077152228
6077158331
6077164007
6077169806
6077175482
6077181341
6077188971
6077196234
6077204046
6077209723
6077217352
6077223516
6077230536
6077237432
6077244329
6077251348
6077257940
6077264593
6077269720
6077278082
6077282232
6077289617
6077297186
6077303472
6077309576
6077314398
6077321905
6077327520
6077333502
6077339849
6077345770
6077351629
6077355779
6077362127
6077368047
6077373296
6077380193
6077385625
6077390630
6077396978
6077401556
6077408086
6077413152
6077419622
6077425359
6077430669
6077437139
6077443365
6077449163
6077455633
6077460943
6077468633
6077473028
6077479192
6077484563
6077489690
6077495366
6077500860
6077507146
6077513372
6077518254
6077523931
6077530523
6077535955
6077540166
6077546880
6077554448
6077559941
6077567205
6077572209
6077578374
6077584966
6077589849
6077600408
6077606389
6077612920
6077617925
6077626897
6077633183
6077639226
6077645879
6077652287
6077658696
6077664128
6077673283
6077680424
6077689397
6077697697
6077703007
6077709416
6077714787
6077721440
6077728154
6077734257
6077739751
6077747807
6077752629
6077766545
6077772709
6077779301
6077786686
6077795842
6077803471
6077809208
6077816655
6077824223
6077830571
6077834355
6077842228
6077848454
6077855656
6077862248
6077868351
6077872685
6077879704
6077886601
6077892765
6077901432
6077906376
6077913822
6077918644
6077925663
6077932438
6077937626
6077945438
6077953007
6077958866
6077965885
6077971134
6077978519
6077983768
6077989994
6077995670
6078003361
6078009525
6078016178
6078023624
6078030399
6078039066
6078044803
6078051639
6078059757
6078065799
6078072025
6078078068
6078084720
6078090763
6078098575
6078105228
6078111271
6078117862
6078125248
6078130497
6078137760
6078146427
6078152957
6078159122
6078165287
6078173526
6078178775
6078186099
6078192325
6078199649
6078206668
6078212833
6078217227
6078223819
6078231082
6078238040
6078244815
6078251895
6078258914
6078265689
6078272098
6078278934
6078285220
6078290225
6078299258
6078306460
6078313968
6078319034
6078325442
6078332156
6078336856
6078345645
6078355166
6078360782
6078367862
6078374515
6078381656
6078386660
6078394534
6078402591
6078409610
6078418338
6078425174
6078432925
6078441104
6078448062
6078455081
6078461367
6078469546
6078475588
6078483096
6078488650
6078495364
6078501040
6078509585
6078517153
6078524783
6078528872
6078536990
6078543704
6078551211
6078555239
6078563845
6078571352
6078578799
6078586367
6078593264
6078599306
6078606081
6078612856
6078620547
6078628725
6078634890
6078643801
6078649355
6078656618
6078664065
6078669985
6078677309
6078685854
6078693728
6078699404
6078706606
6078714052
6078719545
6078724184
6078734682
6078743959
6078750124
6078757265
6078764528
6078771974
6078777590
6078783876
6078792421
6078800966
6078809084
6078813600
6078824281
6078833437
6078840517
6078851625
6078858095
6078867616
6078874025
6078881593
6078888917
6078896120
6078903383
6078910341
6078916017
6078922243
6078932985
6078940675
6078946229
6078953798
6078961244
6078965516
6078974672
6078983217
6078991151
6078996278
6079004884
6079009156
6079018190
6079025941
6079033021
6079040162
6079047853
6079055177
6079063172
6079069764
6079077149
6079085877
6079092469
6079098695
6079109010
6079115418
6079123231
6079132447
6079141724
6079148255
6079156922
6079165589
6079174317
6079183778
6079191041
6079199586
6079206238
6079211915
6079220948
6079226807
6079236024
6079242798
6079248597
6079255860
6079263733
6079269227
6079276124
6079283997
6079293030
6079299012
6079305909
6079313355
6079319825
6079327332
6079333680
6079341248
6079349243
6079357361
6079365357
6079371826
6079383057
6079390198
6079398071
6079407654
6079414551
6079421570
6079430542
6079438477
6079445435
6079453369
6079460876
6079466919
6079476868
6079484985
6079492248
6079498291
6079502930
6079513672
6079518555
6079526855
6079533935
6079542480
6079549560
6079558716
6079565368
6079572815
6079578796
6079587585
6079593811
6079603454
6079611755
6079618103
6079626037
6079631774
6079640808
6079645507
6079654846
6079662170
6079672607
6079677978
6079687744
6079692748
6079702209
6079708801
6079716308
6079722961
6079732116
6079738830
6079746948
6079754943
6079761718
6079770141
6079776244
6079784240
6079789916
6079800292
6079805480
6079815185
6079821776
6079829833
6079836608
6079844237
6079851256
6079861754
6079868651
6079876525
6079883300
6079890868
6079896788
6079905089
6079914855
6079923583
6079932738
6079940490
6079947142
6079952330
6079963622
6079968688
6079981810
6079987547
6079997679
6080005553
6080013060
6080019652
6080026976
6080034422
6080039854
6080049803
6080057433
6080063841
6080071104
6080076414
6080084654
6080092284
6080098143
6080107725
6080116331
6080122130
6080130736
6080137572
6080145811
6080152403
6080160032
6080167112
6080176024
6080183043
6080192137
6080198973
6080205198
6080213133
6080219725
6080228147
6080236570
6080245054
6080253172
6080259275
6080267576
6080273619
6080281431
6080289793
6080295347
6080304807
6080311887
6080319090
6080325803
6080334654
6080341489
6080348386
6080354551
6080365049
6080374204
6080380918
6080386961
6080396055
6080402036
6080410947
6080417051
6080425352
6080434141
6080438718
6080449094
6080454099
6080463010
6080469602
6080476621
6080483274
6080494809
6080502134
6080508481
6080516965
6080523069
6080531736
6080538694
6080547422
6080555539
6080562131
6080570981
6080576962
6080584836
6080593320
6080601071
6080606992
6080615353
6080623776
6080628781
6080637387
6080644040
6080652829
6080659543
6080667660
6080674069
6080682919
6080689267
6080697568
6080704709
6080715085
6080722287
6080731015
6080740109
6080751034
6080758236
6080769528
6080777035
6080784787
6080790341
6080797665
6080807003
6080813412
6080821835
6080827877
6080835873
6080842526
6080848080
6080855465
6080863278
6080870663
6080878353
6080884213
6080891476
6080898678
6080906124
6080911862
6080919125
6080928036
6080934261
6080938900
6080950008
6080954708
6080964169
6080970882
6080978878
6080985897
6080995479
6081002437
6081010006
6081015987
6081024166
6081030147
6081038265
6081046566
6081055843
6081064510
6081072200
6081078243
6081083309
6081093441
6081101314
6081107296
6081116085
6081125240
6081130428
6081140987
6081146358
6081158931
6081169124
6081176265
6081183406
6081194270
6081198909
6081208919
6081216487
6081223567
6081230159
6081236751
6081243343
6081253291
6081260188
6081269710
6081275630
6081283748
6081289790
6081295467
6081304988
6081315425
6081321834
6081330379
6081336421
6081343928
6081353023
6081358088
6081366145
6081373713
6081382380
6081390193
6081399409
6081406245
6081415095
6081422358
6081432246
6081440608
6081450495
6081457514
6081465388
6081472163
6081481501
6081488093
6081496516
6081504328
6081512629
6081519221
6081528132
6081538325
6081546809
6081553095
6081562189
6081568293
6081578608
6081584467
6081592036
6081599482
6081606440
6081613886
6081616327
6081626459
6081635065
6081646357
6081654780
6081660639
6081668696
6081677851
6081685907
6081693476
6081701776
6081708307
6081717340
6081724054
6081732294
6081739069
6081747064
6081755243
6081763971
6081771478
6081779901
6081784906
6081795404
6081803400
6081811151
6081818781
6081826898
6081833734
6081843073
6081848444
6081858026
6081865839
6081873590
6081880914
6081889337
6081896844
6081907464
6081915582
6081923578
6081930536
6081939935
6081949945
6081956415
6081965387
6081972833
6081980462
6081988092
6081998285
6082005670
6082014703
6082022454
6082029534
6082037347
6082047967
6082055779
6082064691
6082069757
6082079705
6082085076
6082096795
6082103082
6082113885
6082120904
6082129021
6082138543
6082145257
6082153008
6082161309
6082169732
6082176079
6082181206
6082192254
6082200738
6082209466
6082217705
6082223687
6082228509
6082238946
6082243950
6082254754
6082262322
6082270928
6082281548
6082289544
6082300896
6082307427
6082320305
6082328972
6082335747
6082345024
6082354546
6082361016
6082367607
6082376030
6082382073
6082392876
6082399834
6082407402
6082413445
6082421745
6082429680
6082437004
6082443047
6082452934
6082458427
6082466179
6082473625
6082478874
6082487907
6082492790
6082501640
6082511162
6082517326
6082525261
6082533378
6082541069
6082547172
6082553825
6082562919
6082567985
6082577202
6082584282
6082593071
6082599968
6082606987
6082613029
6082621208
6082629753
6082639396
6082647941
6082653922
6082662040
6082667716
6082676994
6082683586
6082691215
6082699943
6082708976
6082713859
6082723502
6082729118
6082738883
6082745719
6082751640
6082760856
6082769584
6082777030
6082784843
6082791434
6082798942
6082805167
6082812858
6082821830
6082829276
6082837821
6082845450
6082851554
6082859977
6082866141
6082874076
6082880912
6082888114
6082898062
6082906241
6082913382
6082920218
6082928275
6082935111
6082941825
6082948233
6082958853
6082965323
6082974722
6082981009
6082990836
6082997550
6083007315
6083014761
6083024344
6083031485
6083040579
6083049368
6083057486
6083065115
6083077017
6083083121
6083094534
6083104544
6083114554
6083123526
6083130850
6083140616
6083150808
6083160391
6083167105
6083175955
6083183950
6083190847
6083199087
6083204031
6083213858
6083222219
6083230276
6083234976
6083244619
6083252310
6083259817
6083266653
6083274343
6083280996
6083290273
6083297048
6083304678
6083311636
6083318716
6083327383
6083333913
6083342764
6083348928
6083357534
6083364736
6083373464
6083379751
6083389333
6083394338
6083404714
6083413808
6083420949
6083428029
6083437246
6083444570
6083453542
6083460134
6083467824
6083477407
6083486379
6083492971
6083502065
6083511037
6083517629
6083526418
6083531423
6083541799
6083550283
6083557973
6083565419
6083572377
6083581777
6083590077
6083596669
6083605641
6083612172
6083621022
6083629628
6083636403
6083645253
6083650441
6083660756
6083668935
6083676137
6083683949
6083692677
6083699757
6083707692
6083714406
6083722828
6083731312
6083739613
6083746266
6083755238
6083761891
6083770314
6083777394
6083784657
6083793995
6083801319
6083810231
6083817616
6083827809
6083835072
6083842701
6083849110
6083857533
6083866749
6083873585
6083880543
6083891590
6083898914
6083906849
6083914295
6083924061
6083933765
6083937244
6083949573
6083961353
6083971973
6083981373
6083986866
6083997303
6084005176
6084013355
6084021534
6084029529
6084034229
6084044117
6084051746
6084058826
6084065662
6084073536
6084080433
6084087879
6084096363
6084103565
6084109790
6084117969
6084125843
6084134082
6084143604
6084151233
6084157154
6084167285
6084173328
6084182483
6084188464
6084196643
6084202808
6084213367
6084219531
6084225330
6084235339
6084240405
6084251636
6084256763
6084267200
6084275989
6084284473
6084289660
6084300036
6084307361
6084315783
6084323108
6084331408
6084338183
6084345874
6084354602
6084362292
6084370898
6084376941
6084385424
6084393664
6084401538
6084408801
6084418383
6084426562
6084434863
6084439623
6084448596
6084455615
6084465930
6084471240
6084481921
6084486865
6084497302
6084505236
6084512316
6084519701
6084526965
6084534350
6084544665
6084549914
6084559252
6084566271
6084574694
6084581774
6084591540
6084597216
6084608446
6084617296
6084626696
6084631945
6084642626
6084647448
6084658312
6084668505
6084677172
6084684801
6084691088
6084695909
6084707262
6084712572
6084723863
6084730455
6084741503
6084747484
6084758653
6084767870
6084774462
6084782518
6084791673
6084801866
6084810533
6084817125
6084826280
6084833177
6084841051
6084847704
6084855821
6084861864
6084871690
6084878465
6084885850
6084891832
6084900438
6084908311
6084915086
6084923265
6084932969
6084941026
6084948289
6084956285
6084962938
6084970933
6084976670
6084985765
6084990770
6085001268
6085008897
6085015000
6085021714
6085030870
6085037583
6085045274
6085052964
6085062730
6085070054
6085076829
6085085679
6085092454
6085101243
6085109055
6085117844
6085124131
6085134446
6085139512
6085149338
6085157822
6085165513
6085172776
6085180527
6085187119
6085196702
6085208970
6085219651
6085231736
6085241257
6085250290
6085261399
6085276352
6085286240
6085295212
6085305405
6085318772
6085330673
6085340866
6085350205
6085361557
6085368576
6085375839
6085382248
6085388168
6085395493
6085402878
6085409836
6085416550
6085423813
6085430222
6085436264
6085442245
6085448837
6085455734
6085463974
6085470932
6085478500
6085485031
6085493393
6085499374
6085507980
6085514511
6085524460
6085531112
6085539108
6085548263
6085555954
6085565780
6085573166
6085582748
6085591781
6085598922
6085608078
6085615951
6085622848
6085629196
6085636276
6085644515
6085651168
6085657943
6085664718
6085671981
6085677108
6085685531
6085690719
6085698837
6085706710
6085714217
6085720992
6085729049
6085735030
6085744430
6085750594
6085760360
6085769027
6085776778
6085786239
6085795089
6085801864
6085810348
6085817122
6085824874
6085833602
6085840560
6085849593
6085857650
6085864425
6085872359
6085879439
6085888045
6085894088
6085902816
6085908858
6085916976
6085925154
6085932356
6085940962
6085948897
6085957808
6085965132
6085971236
6085978621
6085984175
6085993269
6085999373
6086007979
6086016646
6086023116
6086028731
6086038008
6086044234
6086051436
6086057844
6086066511
6086075117
6086081526
6086089766
6086098067
6086106428
6086113203
6086119612
6086128096
6086136152
6086143782
6086151045
6086157637
6086166182
6086172895
6086180830
6086188398
6086196516
6086205610
6086211775
6086221418
6086227339
6086235273
6086243696
6086250471
6086259626
6086268842
6086276289
6086284345
6086291731
6086297834
6086306257
6086313093
6086323164
6086331953
6086339948
6086345747
6086354169
6086362409
6086367475
6086378522
6086389509
6086397016
6086404828
6086410627
6086418317
6086425763
6086432599
6086440473
6086449750
6086455976
6086463605
6086469220
6086479718
6086485944
6086494794
6086500531
6086511273
6086517133
6086525861
6086531537
6086539899
6086547833
6086554364
6086560407
6086570355
6086577191
6086584210
6086589764
6086597760
6086603497
6086612653
6086618695
6086627728
6086636945
6086643109
6086650616
6086657452
6086664838
6086670453
6086678326
6086687726
6086693951
6086701581
6086709332
6086716229
6086723614
6086730755
6086736432
6086745770
6086753277
6086758831
6086765789
6086773114
6086780255
6086785931
6086792340
6086800091
6086805279
6086811566
6086817608
6086823467
6086829388
6086836163
6086843304
6086849590
6086855084
6086861431
6086866680
6086873882
6086878765
6086885784
6086892803
6086899517
6086903423
6086911785
6086918682
6086924725
6086929790
6086936077
6086944378
6086949993
6086955425
6086961895
6086967815
6086974285
6086979534
6086987163
6086993328
6086998638
6087005596
6087011150
6087018169
6087025737
6087031963
6087040081
6087046611
6087052837
6087057659
6087065715
6087072063
6087077800
6087084270
6087088909
6087095806
6087100017
6087107280
6087111736
6087117229
6087124004
6087130779
6087134868
6087141643
6087147380
6087152690
6087158550
6087162822
6087171611
6087176372
6087182109
6087186687
6087193523
6087198528
6087204204
6087210246
6087218730
6087225444
6087232341
6087238628
6087245708
6087251506
6087258464
6087264384
6087268657
6087276164
6087282146
6087288432
6087295756
6087302836
6087308574
6087315226
6087320903
6087327250
6087331828
6087338725
6087345744
6087352153
6087357524
6087364360
6087371684
6087377055
6087381999
6087389506
6087397502
6087404216
6087410380
6087416423
6087423381
6087427897
6087435160
6087441996
6087447856
6087454814
6087460124
6087466654
6087472758
6087479411
6087485392
6087490763
6087498759
6087506815
6087514079
6087521586
6087528849
6087535990
6087542216
6087551432
6087557902
6087564127
6087570902
6087577555
6087584635
6087593241
6087599466
6087608805
6087614359
6087623758
6087634501
6087638956
6087650370
6087655558
6087661783
6087669596
6087677347
6087684549
6087689554
6087696939
6087705667
6087713846
6087721903
6087727640
6087733988
6087739847
6087748331
6087755899
6087760843
6087769022
6087775797
6087782327
6087788431
6087795694
6087804300
6087809854
6087817911
6087824503
6087830789
6087839578
6087844583
6087852884
6087858255
6087864358
6087872415
6087878518
6087886392
6087892557
6087899026
6087906534
6087912149
6087919961
6087928689
6087935525
6087942239
6087949441
6087956033
6087961953
6087969705
6087979043
6087986611
6087992898
6088000833
6088007669
6088014138
6088021218
6088028543
6088035501
6088042947
6088051736
6088057351
6088065041
6088071023
6088081338
6088089455
6088096047
6088102456
6088111489
6088116067
6088127419
6088135903
6088144265
6088152627
6088159157
6088168252
6088175088
6088182229
6088190041
6088197243
6088206826
6088213723
6088223183
6088231118
6088239602
6088246926
6088257546
6088262856
6088273598
6088278481
6088289467
6088297035
6088305031
6088312721
6088318825
6088326515
6088332680
6088341530
6088347695
6088355141
6088362404
6088370766
6088376869
6088386391
6088393166
6088401222
6088408424
6088416786
6088422768
6088432899
6088439613
6088448158
6088454811
6088462013
6088470253
6088476906
6088485328
6088494179
6088502174
6088508644
6088516639
6088521278
6088531166
6088538978
6088546913
6088555091
6088563148
6088568275
6088577858
6088585609
6088593727
6088601234
6088607887
6088614906
6088627662
6088635597
6088642799
6088650001
6088658668
6088665687
6088674598
6088681312
6088690589
6088696937
6088705482
6088714698
6088721229
6088729652
6088736976
6088745643
6088755652
6088763953
6088769752
6088777747
6088786536
6088792640
6088800147
6088807837
6088816810
6088825477
6088833472
6088841834
6088851600
6088860816
6088870642
6088877051
6088886817
6088893164
6088901282
6088909949
6088913123
6088925452
6088935156
6088944617
6088950903
6088958899
6088968970
6088978186
6088985938
6088993262
6088999854
6089007300
6089019263
6089026709
6089035986
6089043066
6089052405
6089062170
6089070532
6089078955
6089090796
6089097693
6089105627
6089112402
6089122717
6089130896
6089139135
6089147802
6089153967
6089161596
6089169836
6089178442
6089184484
6089191198
6089200964
6089208532
6089217077
6089221899
6089231481
6089238378
6089246984
6089253698
6089262548
6089269567
6089277258
6089283910
6089293432
6089300207
6089308202
6089314977
6089323217
6089329687
6089337865
6089346471
6089352575
6089360692
6089368688
6089374914
6089384252
6089392736
6089400426
6089408605
6089414281
6089422521
6089427404
6089437352
6089444982
6089452428
6089459386
6089468907
6089473729
6089482762
6089489415
6089498509
6089505223
6089511754
6089520909
6089528661
6089534764
6089544286
6089550877
6089560765
6089567479
6089576329
6089583165
6089592748
6089599339
6089607640
6089615880
6089623448
6089632603
6089639744
6089647923
6089654515
6089663853
6089670323
6089679783
6089688572
6089696141
6089702549
6089712071
6089718602
6089723790
6089735020
6089743504
6089749791
6089757176
6089766514
6089773167
6089781895
6089790745
6089799473
6089806065
6089815769
6089822361
6089827671
6089840367
6089845738
6089857517
6089873020
6089880650
6089888645
6089896336
6089903660
6089913059
6089920872
6089927158
6089936314
6089942234
6089951145
6089957249
6089966343
6089972812
6089982456
6089989048
6089998386
6090006504
6090012790
6090020725
6090029087
6090035190
6090040012
6090050754
6090055576
6090066013
6090073764
6090080417
6090087131
6090097141
6090103855
6090111972
6090119357
6090129062
6090135654
6090143894
6090150791
6090158176
6090166843
6090172885
6090181674
6090188571
6090195285
6090203952
6090212741
6090221286
6090227939
6090232944
6090245090
6090250766
6090260287
6090267489
6090277133
6090284945
6090293429
6090300692
6090309237
6090316012
6090325656
6090332309
6090342135
6090348971
6090357882
6090364535
6090373446
6090382418
6090390902
6090399691
6090404818
6090413729
6090421115
6090429476
6090438876
6090446566
6090454318
6090462191
6090471652
6090479647
6090486178
6090495150
6090501864
6090511019
6090520480
6090528780
6090535494
6090543917
6090551241
6090558932
6090568697
6090576143
6090584566
6090591280
6090601595
6090608126
6090618197
6090624788
6090632906
6090641573
6090647921
6090657259
6090670015
6090677584
6090685945
6090693392
6090701937
6090711519
6090718782
6090727571
6090741182
6090747774
6090756136
6090763521
6090771761
6090777620
6090786470
6090795686
6090801668
6090809358
6090817171
6090825044
6090833223
6090840791
6090846345
6090853181
6090863008
6090869539
6090878023
6090884797
6090893342
6090900056
6090907808
6090914644
6090923860
6090929963
6090937959
6090946016
6090954438
6090960786
6090969819
6090977937
6090984956
6090993012
6091000703
6091008698
6091011628
6091022675
6091027436
6091037507
6091042756
6091053376
6091058198
6091070039
6091080598
6091090180
6091094941
6091109895
6091117280
6091125580
6091132111
6091139313
6091146516
6091153840
6091160859
6091166352
6091175385
6091183625
6091191132
6091197297
6091201935
6091211945
6091219513
6091226593
6091233673
6091242463
6091249726
6091259064
6091265900
6091272614
6091279206
6091288117
6091294464
6091305817
6091312714
6091319977
6091326508
6091334442
6091342255
6091348419
6091356842
6091363678
6091373261
6091377960
6091388458
6091393158
6091402679
6091409332
6091419769
6091425384
6091435028
6091442474
6091451263
6091458404
6091468048
6091475311
6091484649
6091493744
6091502838
6091513397
6091526092
6091535247
6091542877
6091550445
6091561431
6091568511
6091576324
6091583770
6091590972
6091599700
6091607147
6091617217
6091624542
6091632415
6091639190
6091647064
6091653960
6091661712
6091669219
6091677398
6091686614
6091692962
6091702483
6091708709
6091717925
6091723907
6091735015
6091743682
6091752044
6091758513
6091769317
6091778716
6091785369
6091794646
6091800628
6091809783
6091817107
6091826690
6091834380
6091842315
6091849089
6091858428
6091865081
6091873503
6091881743
6091886565
6091896208
6091904265
6091913420
6091921599
6091930815
6091937285
6091944060
6091952055
6091959135
6091968108
6091976347
6091984099
6091991667
6091999846
6092008818
6092014983
6092023344
6092031645
6092042998
6092048491
6092058134
6092066618
6092072722
6092082914
6092090666
6092100248
6092106779
6092116118
6092123747
6092132292
6092139128
6092148100
6092158476
6092165922
6092174833
6092183744
6092190031
6092197233
6092207548
6092219267
6092228605
6092236662
6092244657
6092255216
6092261503
6092270658
6092282560
6092291105
6092299345
6092307767
6092315336
6092322111
6092327543
6092340177
6092347684
6092355192
6092364164
6092371549
6092379850
6092387296
6092393644
6092403165
6092411344
6092417814
6092428067
6092435147
6092443570
6092450101
6092459378
6092466214
6092476041
6092484586
6092492642
6092499356
6092509549
6092516080
6092523892
6092532987
6092541592
6092548917
6092557217
6092565945
6092574124
6092583340
6092591153
6092599515
6092606839
6092616055
6092621060
6092630948
6092640835
6092649441
6092657742
6092665005
6092674222
6092681119
6092690396
6092698636
6092705166
6092716092
6092724636
6092733548
6092740200
6092747769
6092754605
6092764431
6092769497
6092779446
6092787564
6092795925
6092804653
6092813137
6092821377
6092828518
6092837917
6092845608
6092854641
6092860867
6092870083
6092878628
6092888699
6092897121
6092904018
6092913662
6092918972
6092928615
6092937343
6092943508
6092954128
6092960903
6092970058
6092979091
6092987270
6092993740
6093003750
6093012966
6093029445
6093037319
6093044643
6093055019
6093063076
6093072292
6093081081
6093087978
6093096767
6093102016
6093113368
6093118495
6093127467
6093134486
6093143825
6093151393
6093159999
6093167323
6093176601
6093184169
6093192409
6093201869
6093208888
6093216273
6093227504
6093234096
6093241725
6093250392
6093258082
6093266993
6093274867
6093281398
6093290980
6093297755
6093303004
6093314845
6093323329
6093329310
6093336207
6093344447
6093351893
6093364283
6093371119
6093379542
6093386683
6093394862
6093403040
6093411891
6093421412
6093427882
6093437220
6093443995
6093452967
6093459620
6093467982
6093475794
6093483363
6093493128
6093500452
6093509363
6093516749
6093524256
6093531092
6093541956
6093548853
6093557459
6093566248
6093574793
6093581385
6093591028
6093597620
6093605921
6093614649
6093621363
6093632349
6093640833
6093648645
6093656214
6093663843
6093670435
6093680933
6093688379
6093696314
6093705103
6093711878
6093721094
6093729578
6093736353
6093741419
6093753442
6093761865
6093772424
6093778894
6093786951
6093794519
6093804468
6093812036
6093820520
6093828088
6093840295
6093849267
6093858301
6093864343
6093872766
6093881433
