5015843665
5015849464
5015854957
5015860389
5015866187
5015871680
5015877173
5015882667
5015888465
5015895423
5015901343
5015906592
5015912391
5015917518
5015924231
5015930945
5015938147
5015943824
5015949439
5015955664
5015962012
5015969031
5015975989
5015982520
5015989356
5015996863
5016004615
5016012061
5016019751
5016024756
5016032447
5016039649
5016047400
5016055457
5016062171
5016069251
5016076819
5016083411
5016090613
5016098853
5016106238
5016114355
5016119971
5016128455
5016135413
5016142798
5016150488
5016157141
5016163550
5016171911
5016178076
5016186316
5016193518
5016199560
5016206579
5016214270
5016222510
5016229406
5016236914
5016242102
5016250219
5016257605
5016264257
5016271826
5016278357
5016285681
5016292273
5016298376
5016306677
5016314001
5016322485
5016332250
5016339819
5016346533
5016354345
5016361547
5016369177
5016376989
5016384191
5016393163
5016398840
5016407873
5016413610
5016422582
5016430395
5016437170
5016445470
5016453832
5016460363
5016468786
5016475194
5016483129
5016490697
5016496557
5016505895
5016512975
5016521520
5016528661
5016536474
5016543370
5016552037
5016558995
5016567479
5016574620
5016581517
5016597448
5016605565
5016614781
5016621312
5016628575
5016637609
5016645177
5016654881
5016663915
5016669896
5016685155
5016693639
5016702916
5016710240
5016717198
5016724889
5016732152
5016741185
5016748265
5016755406
5016764012
5016770482
5016776646
5016785985
5016794713
5016801243
5016809544
5016816258
5016823216
5016831578
5016839329
5016847874
5016853001
5016861424
5016868748
5016877293
5016885350
5016892979
5016900364
5016908482
5016917088
5016923252
5016932530
5016939060
5016946385
5016953709
5016962803
5016969578
5016977635
5016984593
5016993015
5016999973
5017006626
5017015659
5017024876
5017032749
5017040806
5017047886
5017053684
5017064670
5017071384
5017079258
5017088840
5017096958
5017102817
5017111057
5017118320
5017124424
5017131687
5017140049
5017146518
5017154758
5017164524
5017171970
5017179538
5017187168
5017196201
5017201877
5017210910
5017219272
5017225803
5017234775
5017241733
5017250339
5017258334
5017265354
5017274082
5017280185
5017287082
5017295200
5017301852
5017310947
5017318820
5017326999
5017334323
5017342563
5017353183
5017359836
5017366427
5017374484
5017383395
5017389194
5017397799
5017406650
5017415011
5017422702
5017430819
5017439547
5017446139
5017454013
5017460238
5017467562
5017475314
5017483371
5017490329
5017495578
5017504794
5017510470
5017518649
5017524447
5017533602
5017541659
5017548312
5017556124
5017564547
5017570590
5017578951
5017585177
5017594943
5017601962
5017609469
5017616183
5017623385
5017629977
5017636080
5017643038
5017651705
5017658358
5017666292
5017672457
5017680086
5017686129
5017694491
5017702059
5017709444
5017716646
5017723360
5017730623
5017737215
5017744661
5017752047
5017760592
5017768526
5017776339
5017784212
5017790438
5017796480
5017804293
5017813082
5017820772
5017827547
5017834505
5017839327
5017846468
5017852632
5017860018
5017868990
5017876436
5017883272
5017890169
5017895967
5017903535
5017910921
5017920076
5017927644
5017933748
5017941316
5017948518
5017955354
5017962312
5017969758
5017978547
5017985628
5017992830
5017999605
5018008333
5018016267
5018022310
5018031099
5018038362
5018043977
5018053560
5018061982
5018069123
5018080171
5018087007
5018096528
5018105561
5018114717
5018121797
5018129853
5018137422
5018145539
5018152680
5018159211
5018167695
5018174836
5018181001
5018187470
5018196809
5018204926
5018213776
5018218720
5018226716
5018234772
5018240082
5018247101
5018256745
5018263459
5018268647
5018278535
5018287018
5018292817
5018299531
5018305878
5018312348
5018319245
5018323334
5018330353
5018336762
5018344513
5018351105
5018358307
5018364472
5018369782
5018377167
5018382904
5018389313
5018396759
5018403351
5018410370
5018417572
5018422882
5018430268
5018436676
5018441437
5018449188
5018455292
5018461456
5018467560
5018473297
5018478729
5018485931
5018491425
5018499176
5018505951
5018510895
5018518036
5018523956
5018529694
5018535858
5018543976
5018549225
5018557098
5018561615
5018569000
5018575470
5018580902
5018587433
5018595123
5018601715
5018607757
5018612152
5018618805
5018626068
5018630829
5018638885
5018646759
5018654327
5018659698
5018666351
5018674408
5018680633
5018688812
5018693389
5018701934
5018709259
5018718170
5018726776
5018732757
5018739410
5018747039
5018754058
5018764007
5018771819
5018776397
5018784698
5018789703
5018797576
5018802581
5018809478
5018817046
5018823638
5018829314
5018837737
5018844451
5018851287
5018858184
5018865569
5018872649
5018881621
5018889922
5018896392
5018901885
5018911284
5018916411
5018925444
5018932708
5018939605
5018945525
5018952361
5018959136
5018965972
5018972136
5018979338
5018987273
5018994658
5019001006
5019008147
5019016020
5019021086
5019029265
5019038054
5019045989
5019053374
5019060759
5019068694
5019075896
5019085295
5019091277
5019099821
5019108183
5019116362
5019123320
5019131987
5019139372
5019145476
5019154936
5019160368
5019169218
5019176237
5019184904
5019193022
5019199675
5019207792
5019216398
5019222685
5019231108
5019239042
5019246000
5019254728
5019261137
5019268644
5019279692
5019288053
5019297148
5019304899
5019312345
5019321073
5019327787
5019335233
5019344999
5019351652
5019361479
5019366850
5019376371
5019383329
5019390287
5019397062
5019406461
5019415189
5019422208
5019431180
5019438566
5019449247
5019456876
5019470792
5019478910
5019485685
5019495633
5019501981
5019510709
5019518888
5019526700
5019533292
5019540799
5019549283
5019557218
5019564237
5019571927
5019580411
5019587857
5019593961
5019601590
5019609586
5019617032
5019623197
5019631741
5019637967
5019645291
5019654080
5019660794
5019669583
5019676236
5019683194
5019690823
5019700223
5019707425
5019714322
5019721585
5019728421
5019737393
5019744290
5019750821
5019761624
5019769253
5019776150
5019782986
5019790799
5019798245
5019805691
5019812161
5019820096
5019828946
5019837063
5019845181
5019853054
5019860379
5019869534
5019875881
5019882412
5019891506
5019898709
5019907498
5019913845
5019922817
5019928127
5019937527
5019943264
5019953823
5019961147
5019968655
5019976162
5019984280
5019993130
5019999294
5020005703
5020016140
5020022915
5020030117
5020039577
5020045803
5020055508
5020062771
5020070339
5020078457
5020086452
5020094082
5020101955
5020110317
5020118496
5020125820
5020134060
5020141140
5020149562
5020158351
5020163478
5020173183
5020178920
5020188625
5020196376
5020204006
5020211940
5020219509
5020234340
5020242458
5020251674
5020259364
5020268031
5020276881
5020283412
5020293971
5020300136
5020308314
5020315944
5020323939
5020328578
5020337550
5020344752
5020354335
5020361903
5020367885
5020374721
5020383632
5020391078
5020398768
5020407374
5020414515
5020422633
5020429469
5020436305
5020443934
5020450831
5020458644
5020467982
5020476100
5020483729
5020489405
5020497462
5020504359
5020511134
5020516383
5020523707
5020531947
5020537623
5020546961
5020552393
5020559412
5020566798
5020574244
5020579920
5020586390
5020596888
5020603419
5020612269
5020619471
5020626246
5020633814
5020640833
5020648218
5020656031
5020663111
5020672999
5020680506
5020688868
5020695582
5020702295
5020709864
5020718226
5020725367
5020735987
5020743250
5020753321
5020760462
5020767908
5020776514
5020786585
5020794031
5020801660
5020809778
5020817529
5020824121
5020832422
5020840723
5020848901
5020857385
5020865625
5020873193
5020881555
5020888025
5020897424
5020904138
5020910486
5020920251
5020929040
5020936548
5020945459
5020952966
5020958520
5020968835
5020975915
5020984216
5020992029
5021000268
5021006921
5021015161
5021023950
5021029077
5021039758
5021048181
5021058557
5021066980
5021075341
5021084619
5021092126
5021101403
5021108483
5021117333
5021124474
5021132348
5021139184
5021147363
5021155114
5021161645
5021171349
5021178368
5021185998
5021193444
5021200768
5021208031
5021215661
5021222436
5021230187
5021238732
5021246728
5021254845
5021262414
5021269188
5021276940
5021282921
5021289635
5021298485
5021304467
5021313561
5021322655
5021329064
5021337609
5021345116
5021351525
5021359703
5021367699
5021376366
5021384178
5021392540
5021400048
5021408226
5021414757
5021423302
5021430260
5021440819
5021447228
5021457237
5021463951
5021472008
5021479393
5021487999
5021496300
5021503380
5021514488
5021520653
5021528770
5021536217
5021544456
5021550987
5021560936
5021567467
5021575279
5021585533
5021593651
5021600364
5021608177
5021615806
5021622337
5021630577
5021639427
5021649742
5021657005
5021665306
5021672508
5021680747
5021687461
5021695823
5021704795
5021709922
5021719932
5021726768
5021734214
5021743491
5021751182
5021758140
5021766624
5021775291
5021781577
5021791221
5021797446
5021806724
5021811790
5021821311
5021828635
5021836204
5021844199
5021855613
5021862510
5021873252
5021880088
5021888572
5021896933
5021906150
5021915366
5021925010
5021931296
5021939902
5021949057
5021956687
5021963706
5021971518
5021978171
5021985861
5021994101
5021999045
5022008078
5022015891
5022023825
5022028586
5022037558
5022046835
5022054648
5022062827
5022068869
5022075827
5022084860
5022092062
5022099081
5022106772
5022114218
5022122275
5022129233
5022137900
5022144919
5022150961
5022159323
5022168600
5022174765
5022183554
5022191855
5022198385
5022208029
5022214499
5022221884
5022229513
5022239157
5022246908
5022255026
5022262594
5022269552
5022279928
5022287374
5022293478
5022303366
5022309713
5022320089
5022326254
5022333456
5022344015
5022350485
5022358358
5022365804
5022375387
5022383260
5022391012
5022398397
5022406393
5022414876
5022422323
5022430868
5022438802
5022444967
5022454122
5022460836
5022470540
5022477498
5022487447
5022494039
5022503011
5022509542
5022522298
5022528890
5022538533
5022544881
5022554525
5022560384
5022568868
5022576619
5022588094
5022594625
5022602742
5022610860
5022619100
5022627339
5022635579
5022641927
5022651631
5022658162
5022664937
5022673787
5022679707
5022688374
5022698445
5022709614
5022720479
5022732503
5022739461
5022750264
5022759419
5022768940
5022776753
5022782979
5022790181
5022800129
5022808125
5022814961
5022822712
5022831257
5022836933
5022845906
5022853352
5022859577
5022867390
5022873371
5022882221
5022888203
5022899739
5022908161
5022912922
5022922077
5022930317
5022936421
5022943562
5022952534
5022958210
5022967182
5022974018
5022982990
5022990131
5022996967
5023003376
5023011249
5023018452
5023029194
5023037006
5023045368
5023052448
5023060749
5023068317
5023076618
5023083271
5023092792
5023099445
5023107502
5023114948
5023122699
5023132404
5023137470
5023148395
5023154682
5023165851
5023173419
5023181720
5023188678
5023196979
5023203510
5023210773
5023220233
5023227008
5023237201
5023242999
5023252643
5023260211
5023267657
5023275836
5023284076
5023291644
5023299945
5023306964
5023315021
5023321734
5023331439
5023337909
5023347186
5023353839
5023361529
5023371600
5023379779
5023387225
5023395770
5023403338
5023409259
5023417498
5023426776
5023435015
5023443194
5023449420
5023455950
5023466448
5023472979
5023481341
5023488848
5023496783
5023506548
5023514361
5023522906
5023529253
5023540972
5023549090
5023557940
5023566973
5023573504
5023579790
5023590533
5023599078
5023606829
5023612749
5023620989
5023628924
5023635393
5023645464
5023653704
5023659685
5023668780
5023674944
5023682268
5023691057
5023698381
5023705889
5023713701
5023721148
5023728411
5023736650
5023743730
5023752275
5023761064
5023769426
5023777178
5023785051
5023792742
5023800981
5023808306
5023816728
5023823320
5023830949
5023840532
5023846452
5023856157
5023864214
5023871904
5023879594
5023886980
5023894548
5023902849
5023910051
5023918107
5023927385
5023933549
5023940874
5023951921
5023958452
5023965654
5023976396
5023983903
5023991960
5023999406
5024009660
5024016374
5024024736
5024032121
5024042314
5024048539
5024056657
5024063249
5024073014
5024081681
5024086991
5024096696
5024104081
5024113725
5024119645
5024129411
5024136002
5024143449
5024150956
5024159257
5024168412
5024174516
5024183488
5024191788
5024198930
5024207169
5024213578
5024221512
5024231095
5024236649
5024246842
5024254044
5024263871
5024269608
5024278092
5024285233
5024293534
5024302445
5024311234
5024315506
5024325699
5024332291
5024342179
5024348648
5024356583
5024365067
5024374893
5024383072
5024393570
5024401322
5024408524
5024418961
5024424881
5024435867
5024443131
5024450272
5024458817
5024466141
5024474197
5024481338
5024488113
5024495682
5024504837
5024511978
5024520096
5024526932
5024534073
5024541702
5024548233
5024555801
5024564407
5024572769
5024580887
5024589065
5024596878
5024605117
5024611648
5024618240
5024628067
5024634719
5024644546
5024651870
5024659317
5024667739
5024675369
5024683608
5024691909
5024698501
5024706985
5024715713
5024721877
5024731033
5024736160
5024745864
5024753677
5024761062
5024768874
5024777175
5024784560
5024792800
5024802199
5024810378
5024817946
5024824538
5024834670
5024843337
5024850234
5024859450
5024865920
5024873855
5024881606
5024889968
5024897597
5024905104
5024913771
5024922255
5024930617
5024938430
5024946547
5024953505
5024961867
5024968459
5024977919
5024984389
5024990676
5025000380
5025008009
5025015578
5025022353
5025032668
5025039442
5025048109
5025056288
5025064345
5025072462
5025080763
5025087355
5025095778
5025105055
5025110182
5025120131
5025126173
5025135939
5025141554
5025151991
5025157362
5025165602
5025174452
5025184767
5025190809
5025199659
5025208570
5025217787
5025225050
5025234999
5025242567
5025253675
5025265455
5025272230
5025280470
5025287794
5025295118
5025302747
5025308790
5025318800
5025324903
5025332594
5025341261
5025348890
5025356092
5025363721
5025369764
5025379468
5025385633
5025393751
5025401746
5025406934
5025415784
5025423109
5025432935
5025440565
5025448255
5025456495
5025463941
5025471082
5025479444
5025488294
5025496412
5025503553
5025512586
5025519361
5025529798
5025538037
5025546582
5025553113
5025560620
5025570142
5025577344
5025584851
5025593274
5025600720
5025607556
5025618298
5025625378
5025633740
5025638318
5025648572
5025655225
5025665112
5025672253
5025682019
5025690564
5025696667
5025710156
5025720044
5025726758
5025733777
5025742810
5025750134
5025756970
5025764905
5025771801
5025778943
5025787548
5025796704
5025803662
5025810620
5025818066
5025824963
5025832714
5025840222
5025850720
5025859936
5025867871
5025875927
5025884472
5025892040
5025899975
5025906506
5025914806
5025921276
5025930004
5025936474
5025946239
5025953014
5025960583
5025969982
5025975414
5025985607
5025994457
5026000988
5026008129
5026017650
5026023144
5026033703
5026040905
5026052440
5026059032
5026068859
5026075390
5026085094
5026093212
5026100231
5026107372
5026117382
5026122509
5026131237
5026138561
5026145519
5026152050
5026161083
5026168102
5026177562
5026185130
5026193004
5026200572
5026206554
5026215160
5026221202
5026229808
5026237621
5026245067
5026252879
5026258556
5026267284
5026274669
5026281566
5026289317
5026297008
5026321910
5026329539
5026338023
5026346568
5026352916
5026361461
5026368724
5026378856
5026385814
5026392649
5026400645
5026411387
5026418650
5026427012
5026435557
5026443919
5026452403
5026460948
5026469248
5026476878
5026483409
5026490916
5026499766
5026507517
5026511973
5026522776
5026532725
5026538889
5026545481
5026555918
5026562388
5026569407
5026579050
5026586680
5026596628
5026601755
5026612070
5026619700
5026627085
5026631296
5026641916
5026648630
5026659922
5026667673
5026675852
5026682322
5026691843
5026698557
5026708261
5026717417
5026727426
5026733591
5026742807
5026748850
5026756174
5026762949
5026771066
5026777902
5026784982
5026793039
5026800485
5026811716
5026824533
5026833383
5026841623
5026849741
5026862070
5026872629
5026880563
5026888315
5026895944
5026903635
5026912301
5026920236
5026926767
5026934335
5026942331
5026949960
5026953988
5026963571
5026970102
5026977975
5026987069
5026995370
5027001596
5027008859
5027017770
5027025827
5027032113
5027038827
5027047982
5027054757
5027063729
5027070748
5027077767
5027083505
5027093270
5027100961
5027109078
5027116219
5027125863
5027131966
5027139718
5027147469
5027155282
5027162972
5027171944
5027180672
5027186959
5027196175
5027204293
5027211007
5027217415
5027227120
5027233773
5027245614
5027255257
5027262825
5027273140
5027278634
5027286873
5027294930
5027302803
5027311287
5027315987
5027324898
5027330696
5027339546
5027347054
5027354134
5027362068
5027371651
5027379341
5027386910
5027394844
5027402474
5027410164
5027418404
5027426582
5027433174
5027442574
5027450691
5027457222
5027465706
5027474617
5027479744
5027489326
5027497688
5027505318
5027512398
5027520576
5027527839
5027536018
5027544685
5027552986
5027560371
5027569099
5027575935
5027585395
5027591865
5027599678
5027607368
5027615119
5027622932
5027631172
5027642707
5027650520
5027659797
5027668769
5027677863
5027685005
5027693488
5027702094
5027709663
5027717536
5027725349
5027733466
5027740913
5027747138
5027754646
5027763190
5027768195
5027777106
5027784736
5027793891
5027801703
5027807685
5027814826
5027823737
5027831061
5027838019
5027844428
5027853949
5027861213
5027867865
5027874091
5027881354
5027889533
5027897284
5027903571
5027911444
5027916083
5027923651
5027928656
5027936103
5027942450
5027948004
5027954596
5027961676
5027967841
5027973334
5027979987
5027985480
5027991889
5027998969
5028003790
5028010870
5028016547
5028023566
5028028937
5028036261
5028042670
5028049567
5028055731
5028062323
5028069769
5028072943
5028082403
5028087469
5028096136
5028101385
5028108954
5028115057
5028120672
5028127875
5028133429
5028138495
5028146185
5028151495
5028157904
5028162726
5028170477
5028174383
5028180914
5028187262
5028193121
5028199347
5028205206
5028210821
5028217962
5028223333
5028229864
5028235235
5028241522
5028246588
5028252874
5028259283
5028264410
5028270819
5028278265
5028284246
5028289922
5028295965
5028304022
5028309881
5028317449
5028323553
5028329717
5028335943
5028343206
5028348638
5028355413
5028362493
5028367193
5028374090
5028380559
5028387762
5028393377
5028399114
5028405279
5028410955
5028417669
5028426397
5028432378
5028438482
5028445684
5028451116
5028457158
5028464360
5028470037
5028477666
5028483342
5028490850
5028498174
5028504155
5028509771
5028515996
5028523564
5028529363
5028536138
5028540837
5028547734
5028553655
5028560369
5028565557
5028573979
5028580876
5028587651
5028593572
5028598149
5028605840
5028612431
5028620183
5028626897
5028634099
5028642033
5028647099
5028656560
5028662419
5028670964
5028677739
5028683415
5028690739
5028696965
5028704716
5028710454
5028718022
5028725163
5028732792
5028739750
5028748845
5028754826
5028762150
5028769597
5028775273
5028783268
5028791264
5028798771
5028804448
5028811833
5028818791
5028823612
5028832279
5028837223
5028842839
5028849369
5028856205
5028862614
5028870365
5028877079
5028882877
5028890324
5028896305
5028905155
5028915836
5028923466
5028930790
5028938786
5028945866
5028953861
5028959660
5028967777
5028974247
5028981693
5028988224
5028994388
5029001774
5029009403
5029016117
5029023075
5029030399
5029035770
5029043155
5029049076
5029055973
5029063541
5029070133
5029078495
5029085453
5029090274
5029098148
5029106144
5029112979
5029118412
5029126712
5029132144
5029140567
5029147952
5029155094
5029160709
5029168155
5029175540
5029183231
5029188480
5029195926
5029200992
5029209964
5029217715
5029224735
5029231693
5029238528
5029245425
5029252994
5029260928
5029268375
5029274722
5029283389
5029290103
5029297000
5029304080
5029310855
5029318301
5029325686
5029332828
5029340335
5029347720
5029355288
5029362368
5029370059
5029376040
5029383853
5029392825
5029400393
5029406436
5029413638
5029422549
5029428530
5029437503
5029443057
5029452029
5029458438
5029467532
5029474490
5029481326
5029488406
5029495974
5029502627
5029513308
5029519778
5029527590
5029533877
5029543093
5029549258
5029556460
5029564822
5029573672
5029579104
5029587649
5029601015
5029607607
5029615053
5029624514
5029632631
5029642519
5029653872
5029659426
5029666994
5029674807
5029681581
5029687502
5029693788
5029702700
5029710329
5029717043
5029723879
5029733400
5029742189
5029750429
5029757387
5029762087
5029770143
5029775575
5029783998
5029792726
5029802431
5029808351
5029815736
5029824342
5029831972
5029839357
5029845583
5029855348
5029864015
5029869020
5029877138
5029886171
5029892641
5029899415
5029907594
5029915590
5029920167
5029927980
5029935487
5029942262
5029948976
5029958375
5029969239
5029976930
5029982789
5029992250
5030000978
5030010316
5030017762
5030024659
5030033387
5030039125
5030047547
5030053651
5030063844
5030072022
5030078309
5030085206
5030093690
5030100282
5030109010
5030117249
5030122926
5030131593
5030138673
5030148682
5030153931
5030162232
5030171754
5030177552
5030186463
5030195435
5030203003
5030210694
5030219544
5030227112
5030233887
5030242310
5030251770
5030257142
5030266968
5030277344
5030285218
5030296509
5030306641
5030314148
5030320740
5030329041
5030338684
5030346314
5030352295
5030360108
5030367859
5030375855
5030381409
5030392212
5030400208
5030406006
5030414246
5030419495
5030429382
5030436523
5030445007
5030453674
5030460815
5030469604
5030479187
5030487060
5030494324
5030502991
5030512207
5030521728
5030530639
5030538757
5030547790
5030555236
5030562072
5030570617
5030580627
5030586181
5030593566
5030602172
5030611450
5030618591
5030625061
5030634704
5030642578
5030653991
5030661132
5030669433
5030678466
5030687621
5030696410
5030704040
5030715209
5030723205
5030730834
5030740295
5030748107
5030754394
5030760985
5030771972
5030779479
5030787963
5030796081
5030803283
5030811400
5030820006
5030826232
5030838256
5030845763
5030851989
5030859374
5030867614
5030873900
5030886351
5030893676
5030900695
5030909667
5030916869
5030924987
5030930236
5030939879
5030950987
5030960204
5030968321
5030976134
5030986205
5030995055
5031003783
5031010985
5031020384
5031027586
5031036620
5031043394
5031050413
5031058470
5031065550
5031073302
5031082762
5031089354
5031095823
5031102293
5031111998
5031119871
5031127134
5031135618
5031140867
5031149839
5031158567
5031166075
5031174559
5031183531
5031190733
5031200071
5031207823
5031214781
5031224119
5031231260
5031241758
5031248289
5031256040
5031264707
5031273557
5031281736
5031291319
5031300535
5031311338
5031320432
5031325376
5031336607
5031346555
5031353391
5031359434
5031369260
5031377012
5031385129
5031394285
5031403440
5031409849
5031418943
5031426816
5031433835
5031443052
5031448789
5031457883
5031465512
5031474912
5031483152
5031489682
5031499814
5031508603
5031515866
5031525327
5031535337
5031542783
5031550046
5031558591
5031564938
5031574704
5031584165
5031593503
5031600583
5031606870
5031616147
5031623227
5031632382
5031642453
5031648556
5031657712
5031663632
5031673581
5031683041
5031691769
5031700863
5031712521
5031721921
5031729123
5031738461
5031747799
5031753659
5031761959
5031768856
5031776974
5031782772
5031791622
5031801510
5031808895
5031816952
5031825741
5031834103
5031842709
5031849423
5031858029
5031868527
5031874325
5031881039
5031890438
5031899044
5031908138
5031916012
5031924007
5031929867
5031939510
5031949398
5031956783
5031964168
5031971554
5031981869
5031991512
5032001705
5032008785
5032017269
5032024227
5032032100
5032040218
5032049739
5032058590
5032066402
5032073238
5032085323
5032096126
5032101619
5032109798
5032118160
5032126766
5032133541
5032142940
5032151363
5032159419
5032168269
5032173946
5032182674
5032188289
5032198360
5032206233
5032215083
5032223811
5032231013
5032238826
5032244746
5032253841
5032262385
5032269893
5032277949
5032286006
5032293513
5032302180
5032310481
5032318110
5032326960
5032335566
5032342036
5032350459
5032359004
5032366755
5032375849
5032385554
5032396662
5032405207
5032413325
5032425105
5032437495
5032445185
5032452143
5032458613
5032466242
5032473322
5032481745
5032490351
5032497797
5032505488
5032515131
5032521174
5032528254
5032536494
5032546198
5032556391
5032563898
5032570368
5032578486
5032587641
5032594843
5032601435
5032609369
5032616938
5032624567
5032630060
5032640619
5032648310
5032655939
5032664179
5032669550
5032677973
5032688715
5032695795
5032706171
5032712946
5032720880
5032728937
5032737909
5032746393
5032753351
5032762995
5032771356
5032781488
5032789728
5032798639
5032808160
5032816339
5032824579
5032831110
5032839715
5032848382
5032856378
5032863397
5032873468
5032882318
5032890252
5032898675
5032905206
5032913873
5032922296
5032931634
5032937921
5032945123
5032952752
5032959588
5032966912
5032976922
5032984368
5032992303
5033000604
5033007867
5033017083
5033024102
5033032769
5033040948
5033046868
5033055718
5033063775
5033072930
5033080621
5033087884
5033096612
5033104424
5033115716
5033123772
5033132989
5033140130
5033150872
5033158501
5033165337
5033175530
5033181817
5033189141
5033197930
5033204583
5033212945
5033219903
5033227410
5033235161
5033240593
5033251763
5033260674
5033267937
5033276421
5033282158
5033292473
5033299919
5033306206
5033315605
5033322869
5033331352
5033336296
5033345146
5033355034
5033365471
5033374870
5033383843
5033396050
5033406914
5033415825
5033424492
5033431206
5033440178
5033447441
5033455620
5033464714
5033473564
5033482292
5033489067
5033496330
5033504143
5033510856
5033518303
5033525016
5033532890
5033540275
5033547783
5033554435
5033562797
5033568351
5033577079
5033586296
5033593681
5033599662
5033606742
5033613090
5033621635
5033629630
5033637016
5033646659
5033652763
5033659782
5033666374
5033675041
5033679496
5033689323
5033696891
5033705802
5033712760
5033719901
5033727531
5033733451
5033744376
5033750968
5033756888
5033766166
5033774955
5033783256
5033793998
5033800345
5033809623
5033817984
5033828299
5033835318
5033844107
5033850943
5033857169
5033867545
5033874747
5033881827
5033890677
5033897696
5033904715
5033911795
5033918570
5033928214
5033934256
5033941947
5033949210
5033956839
5033964713
5033972464
5033976798
5033986685
5033992606
5034001883
5034009940
5034017447
5034023672
5034029776
5034038565
5034045218
5034054495
5034060477
5034069449
5034076224
5034083121
5034091421
5034098257
5034105337
5034115408
5034122000
5034129507
5034137564
5034145254
5034153311
5034159414
5034166128
5034176992
5034183340
5034193167
5034199697
5034208364
5034216299
5034224294
5034231802
5034241445
5034249136
5034256216
5034264333
5034271902
5034280325
5034289663
5034295950
5034302419
5034312246
5034321218
5034327016
5034336660
5034343008
5034352651
5034360586
5034368337
5034374257
5034385427
5034392385
5034400625
5034407705
5034416066
5034422780
5034432119
5034438588
5034446523
5034456533
5034462453
5034472036
5034479360
5034486989
5034493581
5034502309
5034511464
5034517812
5034526906
5034535268
5034541676
5034549977
5034558705
5034563771
5034573720
5034581227
5034590077
5034597096
5034610402
5034620473
5034628163
5034639271
5034646046
5034653187
5034663136
5034670888
5034677907
5034683827
5034693593
5034698536
5034708241
5034714833
5034724598
5034732350
5034739308
5034745533
5034755116
5034762013
5034769581
5034776356
5034784291
5034790272
5034799305
5034805531
5034815541
5034822926
5034830799
5034837940
5034846058
5034853993
5034860157
5034869495
5034875416
5034885181
5034892628
5034900074
5034906788
5034918323
5034925831
5034934009
5034941883
5034948048
5034957447
5034965626
5034972095
5034981190
5034987964
5034996143
5035003528
5035011951
5035019458
5035027088
5035035450
5035039722
5035053821
5035062061
5035070118
5035077869
5035086170
5035093555
5035101917
5035108570
5035114856
5035124866
5035132678
5035140369
5035148547
5035156055
5035160510
5035173145
5035178882
5035187427
5035196155
5035204517
5035211108
5035219836
5035226428
5035234607
5035244128
5035250110
5035260180
5035267993
5035275439
5035283374
5035290942
5035297961
5035306201
5035314990
5035323108
5035331225
5035339404
5035345874
5035355639
5035362353
5035369006
5035378894
5035384997
5035395556
5035402087
5035412158
5035418994
5035426989
5035435839
5035445239
5035453295
5035466479
5035476733
5035483385
5035491198
5035500536
5035512133
5035518481
5035525378
5035534594
5035543627
5035549669
5035556017
5035565172
5035573412
5035581041
5035590136
5035597094
5035604723
5035611803
5035619555
5035626452
5035635302
5035642138
5035648546
5035656237
5035663500
5035671373
5035678636
5035686327
5035692247
5035700914
5035707079
5035717027
5035723131
5035730638
5035740282
5035745958
5035755785
5035764146
5035771593
5035780443
5035787889
5035795824
5035803331
5035811937
5035817979
5035824571
5035834764
5035841234
5035849779
5035858568
5035864488
5035874315
5035880723
5035891465
5035898668
5035906358
5035913987
5035922532
5035930406
5035938707
5035946275
5035954698
5035961412
5035968003
5035977708
5035984727
5035994859
5036001328
5036008836
5036016038
5036024522
5036032273
5036040391
5036048570
5036057298
5036066575
5036074815
5036082505
5036088914
5036095383
5036105149
5036111924
5036120957
5036128525
5036136704
5036144334
5036151963
5036160203
5036167832
5036176255
5036183884
5036192856
5036197312
5036207627
5036214158
5036222519
5036230149
5036238083
5036247727
5036252671
5036270066
5036279038
5036287216
5036296738
5036305283
5036314255
5036320908
5036331955
5036339157
5036346909
5036353561
5036362351
5036368393
5036375351
5036384384
5036391830
5036400681
5036406784
5036413925
5036421249
5036430344
5036435898
5036443405
5036450973
5036461227
5036466476
5036476181
5036481979
5036489608
5036498214
5036505783
5036511886
5036522384
5036529953
5036538131
5036545578
5036553939
5036560531
5036567489
5036577133
5036583175
5036593002
5036598922
5036607406
5036615035
5036623275
5036630966
5036639327
5036645797
5036654952
5036661422
5036671127
5036677718
5036685714
5036693282
5036701278
5036708846
5036718612
5036730575
5036738570
5036747970
5036753463
5036763228
5036770980
5036778731
5036787276
5036798140
5036803512
5036811751
5036819625
5036827742
5036836043
5036844405
5036850997
5036860457
5036866988
5036873824
5036883467
5036891524
5036898970
5036907576
5036915083
5036921309
5036931868
5036937850
5036948225
5036952498
5036962813
5036969405
5036979292
5036985823
5036995222
5037003889
5037009688
5037019636
5037027327
5037034895
5037042769
5037050276
5037060042
5037067854
5037075117
5037083479
5037090559
5037098921
5037106611
5037116865
5037124189
5037134626
5037145979
5037154036
5037162764
5037171430
5037179609
5037187239
5037193952
5037201704
5037207746
5037216230
5037222212
5037231733
5037237837
5037247053
5037253095
5037259687
5037269086
5037275861
5037284834
5037290693
5037299604
5037306623
5037313337
5037323408
5037330671
5037338605
5037344221
5037351056
5037358320
5037364423
5037369977
5037376996
5037384321
5037391706
5037396711
5037404767
5037409711
5037416791
5037421552
5037429303
5037436078
5037441999
5037448590
5037454633
5037461103
5037467206
5037473615
5037481732
5037486493
5037493878
5037499066
5037505353
5037511823
5037519452
5037522931
5037533856
5037538373
5037545880
5037551556
5037558514
5037564252
5037571332
5037576642
5037583722
5037588422
5037595502
5037601422
5037609112
5037614361
5037620953
5037626935
5037631512
5037639020
5037645978
5037651471
5037658429
5037665021
5037670209
5037676617
5037681378
5037687787
5037692730
5037699200
5037706585
5037712506
5037718426
5037724652
5037730206
5037736370
5037741864
5037747662
5037753155
5037759869
5037771343
5037777630
5037782879
5037790264
5037797100
5037803265
5037810833
5037817181
5037823040
5037829937
5037835674
5037842083
5037847881
5037854778
5037859844
5037866802
5037872112
5037879009
5037885784
5037890179
5037897015
5037902630
5037909466
5037915203
5037921978
5037928448
5037934917
5037941814
5037948589
5037956890
5037963421
5037969585
5037976543
5037982830
5037988201
5037995952
5038001384
5038007793
5038013408
5038021221
5038026592
5038034648
5038039714
5038047710
5038052898
5038061321
5038066753
5038074748
5038080852
5038086650
5038096233
5038103923
5038110149
5038121074
5038129070
5038135173
5038141582
5038147197
5038155071
5038160259
5038168742
5038174052
5038181987
5038187175
5038195048
5038200481
5038208415
5038214946
5038220866
5038228007
5038233867
5038241191
5038247050
5038254619
5038260417
5038266215
5038276103
5038282267
5038286967
5038294047
5038300700
5038306804
5038313945
5038321086
5038328105
5038335124
5038340922
5038348185
5038352824
5038359660
5038368510
5038375285
5038381266
5038387431
5038395732
5038402506
5038409159
5038415751
5038424296
5038436015
5038443278
5038451151
5038455729
5038462992
5038470377
5038476847
5038481242
5038488566
5038495768
5038502299
5038507120
5038514384
5038519938
5038527689
5038533549
5038540812
5038548075
5038552897
5038560099
5038567362
5038574991
5038580546
5038588907
5038595560
5038602518
5038609354
5038616129
5038623453
5038630411
5038637064
5038644083
5038650675
5038657816
5038663431
5038672342
5038677713
5038686014
5038691446
5038701944
5038708353
5038720255
5038726724
5038732950
5038738626
5038748148
5038755472
5038761270
5038767557
5038778848
5038785379
5038791360
5038801248
5038807718
5038815469
5038822732
5038830118
5038834878
5038843057
5038849038
5038858621
5038865579
5038873819
5038880349
5038886819
5038893838
5038900308
5038907815
5038917215
5038924722
5038931192
5038938699
5038945108
5038950296
5038959085
5038965188
5038973001
5038980935
5038987344
5038991006
5039001687
5039005471
5039014504
5039021890
5039030068
5039037454
5039045083
5039051980
5039060891
5039069741
5039075722
5039083779
5039095376
5039103860
5039111428
5039120095
5039127785
5039136269
5039143777
5039152321
5039159218
5039167946
5039176491
5039184060
5039190041
5039196389
5039205361
5039211769
5039221108
5039228127
5039237038
5039243019
5039252114
5039258766
5039265663
5039272194
5039281899
5039287087
5039296608
5039303322
5039310890
5039316872
5039324440
5039332497
5039340187
5039348976
5039354530
5039363258
5039370949
5039376991
5039385902
5039391945
5039400673
5039406837
5039415871
5039421974
5039429176
5039439003
5039446815
5039454384
5039461342
5039470192
5039476600
5039487037
5039493995
5039502235
5039510231
5039518531
5039525123
5039531410
5039546180
5039554359
5039558937
5039568946
5039577979
5039585548
5039589881
5039600074
5039609596
5039614784
5039624671
5039633033
5039639686
5039647254
5039654639
5039664344
5039672157
5039678870
5039687049
5039695838
5039704200
5039711463
5039719581
5039726111
5039734900
5039744910
5039749915
5039759437
5039766822
5039774451
5039782630
5039790259
5039799598
5039807776
5039815650
5039823401
5039831458
5039839514
5039848059
5039855262
5039863990
5039872595
5039881323
5039888831
5039894934
5039905066
5039914160
5039922522
5039929480
5039939368
5039949927
5039958411
5039966772
5039972998
5039982642
5039988257
5039996802
5040004797
5040012976
5040020666
5040029211
5040034216
5040043249
5040051550
5040057715
5040064551
5040073767
5040080664
5040087683
5040094885
5040103918
5040109289
5040117163
5040126623
5040133703
5040141149
5040148962
5040155920
5040163793
5040173071
5040181310
5040185644
5040195654
5040205114
5040214086
5040220983
5040229894
5040236364
5040244726
5040252111
5040260595
5040271886
5040279638
5040287206
5040293737
5040302038
5040309789
5040318090
5040325231
5040333593
5040340368
5040350133
5040356664
5040364538
5040372899
5040380529
5040390722
5040398046
5040405736
5040412572
5040421178
5040430577
5040436803
5040446019
5040454503
5040460973
5040470433
5040477513
5040499730
5040506505
5040517186
5040522435
5040533910
5040539342
5040547704
5040556920
5040563145
5040572606
5040577855
5040587498
5040593968
5040604039
5040611607
5040619298
5040627110
5040634556
5040642125
5040650609
5040657628
5040668004
5040676793
5040683018
5040689610
5040699009
5040705418
5040715245
5040722020
5040730381
5040743199
5040751805
5040757725
5040769078
5040775608
5040784397
5040794773
5040803440
5040810154
5040817600
5040826634
5040832371
5040841343
5040849155
5040856236
5040862400
5040872288
5040879490
5040886448
5040893711
5040901585
5040908115
5040915684
5040923008
5040930820
5040936985
5040946445
5040952427
5040958896
5040967807
5040973545
5040982700
5040990207
5041000278
5041005710
5041015598
5041022922
5041030612
5041037326
5041045810
5041054965
5041063327
5041069980
5041078342
5041084934
5041094089
5041100620
5041109226
5041116733
5041123508
5041134067
5041139377
5041147739
5041155551
5041163730
5041170322
5041179965
5041186618
5041195956
5041205783
5041213779
5041222751
5041229159
5041237887
5041244113
5041253879
5041261447
5041269015
5041275546
5041285922
5041291537
5041301974
5041307284
5041315646
5041322421
5041332553
5041339205
5041349398
5041356112
5041362338
5041372164
5041379611
5041387240
5041394320
5041402865
5041410189
5041418673
5041427096
5041435458
5041441927
5041450594
5041457247
5041468966
5041475497
5041484957
5041491427
5041498873
5041506502
5041516085
5041523653
5041531771
5041539461
5041545321
5041556124
5041560579
5041570589
5041577120
5041586580
5041596590
5041603121
5041617769
5041626741
5041635103
5041645296
5041654573
5041661836
5041668550
5041677278
5041686434
5041694002
5041700044
5041709200
5041715730
5041722322
5041731355
5041737642
5041746797
5041755586
5041763887
5041771638
5041777864
5041784700
5041793611
5041799104
5041808992
5041816438
5041823518
5041830415
5041838289
5041846040
5041854402
5041861604
5041870088
5041878938
5041887422
5041893892
5041901887
5041910737
5041916536
5041926484
5041933930
5041942048
5041949250
5041957551
5041966096
5041974458
5041981721
5041989961
5041997102
5042005952
5042019868
5042027375
5042035554
5042045319
5042056428
5042062958
5042073273
5042080048
5042089265
5042097138
5042105134
5042112641
5042120637
5042129731
5042137787
5042145356
5042153595
5042160187
5042166657
5042176423
5042185090
5042191559
5042199738
5042207489
5042215729
5042223297
5042230988
5042239411
5042246857
5042255402
5042261933
5042273346
5042279877
5042289215
5042295746
5042305695
5042311981
5042321320
5042327606
5042336761
5042343353
5042350616
5042359894
5042368378
5042374908
5042382965
5042388946
5042399017
5042411712
5042421478
5042430511
5042439239
5042445038
5042456207
5042464752
5042472442
5042479950
5042487579
5042494110
5042503692
5042510528
5042518219
5042524932
5042532684
5042541107
5042548736
5042556121
5042563873
5042571929
5042579559
5042585723
5042594024
5042602142
5042610259
5042616363
5042623748
5042632903
5042638885
5042647796
5042654388
5042663543
5042670806
5042677703
5042685088
5042691924
5042698638
5042708587
5042714629
5042723784
5042731658
5042740020
5042748076
5042754241
5042763091
5042771514
5042778106
5042785308
5042795684
5042802398
5042810149
5042817717
5042830657
5042837981
5042846343
5042853972
5042866850
5042874053
5042885100
5042891875
5042901152
5042909087
5042916411
5042925200
5042932646
5042939360
5042947661
5042955717
5042963957
5042971587
5042979948
5042986662
5042996367
5043003020
5043010649
5043018278
5043026030
5043035795
5043041105
5043049406
5043056608
5043067350
5043074675
5043083036
5043090239
5043098661
5043105131
5043114775
5043121305
5043132353
5043138883
5043145902
5043155607
5043162687
5043170255
5043178739
5043186247
5043196073
5043203764
5043211027
5043219328
5043226469
5043234403
5043240995
5043250089
5043259855
5043266935
5043281461
5043288663
5043296964
5043304960
5043312223
5043322050
5043327299
5043337552
5043344755
5043351774
5043358304
5043367948
5043374051
5043381864
5043390531
5043400296
5043409696
5043415921
5043423429
5043430387
5043436917
5043446561
5043454495
5043462125
5043468900
5043476529
5043483304
5043492886
5043499478
5043507108
5043513638
5043521390
5043527554
5043536710
5043543179
5043552945
5043559659
5043567593
5043575162
5043584073
5043592007
5043600552
5043608060
5043613980
5043622464
5043630093
5043638638
5043645352
5043655667
5043665677
5043672085
5043680874
5043688870
5043697110
5043708767
5043717312
5043726712
5043733731
5043743801
5043751126
5043759487
5043768215
5043776699
5043785977
5043794582
5043801235
5043809475
5043816067
5043826077
5043832790
5043842007
5043848843
5043858913
5043865322
5043873257
5043883083
5043891262
5043898952
5043905056
5043915432
5043922573
5043931240
5043939296
5043947597
5043954189
5043962429
5043969082
5043978603
5043985195
5043996242
5044002712
5044012294
5044018764
5044026210
5044035854
5044042812
5044050258
5044056972
5044068630
5044075160
5044084987
5044094081
5044103359
5044110988
5044120265
5044126735
5044136562
5044146083
5044153957
5044161098
5044168666
5044177211
5044184962
5044189296
5044199428
5044208644
5044216823
5044223414
5044233790
5044240748
5044248256
5044255397
5044263148
5044271266
5044276942
5044284938
5044292750
5044298915
5044308558
5044314540
5044320765
5044329798
5044336024
5044344996
5044352625
5044359767
5044367335
5044374781
5044384547
5044392848
5044400111
5044408228
5044416468
5044424830
5044429469
5044439478
5044446192
5044456385
5044464991
5044473231
5044479761
5044486964
5044497095
5044502955
5044511927
5044519007
5044529688
5044537684
5044546412
5044555262
5044561426
5044567957
5044577845
5044584375
5044593958
5044600550
5044610315
5044617029
5044625269
5044632715
5044641321
5044648950
5044656275
5044664881
5044673731
5044679895
5044688623
5044696863
5044703516
5044712671
5044719385
5044730066
5044738916
5044745630
5044753198
5044761072
5044768762
5044775720
5044784021
5044792077
5044800622
5044808557
5044816980
5044823694
5044833459
5044839990
5044846460
5044856286
5044864465
5044872277
5044880639
5044888391
5044893945
5044904565
5044912377
5044919030
5044929711
5044936608
5044943688
5044958886
5044964990
5044974328
5044983422
5044991235
5044997460
5045008141
5045016320
5045024194
5045032128
5045038049
5045044701
5045054711
5045064294
5045072167
5045078087
5045086205
5045094445
5045100060
5045109154
5045115502
5045124413
5045133263
5045139306
5045145897
5045154931
5045162377
5045169335
5045175927
5045185570
5045191918
5045200219
5045209069
5045216149
5045222191
5045229943
5045237999
5045245812
5045252526
5045262169
5045270104
5045278465
5045286888
5045297569
5045306175
5045312584
5045321251
5045327538
5045337364
5045346153
5045352440
5045359703
5045369530
5045377708
5045386619
5045392601
5045402550
5045410362
5045417564
5045424644
5045432396
5045441124
5045447227
5045453941
5045465110
5045471641
5045480674
5045489341
5045498008
5045505149
5045513450
5045521080
5045529197
5045538780
5045545432
5045552879
5045560508
5045568809
5045576927
5045585410
5045598594
5045605552
5045613609
5045622153
5045628501
5045637107
5045644004
5045650657
5045657127
5045666831
5045673850
5045682334
5045687949
5045696311
5045703513
5045709983
5045717246
5045727317
5045743918
5045753867
5045762046
5045771018
5045781577
5045790427
5045797019
5045805503
5045813193
5045821494
5045829795
5045836814
5045844626
5045853598
5045859946
5045867758
5045875632
5045882224
5045890646
5045898215
5045905722
5045914023
5045918539
5045926718
5045933432
5045947165
5045955588
5045963766
5045971823
5045978781
5045987387
5045994223
5046002707
5046011313
5046018637
5046026266
5046034079
5046042013
5046050924
5046058554
5046066366
5046074423
5046082174
5046091085
5046096517
5046106527
5046119772
5046127889
5046135458
5046140158
5046148397
5046158285
5046167257
5046179037
5046187826
5046195333
5046203329
5046211385
5046222250
5046230978
5046239339
5046245443
5046252218
5046260091
5046267721
5046276571
5046286153
5046291463
5046299825
5046307454
5046316427
5046324849
5046332174
5046342000
5046348470
5046356405
5046363179
5046371968
5046380513
5046386312
5046397847
5046405782
5046412557
5046419942
5046429769
5046436238
5046446309
5046455525
5046462117
5046471639
5046478658
5046487569
5046494527
5046502705
5046511128
5046518025
5046526936
5046533162
5046540547
5046546101
5046554402
5046562520
5046570027
5046577717
5046584859
5046593281
5046603230
5046612141
5046617329
5046626057
5046630757
5046640095
5046646504
5046655842
5046664997
5046671589
5046680317
5046688069
5046695332
5046702229
5046710102
5046719380
5046725727
5046734211
5046742634
5046748249
5046757771
5046765888
5046776020
5046782917
5046791035
5046800312
5046809406
5046816364
5046824482
5046832478
5046841938
5046847187
5046856586
5046865436
5046874714
5046882465
5046888508
5046903217
5046910480
5046918354
5046926960
5046936603
5046944843
5046950946
5046959980
5046966877
5046975055
5046984027
5046990741
5047000263
5047008502
5047016681
5047023395
5047030536
5047038715
5047047260
5047057453
5047064655
5047072528
5047078815
5047087360
5047098712
5047106220
5047116656
5047125201
5047134845
5047143146
5047154864
5047162005
5047172015
5047183063
5047192889
5047199725
5047207416
5047216083
5047223529
5047230731
5047240741
5047247699
5047254840
5047261126
5047268206
5047275470
5047282122
5047288043
5047296344
5047302752
5047310137
5047315142
5047322100
5047327288
5047334307
5047341021
5047348040
5047354510
5047360796
5047365801
5047372698
5047379290
5047385699
5047392596
5047399737
5047405718
5047410540
5047417376
5047423663
5047429705
5047436419
5047442583
5047449663
5047455767
5047462664
5047468767
5047475237
5047481280
5047486895
5047494829
5047503252
5047510576
5047516680
5047522539
5047528826
5047534746
5047540850
5047547564
5047553179
5047559160
5047564959
5047571123
5047576799
5047582354
5047589373
5047594805
5047601213
5047606218
5047612749
5047618547
5047625078
5047630815
5047637285
5047644670
5047649248
5047656267
5047662554
5047668108
5047673601
5047680742
5047685808
5047692888
5047697527
5047704607
5047710466
5047715837
5047721819
5047728838
5047736162
5047742143
5047746110
5047752824
5047758378
5047767778
5047774614
5047783403
5047790239
5047798478
5047803789
5047812578
5047818498
5047825944
5047831071
5047837785
5047843034
5047849748
5047857133
5047861772
5047870195
5047874833
5047885148
5047893876
5047901139
5047907060
5047912370
5047920487
5047927018
5047932267
5047938859
5047944169
5047949540
5047956925
5047962724
5047972062
5047979874
5047985001
5047992936
5047998734
5048005021
5048012528
5048019974
5048026383
5048032548
5048039384
5048045853
5048052079
5048060319
5048066117
5048072526
5048079972
5048085953
5048092606
5048099381
5048105179
5048113663
5048119278
5048126358
5048132218
5048139359
5048143631
5048150589
5048158585
5048165299
5048172196
5048178116
5048185440
5048191300
5048198258
5048205521
5048211991
5048219620
5048224869
5048232010
5048237686
5048244644
5048251114
5048258316
5048265946
5048271500
5048278153
5048286331
5048293533
5048301712
5048308304
5048314590
5048321732
5048328201
5048333877
5048341385
5048348404
5048355362
5048362137
5048369705
5048376907
5048383316
5048392288
5048399246
5048407425
5048416702
5048422378
5048430618
5048435867
5048443679
5048452346
5048456985
5048464920
5048472305
5048478653
5048484390
5048492263
5048497940
5048506729
5048516006
5048523147
5048528213
5048536086
5048543594
5048550063
5048557082
5048565322
5048572158
5048578506
5048585342
5048591689
5048600112
5048606460
5048614944
5048621413
5048627761
5048636184
5048643569
5048649856
5048656631
5048664809
5048672439
5048679152
5048686233
5048693068
5048699660
5048709548
5048714614
5048724074
5048730910
5048740615
5048746840
5048755263
5048763320
5048770949
5048777846
5048785475
5048793532
5048805068
5048817153
5048826186
5048834364
5048841139
5048848280
5048855605
5048862257
5048872084
5048877760
5048887526
5048894484
5048902113
5048909010
5048916579
5048923109
5048931715
5048937697
5048945814
5048953871
5048959425
5048968336
5048974562
5048983534
5048990553
5048999708
5049006483
5049015394
5049024611
5049033949
5049040480
5049047560
5049055372
5049064344
5049071180
5049080091
5049086317
5049095289
5049101332
5049110182
5049118849
5049127088
5049138929
5049144850
5049154737
5049161878
5049171949
5049178175
5049185011
5049193983
5049202161
5049208204
5049215650
5049224500
5049231763
5049238599
5049246229
5049255811
5049262281
5049271192
5049276868
5049285779
5049291700
5049300550
5049307996
5049317151
5049322644
5049331800
5049339124
5049346021
5049353162
5049360852
5049368299
5049375928
5049382764
5049390515
5049397718
5049405408
5049411389
5049420606
5049429090
5049437024
5049443250
5049451734
5049457837
5049467053
5049473035
5049481091
5049490491
5049497205
5049507397
5049516492
5049522839
5049531079
5049538708
5049545788
5049554150
5049562329
5049572949
5049578930
5049586560
5049593945
5049601330
5049610363
5049616406
5049622937
5049633496
5049640088
5049648510
5049656018
5049663647
5049673413
5049678662
5049689038
5049695080
5049704113
5049713146
5049721386
5049728466
5049737011
5049743420
5049750073
5049759899
5049767346
5049776806
5049784252
5049791882
5049799145
5049808727
5049813976
5049824535
5049832104
5049840526
5049847973
5049856335
5049862926
5049871288
5049880016
5049885387
5049894909
5049901195
5049911022
5049919323
5049926891
5049933971
5049945812
5049953014
5049963756
5049969615
5049984752
5049992626
5050001110
5050006847
5050012889
5050022228
5050030895
5050039378
5050045482
5050053722
5050061717
5050069347
5050075389
5050082347
5050091502
5050098949
5050106029
5050113780
5050122691
5050128673
5050137645
5050142528
5050152598
5050160960
5050167796
5050176890
5050183848
5050190501
5050198131
5050204722
5050212474
5050221202
5050229319
5050235301
5050243174
5050251231
5050258982
5050265147
5050273387
5050281321
5050289622
5050295725
5050303050
5050312754
5050320078
5050327586
5050335642
5050343211
5050349741
5050358164
5050367014
5050375498
5050384898
5050391245
5050399912
5050407542
5050413645
5050421702
5050430247
5050437205
5050446848
5050452036
5050462534
5050469980
5050477488
5050487070
5050494578
5050501047
5050509592
5050518381
5050526743
5050533335
5050541758
5050548227
5050556284
5050566355
5050572153
5050581797
5050589609
5050597177
5050605417
5050613169
5050621286
5050629953
5050634409
5050644418
5050650827
5050660654
5050667368
5050674081
5050683664
5050691599
5050699472
5050708505
5050715951
5050721506
5050732065
5050736398
5050746408
5050755502
5050770273
5050779733
5050785837
5050794381
5050801278
5050810128
5050818856
5050827707
5050833688
5050840585
5050849496
5050855539
5050864633
5050871530
5050882577
5050890267
5050896371
5050904977
5050910592
5050917794
5050924386
5050931588
5050938180
5050947152
5050955331
5050962716
5050971017
5050975716
5050985055
5050990304
5050999764
5051004830
5051015328
5051021676
5051029366
5051035958
5051043648
5051049630
5051058419
5051065743
5051073006
5051081246
5051088997
5051095772
5051105965
5051116097
5051124764
5051129097
5051142525
5051148995
5051157418
5051166329
5051174568
5051181404
5051190499
5051199532
5051208687
5051215828
5051224190
5051230782
5051240486
5051246956
5051253670
5051263557
5051270332
5051279915
5051287788
5051295357
5051301460
5051309761
5051317573
5051325813
5051333748
5051343330
5051349800
5051359627
5051366096
5051376106
5051382515
5051391792
5051398384
5051408271
5051415840
5051423164
5051430671
5051437996
5051446296
5051454536
5051462715
5051470832
5051479438
5051485847
5051495307
5051501960
5051509529
5051519111
5051526618
5051534248
5051541938
5051551826
5051559638
5051567207
5051576484
5051584846
5051592475
5051601081
5051605720
5051621467
5051628059
5051638495
5051646491
5051653449
5051661262
5051668281
5051678534
5051687507
5051693366
5051702277
5051709113
5051716010
5051722236
5051731940
5051737494
5051745673
5051754157
5051761908
5051768073
5051775763
5051784308
5051792060
5051799262
5051807013
5051812995
5051821356
5051830512
5051835883
5051845587
5051854437
5051860968
5051869574
5051877325
5051885443
5051893134
5051900763
5051909247
5051916388
5051924811
5051934088
5051940741
5051950567
5051956671
5051965338
5051973639
5051980230
5051989081
5051996588
5052005987
5052013739
5052020819
5052029303
5052034185
5052045538
5052052069
5052062139
5052070928
5052079046
5052085577
5052094366
5052101141
5052110906
5052117498
5052125982
5052133672
5052142461
5052150213
5052156072
5052165044
5052173040
5052181402
5052188177
5052197210
5052205938
5052214544
5052221136
5052230474
5052237066
5052244634
5052254278
5052259405
5052269964
5052276006
5052284490
5052293279
5052301763
5052308477
5052317144
5052323735
5052331304
5052341130
5052348760
5052356267
5052363652
5052371282
5052380803
5052388738
5052396184
5052404546
5052411687
5052421941
5052431645
5052443974
5052451848
5052459355
5052466863
5052475774
5052484563
5052492802
5052499821
5052507512
5052514531
5052522160
5052530339
5052537968
5052544682
5052552617
5052561162
5052568913
5052575017
5052582768
5052590886
5052596379
5052605229
5052615971
5052622624
5052630253
5052636418
5052645329
5052651188
5052659001
5052668522
5052674870
5052684880
5052691593
5052700321
5052707707
5052714665
5052720158
5052729557
5052735172
5052746281
5052752750
5052762333
5052769779
5052776737
5052783451
5052791141
5052799625
5052808353
5052815678
5052823246
5052831364
5052836002
5052844852
5052851261
5052864078
5052873417
5052882816
5052889774
5052895389
5052902958
5052910709
5052920108
5052927066
5052937259
5052943119
5052950870
5052957889
5052966739
5052973941
5052981754
5052990665
5052999515
5053006900
5053014591
5053021854
5053029483
5053038089
5053043765
5053052188
5053060977
5053068179
5053075931
5053081912
5053090762
5053096744
5053104617
5053111575
5053118838
5053128238
5053135806
5053144656
5053150393
5053159183
5053164493
5053173953
5053179995
5053187930
5053195071
5053204593
5053215091
5053227176
5053238345
5053248477
5053258364
5053267642
5053276431
5053284243
5053291262
5053295046
5053306948
5053313784
5053321963
5053328249
5053334536
5053343142
5053349612
5053356692
5053365420
5053372927
5053379336
5053387392
5053395449
5053401247
5053407717
5053414797
5053423525
5053431154
5053437502
5053445009
5053451784
5053457888
5053465456
5053472719
5053483461
5053489931
5053497622
5053504274
5053511904
5053520449
5053527956
5053535158
5053541567
5053549440
5053555117
5053564089
5053569826
5053578981
5053584352
5053593996
5053599550
5053608400
5053615053
5053626650
5053636476
5053642580
5053649233
5053658083
5053664857
5053671938
5053678590
5053686159
5053693727
5053701417
5053708925
5053716432
5053722536
5053732362
5053739076
5053747621
5053757020
5053764650
5053773805
5053781129
5053789918
5053799623
5053806459
5053815675
5053823182
5053830384
5053838014
5053845521
5053854371
5053864564
5053870057
5053879518
5053886537
5053893922
5053901307
5053910157
5053915772
5053925355
5053933106
5053940431
5053947450
5053956788
5053963013
5053972230
5053982911
5053999940
5054007081
5054015626
5054025635
5054034546
5054043458
5054048951
5054058350
5054065125
5054074158
5054080994
5054087891
5054094788
5054104554
5054109986
5054119873
5054127503
5054134461
5054141297
5054148926
5054157593
5054163513
5054173096
5054181519
5054188111
5054196228
5054205322
5054213562
5054220703
5054228882
5054235596
5054244629
5054253113
5054258972
5054268799
5054276794
5054284363
5054290955
5054299377
5054306457
5054315063
5054324219
5054332580
5054339355
5054347656
5054354797
5054361816
5054371643
5054379455
5054388977
5054396301
5054403869
5054411621
5054419311
5054427063
5054435302
5054444458
5054453918
5054460571
5054468811
5054475402
5054484924
5054491516
5054498718
5054508361
5054515258
5054522826
5054529907
5054538207
5054545837
5054554137
5054560729
5054570312
5054576965
5054586181
5054594848
