6565321144
6565354164
6565358925
6565364418
6565369239
6565374183
6565379310
6565385902
6565391395
6565396461
6565401588
6565406532
6565411109
6565417457
6565422889
6565429481
6565435035
6565441871
6565446632
6565452491
6565460548
6565467018
6565473548
6565480323
6565486488
6565493385
6565498939
6565506324
6565512672
6565520667
6565527747
6565533851
6565542701
6565548682
6565555762
6565563209
6565570045
6565577674
6565583900
6565591590
6565598670
6565607337
6565615272
6565621741
6565628516
6565636634
6565643042
6565650062
6565655372
6565665076
6565671119
6565677588
6565685462
6565693213
6565699439
6565705909
6565712928
6565720984
6565726355
6565733985
6565740210
6565747840
6565757483
6565765051
6565772376
6565778479
6565787207
6565792883
6565801489
6565808447
6565816443
6565824439
6565829565
6565838232
6565846350
6565853308
6565862219
6565868323
6565877173
6565883826
6565892126
6565899267
6565906775
6565914770
6565922217
6565929358
6565935400
6565943884
6565951208
6565959143
6565965979
6565973608
6565982092
6565988806
6565996862
6566003881
6566011389
6566018835
6566027197
6566034033
6566041723
6566048193
6566056372
6566064123
6566071691
6566079321
6566086340
6566091711
6566101904
6566107214
6566117407
6566124487
6566132970
6566140905
6566147008
6566155309
6566162145
6566171484
6566178319
6566186498
6566193334
6566201391
6566207738
6566214452
6566222326
6566230810
6566238195
6566246740
6566254125
6566260534
6566268163
6566275975
6566283727
6566291845
6566300023
6566305455
6566313634
6566319554
6566327306
6566336583
6566344274
6566351537
6566357945
6566364476
6566371251
6566379369
6566388829
6566394383
6566404210
6566411656
6566420018
6566426732
6566434422
6566442540
6566447789
6566457005
6566462743
6566472935
6566478490
6566486790
6566493016
6566502232
6566509312
6566518345
6566525364
6566531346
6566540928
6566546116
6566557042
6566564000
6566569859
6566578526
6566585240
6566592930
6566599705
6566607457
6566616307
6566624119
6566629917
6566637913
6566644932
6566651890
6566660008
6566669224
6566675877
6566684055
6566689488
6566698399
6566704441
6566712681
6566721714
6566727390
6566737583
6566744663
6566751133
6566759067
6566768711
6566776646
6566784092
6566790745
6566797458
6566806370
6566811924
6566820957
6566828281
6566837803
6566844761
6566851108
6566859653
6566869114
6566877536
6566885288
6566893161
6566900425
6566906833
6566916355
6566922519
6566932590
6566940769
6566947666
6566954807
6566962924
6566970249
6566978854
6566988559
6566995761
6567003574
6567011997
6567019504
6567027255
6567034946
6567044101
6567050571
6567058749
6567067111
6567074863
6567083163
6567090793
6567100497
6567107089
6567116061
6567122958
6567130771
6567138034
6567145236
6567155124
6567163485
6567171786
6567179232
6567185702
6567194796
6567200900
6567211154
6567219882
6567227511
6567234225
6567241854
6567250094
6567258029
6567266329
6567273654
6567281100
6567287997
6567295077
6567302279
6567309908
6567317477
6567325228
6567332003
6567340792
6567348238
6567355013
6567363741
6567369601
6567378023
6567385958
6567394564
6567400728
6567410311
6567418245
6567426546
6567433809
6567442171
6567449801
6567458284
6567469515
6567475313
6567486910
6567495394
6567500643
6567510469
6567519686
6567528536
6567536043
6567543367
6567552706
6567567171
6567578523
6567589510
6567599275
6567608431
6567618257
6567626131
6567634676
6567643892
6567652315
6567659700
6567666170
6567672578
6567680208
6567687044
6567693086
6567699434
6567707368
6567713350
6567721223
6567725679
6567733735
6567739595
6567746736
6567753022
6567760225
6567765718
6567773103
6567780244
6567787141
6567793428
6567798310
6567806611
6567811494
6567820039
6567825227
6567833100
6567840425
6567848908
6567855988
6567862397
6567868928
6567876435
6567882783
6567890656
6567897614
6567904084
6567910432
6567917878
6567924104
6567931123
6567937714
6567944062
6567950898
6567955720
6567964204
6567971284
6567977387
6567983124
6567990937
6567996491
6568004181
6568010895
6568016755
6568023346
6568030488
6568037568
6568044159
6568050385
6568056855
6568063202
6568070404
6568076935
6568084565
6568094086
6568100861
6568107453
6568115204
6568121857
6568129242
6568137543
6568144440
6568151398
6568160431
6568166351
6568174591
6568180451
6568188690
6568196137
6568203156
6568214447
6568222015
6568228485
6568238800
6568244842
6568253082
6568259857
6568277740
6568284820
6568293121
6568300873
6568307098
6568313629
6568324798
6568332367
6568341949
6568351959
6568359649
6568367096
6568374054
6568381378
6568387725
6568394256
6568400848
6568407318
6568413726
6568420257
6568426361
6568432952
6568439788
6568446014
6568453155
6568459014
6568466155
6568473113
6568481170
6568487396
6568493926
6568500030
6568506377
6568513274
6568519561
6568526702
6568533111
6568539825
6568545928
6568551299
6568559051
6568564605
6568570769
6568577788
6568585784
6568591887
6568599090
6568604949
6568612151
6568616729
6568623992
6568630156
6568637298
6568643767
6568650237
6568657256
6568662383
6568671416
6568677336
6568686553
6568694792
6568702117
6568707976
6568716338
6568724089
6568731413
6568738799
6568746062
6568752776
6568760283
6568768706
6568775847
6568781584
6568790556
6568796355
6568805876
6568813506
6568820097
6568826811
6568834929
6568841582
6568848112
6568855437
6568864287
6568872404
6568880644
6568888090
6568894743
6568903715
6568910307
6568918547
6568926970
6568935637
6568942228
6568950041
6568960112
6568967192
6568974821
6568982511
6568991362
6568996611
6569005216
6569011869
6569020475
6569027983
6569035429
6569043119
6569049772
6569056486
6569063932
6569070890
6569080229
6569086820
6569094389
6569102140
6569109953
6569116483
6569123746
6569130338
6569139616
6569146146
6569153593
6569160123
6569167814
6569176176
6569183561
6569189420
6569197477
6569206205
6569210782
6569219510
6569227506
6569233548
6569240873
6569249906
6569255399
6569263944
6569271146
6569277799
6569286649
6569293973
6569300077
6569309537
6569316190
6569322782
6569329862
6569337308
6569346524
6569353848
6569363187
6569370755
6569378323
6569386807
6569391141
6569401456
6569407864
6569417020
6569425809
6569433987
6569440579
6569449673
6569456265
6569464078
6569471524
6569478909
6569487332
6569495389
6569503567
6569511380
6569519742
6569526639
6569534817
6569541287
6569550625
6569559353
6569566983
6569575344
6569581265
6569590725
6569596340
6569606289
6569615139
6569625027
6569631314
6569640774
6569648525
6569656094
6569664517
6569671841
6569678921
6569687222
6569695400
6569704311
6569712124
6569721523
6569730007
6569735439
6569745327
6569753261
6569764248
6569770412
6569780422
6569788112
6569792019
6569801601
6569810268
6569818264
6569824184
6569832668
6569838833
6569846035
6569854885
6569860866
6569869838
6569879482
6569885402
6569894802
6569900905
6569908779
6569915798
6569924343
6569931178
6569938930
6569947658
6569955043
6569964198
6569969386
6569978114
6569984950
6569991847
6570000209
6570009975
6570016200
6570025111
6570033046
6570039882
6570045375
6570055080
6570061061
6570071315
6570077357
6570084926
6570092189
6570099940
6570105861
6570115321
6570121303
6570131007
6570138209
6570146083
6570152125
6570161403
6570167750
6570174525
6570184230
6570193141
6570201747
6570208522
6570216151
6570225062
6570232691
6570240870
6570248438
6570254786
6570263453
6570272852
6570279078
6570285487
6570295008
6570301539
6570309595
6570319178
6570325953
6570336268
6570343409
6570350977
6570358057
6570366541
6570377955
6570387415
6570394129
6570402613
6570410181
6570418543
6570425074
6570435144
6570441492
6570449976
6570458582
6570465235
6570475428
6570481653
6570491602
6570498926
6570506494
6570513758
6570522913
6570533777
6570543604
6570553308
6570559900
6570567774
6570577173
6570584070
6570591516
6570600244
6570607324
6570614038
6570623621
6570631006
6570638086
6570644922
6570652490
6570659265
6570667016
6570675622
6570683008
6570689660
6570697046
6570705957
6570713952
6570720422
6570730432
6570737207
6570744775
6570751794
6570759484
6570768274
6570776025
6570782495
6570790856
6570798974
6570806420
6570815393
6570821069
6570830041
6570837548
6570843469
6570853539
6570859521
6570868066
6570876733
6570881493
6570890405
6570896691
6570905724
6570911034
6570920129
6570927270
6570936120
6570942406
6570949425
6570956261
6570966576
6570974877
6570982262
6570989953
6570998192
6571004967
6571013207
6571022667
6571030846
6571038536
6571045067
6571053856
6571062584
6571068993
6571076134
6571085961
6571092003
6571101525
6571109215
6571116539
6571125206
6571132897
6571140526
6571148827
6571155907
6571164085
6571170372
6571180443
6571186974
6571196739
6571203209
6571210167
6571219688
6571227501
6571235069
6571243492
6571252037
6571259056
6571269493
6571275535
6571283897
6571290916
6571299278
6571305931
6571315391
6571325462
6571333885
6571341087
6571349937
6571359275
6571365745
6571376609
6571386131
6571391868
6571403648
6571409263
6571419029
6571424949
6571433860
6571439781
6571448570
6571454673
6571463096
6571471092
6571478782
6571486716
6571492698
6571501609
6571507957
6571517661
6571522971
6571531943
6571539207
6571545981
6571554893
6571561790
6571567527
6571577415
6571584495
6571592856
6571597434
6571608603
6571615134
6571625144
6571631858
6571638755
6571648520
6571654807
6571664450
6571670066
6571680442
6571688376
6571696189
6571704184
6571712790
6571720236
6571728476
6571736044
6571744162
6571750693
6571760214
6571766806
6571776205
6571782614
6571791098
6571798727
6571806967
6571814413
6571821188
6571829489
6571837607
6571846457
6571854574
6571862814
6571872153
6571878317
6571887472
6571895895
6571902365
6571910666
6571919211
6571927450
6571935202
6571944662
6571951193
6571957907
6571967550
6571975607
6571984152
6571992880
6572000326
6572007284
6572015585
6572023092
6572031515
6572037985
6572047567
6572054037
6572063436
6572069906
6572080038
6572086752
6572093404
6572103109
6572109151
6572119588
6572125082
6572133504
6572140890
6572149312
6572155843
6572165426
6572172750
6572188009
6572199910
6572207418
6572216817
6572224324
6572234273
6572242269
6572248494
6572258382
6572263875
6572273458
6572278707
6572288228
6572294637
6572302449
6572309041
6572316854
6572326314
6572335774
6572341939
6572349629
6572358113
6572365682
6572371907
6572379536
6572387898
6572395589
6572403096
6572408650
6572416585
6572424580
6572430745
6572438313
6572447835
6572455464
6572463338
6572471089
6572477376
6572484944
6572492329
6572499531
6572510029
6572516133
6572524373
6572531941
6572540669
6572547322
6572557087
6572563801
6572572773
6572579182
6572589375
6572595906
6572604328
6572611836
6572619831
6572627155
6572637531
6572645161
6572653095
6572661213
6572668781
6572677082
6572685078
6572693562
6572701069
6572709675
6572718952
6572724995
6572733845
6572742023
6572748493
6572756550
6572764057
6572771808
6572781574
6572789264
6572796833
6572804157
6572812580
6572821247
6572829486
6572837177
6572843402
6572853229
6572859272
6572867816
6572875995
6572882709
6572890033
6572899799
6572907184
6572915424
6572922565
6572930683
6572937641
6572946124
6572955219
6572963641
6572970111
6572978717
6572987567
6572995380
6573005267
6573014362
6573023028
6573031756
6573041461
6573050677
6573061542
6573071551
6573078570
6573087481
6573094684
6573103717
6573110553
6573117389
6573125384
6573132464
6573139483
6573147357
6573153888
6573163409
6573169940
6573180194
6573186175
6573193865
6573201312
6573208819
6573215777
6573223345
6573229510
6573238116
6573246783
6573254534
6573261370
6573267596
6573277239
6573285357
6573292925
6573300799
6573310625
6573317400
6573325030
6573334429
6573342119
6573349138
6573357500
6573364702
6573373858
6573383318
6573389483
6573398394
6573406572
6573413225
6573422014
6573428484
6573436480
6573446367
6573454058
6573461504
6573469683
6573477312
6573484514
6573492693
6573500383
6573508989
6573517107
6573525224
6573531877
6573539812
6573548296
6573554582
6573564409
6573573442
6573580095
6573588396
6573596025
6573602922
6573611284
6573618486
6573626726
6573636186
6573645280
6573649614
6573659929
6573666459
6573676469
6573685258
6573690263
6573699846
6573707780
6573717729
6573722978
6573732377
6573740251
6573747758
6573755815
6573765275
6573771196
6573781327
6573790483
6573796769
6573803300
6573812699
6573819047
6573829118
6573836991
6573849809
6573856278
6573865922
6573873002
6573883622
6573889970
6573899857
6573906388
6573915665
6573923051
6573930192
6573937882
6573946793
6573953751
6573961075
6573970048
6573977616
6573986954
6573995743
6574003251
6574012162
6574018937
6574025772
6574034256
6574041336
6574050003
6574057083
6574063797
6574071427
6574077896
6574085892
6574095230
6574104569
6574113663
6574121964
6574129288
6574137711
6574144730
6574152847
6574159195
6574169327
6574178055
6574183304
6574192947
6574199478
6574209122
6574217667
6574225174
6574230789
6574241348
6574248062
6574256424
6574265091
6574271194
6574280411
6574288711
6574295181
6574303970
6574310623
6574319229
6574326675
6574336074
6574344131
6574352066
6574359512
6574366531
6574375259
6574383377
6574391860
6574400039
6574408340
6574414871
6574423721
6574430557
6574440749
6574447219
6574454910
6574462600
6574469924
6574480239
6574485671
6574494094
6574503249
6574511489
6574519668
6574527785
6574535171
6574543349
6574549941
6574558974
6574565566
6574573806
6574581496
6574589309
6574596999
6574604140
6574612502
6574621901
6574630202
6574637526
6574646010
6574654860
6574661086
6574668227
6574678237
6574688368
6574695326
6574706008
6574714064
6574722914
6574731764
6574739516
6574748366
6574755324
6574762099
6574769789
6574776259
6574785841
6574789748
6574800124
6574807509
6574815321
6574821303
6574829481
6574835463
6574844618
6574852675
6574860487
6574868300
6574873854
6574883436
6574890699
6574898329
6574910475
6574916822
6574925062
6574932692
6574939650
6574949842
6574955885
6574964308
6574968641
6574979444
6574985853
6574995375
6575002088
6575011366
6575019972
6575026746
6575034315
6575041944
6575051893
6575058790
6575066358
6575073133
6575081495
6575090162
6575098280
6575106336
6575114637
6575121168
6575130323
6575136793
6575146192
6575152906
6575160901
6575170362
6575176648
6575186780
6575193555
6575200940
6575208692
6575216932
6575224012
6575232190
6575241040
6575249585
6575256238
6575265699
6575274304
6575279370
6575289075
6575297925
6575304395
6575311536
6575322034
6575330884
6575338330
6575346509
6575354199
6575361829
6575369946
6575376965
6575388257
6575395337
6575403760
6575411694
6575419934
6575427807
6575434216
6575442822
6575449841
6575457348
6575466321
6575473889
6575480298
6575488476
6575496838
6575505078
6575512646
6575527417
6575534130
6575542492
6575552197
6575559399
6575567761
6575575512
6575583996
6575591198
6575599255
6575606457
6575614330
6575621349
6575630444
6575637219
6575643810
6575654064
6575659557
6575669140
6575675732
6575683483
6575691784
6575699230
6575705883
6575713512
6575719677
6575729198
6575735180
6575743725
6575749767
6575759350
6575765941
6575773205
6575782848
6575788707
6575798534
6575805797
6575813366
6575822948
6575830761
6575837230
6575845531
6575854015
6575862316
6575870372
6575876659
6575885387
6575891246
6575900829
6575908824
6575921092
6575927440
6575937938
6575943553
6575953380
6575959483
6575969188
6575976146
6575983714
6575990184
6576000682
6576007091
6576015513
6576024241
6576030406
6576036998
6576047130
6576053599
6576061229
6576070750
6576077281
6576087352
6576093394
6576102916
6576112071
6576119944
6576127879
6576135569
6576144969
6576152598
6576159495
6576167918
6576175975
6576184153
6576192637
6576200755
6576205332
6576215769
6576222178
6576231577
6576238047
6576245371
6576255869
6576263621
6576271067
6576279917
6576287485
6576293711
6576301890
6576309946
6576318064
6576327524
6576333811
6576343394
6576352549
6576359873
6576367075
6576377329
6576384653
6576395273
6576408701
6576415049
6576425119
6576432871
6576440012
6576446360
6576456003
6576461313
6576470957
6576475229
6576485605
6576492868
6576500559
6576507395
6576515207
6576521372
6576529794
6576535654
6576543039
6576551828
6576560129
6576566171
6576572946
6576582651
6576590097
6576597543
6576604684
6576612802
6576620248
6576628732
6576637338
6576645578
6576649911
6576661264
6576668161
6576677926
6576684579
6576691293
6576701120
6576708688
6576716745
6576724374
6576731759
6576741220
6576748849
6576755807
6576764047
6576772347
6576780831
6576789804
6576796029
6576805123
6576813546
6576820016
6576828988
6576835885
6576843331
6576853768
6576861825
6576869393
6576877023
6576884713
6576891793
6576900277
6576909493
6576918404
6576922982
6576933663
6576940255
6576949044
6576957833
6576962899
6576972542
6576982369
6576989266
6576997689
6577005196
6577013924
6577021370
6577028511
6577036690
6577045967
6577052376
6577058968
6577068367
6577074898
6577082344
6577092110
6577101021
6577107552
6577116341
6577124275
6577132332
6577139839
6577146614
6577157112
6577162605
6577171211
6577180122
6577188850
6577198799
6577205696
6577212654
6577222420
6577229256
6577237007
6577245430
6577253914
6577258613
6577265815
6577272957
6577278877
6577283577
6577291206
6577295845
6577303657
6577310615
6577316536
6577323005
6577328926
6577335090
6577341133
6577347114
6577356941
6577361946
6577369026
6577374580
6577381599
6577387824
6577393440
6577400642
6577406257
6577413154
6577418830
6577425849
6577431403
6577437507
6577444526
6577449958
6577456733
6577463081
6577470222
6577475837
6577482185
6577487739
6577493964
6577499763
6577504340
6577511237
6577516120
6577523017
6577527839
6577534797
6577541877
6577548713
6577554572
6577560431
6577566169
6577572638
6577578132
6577584723
6577590094
6577595832
6577603034
6577607734
6577614692
6577621222
6577626410
6577631476
6577639655
6577645514
6577649909
6577657538
6577663275
6577668708
6577674811
6577680609
6577686408
6577693366
6577699530
6577706366
6577712897
6577718878
6577724982
6577730963
6577737616
6577742316
6577750433
6577756781
6577762518
6577767828
6577776312
6577781439
6577788275
6577793829
6577801214
6577808172
6577812994
6577821539
6577831854
6577838995
6577845709
6577851935
6577857733
6577863775
6577871771
6577878058
6577885260
6577891180
6577896795
6577903875
6577909491
6577916754
6577922369
6577929815
6577935430
6577941595
6577951361
6577959967
6577964910
6577972784
6577977667
6577985906
6577993536
6577999700
6578006841
6578012640
6578021429
6578029363
6578035040
6578042547
6578048772
6578055425
6578061956
6578069646
6578076238
6578083501
6578089422
6578094793
6578102849
6578109930
6578115667
6578123174
6578130254
6578136358
6578143865
6578150152
6578157781
6578164007
6578170537
6578176824
6578183843
6578191228
6578197576
6578205632
6578210393
6578218023
6578225957
6578233647
6578239873
6578244817
6578252324
6578257207
6578264531
6578271428
6578277837
6578285100
6578291387
6578298406
6578304753
6578310613
6578318425
6578325810
6578333989
6578340154
6578347417
6578354008
6578360600
6578365117
6578372380
6578379948
6578386601
6578392766
6578399296
6578406315
6578411687
6578418034
6578426579
6578433903
6578443608
6578455693
6578461918
6578470402
6578477787
6578485295
6578492863
6578500187
6578506352
6578513188
6578519352
6578526127
6578532353
6578539555
6578545903
6578553532
6578559269
6578566471
6578572941
6578579045
6578587895
6578593571
6578602421
6578608402
6578615299
6578621525
6578630253
6578635075
6578643925
6578649784
6578658634
6578664432
6578671268
6578677860
6578686954
6578693302
6578700138
6578707279
6578715214
6578721256
6578730045
6578736759
6578743900
6578751224
6578758121
6578765018
6578772281
6578779483
6578787113
6578793033
6578801761
6578807804
6578816104
6578824161
6578833438
6578841617
6578849185
6578855106
6578864078
6578870243
6578877933
6578886783
6578894351
6578903323
6578908817
6578917667
6578924381
6578933292
6578939517
6578946719
6578955936
6578962894
6578969119
6578976688
6578984988
6578992801
6579000796
6579006351
6579014773
6579022464
6579030887
6579038638
6579044803
6579052676
6579060794
6579068484
6579074710
6579085879
6579095340
6579103274
6579110171
6579117739
6579125857
6579133486
6579139651
6579147891
6579153872
6579163027
6579169314
6579179385
6579188113
6579194277
6579204165
6579212710
6579222720
6579231020
6579238589
6579246828
6579253298
6579262453
6579271120
6579279360
6579286379
6579293947
6579300051
6579309084
6579314944
6579323977
6579332094
6579339724
6579347780
6579355349
6579361208
6579369631
6579375551
6579384951
6579393068
6579400881
6579406984
6579416079
6579424074
6579429079
6579437990
6579445436
6579452516
6579460207
6579469118
6579474428
6579484255
6579491152
6579498232
6579504884
6579512392
6579522829
6579533083
6579539796
6579548586
6579554933
6579563722
6579569765
6579576723
6579583742
6579593568
6579598451
6579605531
6579613710
6579620668
6579626649
6579633668
6579639589
6579648195
6579654664
6579664979
6579671937
6579682130
6579691468
6579699586
6579703920
6579716615
6579721070
6579731935
6579738526
6579746949
6579753358
6579760987
6579770631
6579777345
6579787049
6579791810
6579801148
6579807252
6579814820
6579822083
6579830079
6579836854
6579846009
6579853455
6579861878
6579870484
6579878907
6579885865
6579893799
6579901002
6579909363
6579916627
6579926575
6579933655
6579942017
6579949830
6579959839
6579971436
6579978272
6579989197
6579997925
6580006226
6580015747
6580023133
6580031311
6580040833
6580046997
6580055603
6580061341
6580069885
6580075806
6580084351
6580091187
6580099793
6580105408
6580114014
6580123108
6580130493
6580136841
6580145996
6580153564
6580160461
6580170288
6580176330
6580185058
6580191406
6580199829
6580208862
6580216614
6580222534
6580231628
6580240661
6580248718
6580256286
6580263977
6580268005
6580278625
6580287048
6580294555
6580300476
6580308715
6580317443
6580322265
6580331054
6580339782
6580347717
6580352783
6580361816
6580369506
6580376403
6580384582
6580396667
6580406860
6580413390
6580422729
6580429565
6580437438
6580447143
6580453368
6580462890
6580470153
6580477721
6580485900
6580493529
6580501403
6580509521
6580517150
6580525634
6580532287
6580543517
6580553222
6580559325
6580566039
6580576415
6580582885
6580592650
6580598937
6580608702
6580615233
6580622924
6580632384
6580640441
6580647948
6580656859
6580664916
6580672850
6580682433
6580688719
6580697508
6580704588
6580711485
6580715453
6580724974
6580732909
6580741820
6580749022
6580756468
6580766051
6580775084
6580784849
6580794188
6580807310
6580814696
6580826353
6580837340
6580843504
6580851500
6580857664
6580866331
6580873655
6580879026
6580886839
6580893858
6580900755
6580906370
6580914854
6580922911
6580929075
6580936582
6580943479
6580948912
6580957029
6580962339
6580971617
6580977903
6580986326
6580993650
6581001280
6581011228
6581018064
6581028074
6581035337
6581043699
6581053831
6581061582
6581069334
6581076780
6581085935
6581093259
6581100950
6581107969
6581114316
6581122556
6581129209
6581140012
6581147947
6581157407
6581162168
6581170896
6581180295
6581187741
6581195676
6581204648
6581215329
6581221982
6581230161
6581237363
6581245481
6581254819
6581263242
6581271237
6581279538
6581286679
6581295041
6581301511
6581310666
6581317075
6581325253
6581333005
6581341916
6581349362
6581358762
6581366757
6581372616
6581383053
6581388913
6581400143
6581406918
6581415280
6581419674
6581429684
6581438717
6581443783
6581453427
6581463131
6581469662
6581476742
6581486447
6581493771
6581501522
6581509457
6581517819
6581526730
6581535824
6581548641
6581555905
6581562741
6581572201
6581579708
6581587216
6581596981
6581604427
6581610775
6581618588
6581627438
6581634396
6581641170
6581648983
6581657528
6581665218
6581672176
6581679928
6581686764
6581694515
6581703365
6581709041
6581718380
6581727047
6581736019
6581741634
6581751156
6581758785
6581764949
6581773677
6581779720
6581786434
6581795345
6581803463
6581809444
6581817440
6581824520
6581831539
6581840450
6581848934
6581856746
6581862605
6581872859
6581880672
6581893672
6581902339
6581909602
6581918025
6581926082
6581930598
6581943599
6581950923
6581959285
6581963740
6581973994
6581980708
6581989863
6581998714
6582005549
6582015376
6582022212
6582029780
6582038630
6582046321
6582054744
6582062434
6582069026
6582077327
6582085505
6582093928
6582100337
6582108638
6582117366
6582123774
6582133601
6582139521
6582149287
6582155940
6582165766
6582172602
6582180293
6582188044
6582197382
6582206477
6582212702
6582221674
6582229914
6582236445
6582245600
6582252375
6582262080
6582270685
6582276667
6582286371
6582293207
6582300776
6582309504
6582317011
6582324213
6582332819
6582341913
6582350336
6582354670
6582364985
6582375483
6582382257
6582391840
6582401239
6582411127
6582421015
6582428949
6582437189
6582444208
6582453790
6582457758
6582469293
6582473444
6582483148
6582492059
6582499689
6582506952
6582512567
6582521783
6582529474
6582535577
6582544733
6582550836
6582559747
6582567926
6582572870
6582581781
6582588556
6582597223
6582604730
6582610772
6582620233
6582628167
6582635553
6582642389
6582650995
6582661248
6582668573
6582675958
6582685113
6582692742
6582698114
6582708551
6582717034
6582725518
6582729852
6582740716
6582747491
6582754388
6582763970
6582770074
6582779656
6582786492
6582796380
6582802056
6582812554
6582819939
6582827691
6582836114
6582842217
6582848626
6582858758
6582865349
6582872857
6582882378
6582889336
6582899224
6582906060
6582913567
6582921441
6582931328
6582939324
6582946953
6582954400
6582963372
6582979302
6582987053
6582995110
6583007622
6583014519
6583021538
6583031426
6583037956
6583047844
6583054558
6583062370
6583071037
6583079277
6583087578
6583096672
6583104179
6583110649
6583119011
6583128471
6583136040
6583144157
6583152458
6583160087
6583168388
6583175224
6583183647
6583190178
6583201835
6583214164
6583221611
6583230156
6583240226
6583247978
6583255729
6583265922
6583276664
6583285942
6583295036
6583303215
6583309623
6583318778
6583325126
6583335685
6583342155
6583349601
6583358268
6583363944
6583372733
6583379142
6583386894
6583395438
6583402519
6583410697
6583416984
6583423759
6583431937
6583438407
6583445121
6583451285
6583461356
6583467887
6583476066
6583482841
6583489066
6583494742
6583503898
6583511649
6583519645
6583527396
6583536673
6583542411
6583551627
6583559378
6583569022
6583577323
6583583548
6583592276
6583600272
6583605521
6583614371
6583621817
6583629874
6583635733
6583644766
6583652945
6583660697
6583665518
6583673880
6583679862
6583688529
6583696829
6583705374
6583712881
6583719351
6583729117
6583738150
6583744437
6583753592
6583763174
6583770804
6583778250
6583785940
6583792898
6583801199
6583808523
6583822928
6583833243
6583843618
6583852591
6583858816
6583867849
6583874502
6583882132
6583891653
6583900381
6583907034
6583914907
6583922537
6583929617
6583940176
6583949087
6583957083
6583968191
6583975454
6583983022
6583991140
6584000356
6584008596
6584013418
6584027212
6584033742
6584042532
6584051504
6584059621
6584067983
6584076284
6584083364
6584090993
6584096914
6584105520
6584114431
6584122365
6584128347
6584135976
6584143972
6584152822
6584160878
6584166310
6584175344
6584183644
6584191762
6584197988
6584204885
6584211904
6584221181
6584228932
6584235951
6584245412
6584252492
6584257985
6584267690
6584273366
6584283193
6584288380
6584297841
6584304677
6584312367
6584319447
6584327077
6584335805
6584343556
6584350758
6584359303
6584365285
6584374623
6584382802
6584390431
6584396351
6584403248
6584412526
6584421315
6584427907
6584435780
6584443287
6584451527
6584459217
6584468495
6584478138
6584485890
6584493397
6584499501
6584514027
6584519581
6584530140
6584537037
6584545582
6584554432
6584560413
6584569691
6584578053
6584585316
6584593678
6584600330
6584610035
6584616749
6584623463
6584632984
6584640369
6584648060
6584657093
6584664600
6584672108
6584680591
6584688709
6584697071
6584705799
6584711963
6584718555
6584728016
6584736499
6584742786
6584752552
6584759327
6584768970
6584775745
6584783435
6584789966
6584800342
6584807117
6584819324
6584826404
6584836841
6584843311
6584851489
6584862048
6584870227
6584878894
6584889636
6584897693
6584903857
6584911243
6584920093
6584925891
6584935474
6584944446
6584952441
6584958240
6584967151
6584973865
6584980823
6584988940
6584996020
6585003283
6585010180
6585017077
6585026843
6585032458
6585040271
6585048022
6585055651
6585063159
6585070666
6585077441
6585084826
6585092272
6585099902
6585108142
6585115954
6585121935
6585131396
6585139697
6585147204
6585154162
6585162524
6585169116
6585175951
6585185656
6585193224
6585203051
6585209826
6585219469
6585227099
6585234972
6585243395
6585250841
6585258166
6585266649
6585273730
6585282213
6585288683
6585298266
6585304796
6585312731
6585322435
6585329149
6585339037
6585345324
6585352831
6585362413
6585369921
6585377123
6585385302
6585392443
6585400804
6585409777
6585416002
6585422533
6585432909
6585439623
6585449144
6585455858
6585463304
6585473192
6585480455
6585488207
6585495226
6585503587
6585511339
6585519701
6585528368
6585536668
6585544420
6585550767
6585559312
6585568284
6585575059
6585582872
6585590379
6585598924
6585606859
6585615465
6585622911
6585627244
6585638719
6585646104
6585656053
6585665452
6585675157
6585682481
6585692552
6585699632
6585712937
6585716661
6585728806
6585733079
6585745164
6585752427
6585760178
6585768113
6585775315
6585781663
6585789719
6585796189
6585805894
6585812180
6585822495
6585828660
6585837388
6585845383
6585852219
6585861558
6585867905
6585877610
6585884080
6585892441
6585899338
6585906662
6585914963
6585921860
6585925766
6585939560
6585944931
6585954331
6585960434
6585968064
6585973984
6585981919
6585988022
6585998947
6586007736
6586016953
6586026840
6586033737
6586041916
6586051621
6586056870
6586066757
6586074326
6586084335
6586090256
6586100021
6586108749
6586116379
6586124618
6586134811
6586142563
6586150436
6586159103
6586166672
6586173385
6586181930
6586190841
6586199203
6586207016
6586213119
6586221969
6586228256
6586237960
6586245407
6586252975
6586261520
6586269149
6586277877
6586285385
6586292831
6586301132
6586309799
6586318771
6586327072
6586333969
6586341171
6586352035
6586360885
6586368148
6586376876
6586385360
6586391952
6586402511
6586411178
6586417403
6586427108
6586433334
6586443221
6586449203
6586459701
6586467086
6586476974
6586484603
6586495650
6586502791
6586513411
6586519698
6586528670
6586536788
6586549056
6586558150
6586565413
6586573226
6586580306
6586587325
6586595076
6586603377
6586611495
6586618941
6586626631
6586634810
6586640547
6586646712
6586655806
6586664595
6586672591
6586678694
6586687849
6586694624
6586704146
6586710738
6586721358
6586727339
6586734053
6586745772
6586752241
6586759932
6586767805
6586778486
6586784041
6586792402
6586801314
6586809797
6586818220
6586826460
6586833052
6586841536
6586848066
6586857649
6586866621
6586874922
6586881452
6586889753
6586897505
6586905989
6586913557
6586921003
6586929304
6586938337
6586946943
6586954450
6586962629
6586969831
6586978315
6586985151
6586992780
6587002607
6587011030
6587017561
6587025251
6587033002
6587040571
6587049055
6587056501
6587064863
6587074201
6587082502
6587091108
6587097272
6587106733
6587113019
6587121564
6587130414
6587137067
6587145124
6587152631
6587159711
6587169232
6587175031
6587184613
6587190595
6587197858
6587206037
6587211774
6587218488
6587225507
6587231000
6587238080
6587243939
6587249555
6587256696
6587263898
6587269940
6587276349
6587281171
6587288739
6587296735
6587303815
6587309186
6587317364
6587325238
6587335248
6587342389
6587348309
6587355267
6587363141
6587367779
6587376202
6587382733
6587389020
6587395184
6587401288
6587406109
6587415020
6587419781
6587426190
6587430951
6587437359
6587442059
6587448040
6587452862
6587459149
6587465191
6587472699
6587479473
6587484478
6587490338
6587496075
6587502667
6587508343
6587513775
6587519268
6587524578
6587530377
6587534405
6587543255
6587548321
6587556194
6587561504
6587567730
6587574139
6587578350
6587585064
6587591961
6587597271
6587603435
6587607586
6587615032
6587620342
6587626018
6587633037
6587638348
6587644573
6587650921
6587655132
6587661419
6587668926
6587673443
6587680279
6587686199
6587691509
6587698101
6587703533
6587708721
6587716533
6587722149
6587728374
6587733562
6587739666
6587746440
6587750713
6587758586
6587766216
6587773235
6587779827
6587787761
6587794109
6587799724
6587808513
6587814250
6587821086
6587827251
6587834392
6587841411
6587847820
6587856120
6587861797
6587870586
6587876506
6587885539
6587892924
6587899150
6587905803
6587914165
6587922526
6587927775
6587935893
6587942668
6587949077
6587956645
6587963115
6587967998
6587977092
6587982585
6587990458
6587997355
6588003398
6588010722
6588017253
6588023356
6588030986
6588038676
6588045207
6588050090
6588057353
6588065104
6588071757
6588078471
6588085490
6588091715
6588099223
6588105448
6588112040
6588118266
6588124430
6588130778
6588138224
6588144450
6588149760
6588156474
6588164469
6588171366
6588177164
6588184977
6588189555
6588197367
6588203165
6588209513
6588217509
6588223490
6588229288
6588237162
6588244486
6588250284
6588256449
6588264200
6588270731
6588277994
6588283365
6588290812
6588298014
6588303080
6588310709
6588317789
6588324320
6588331461
6588337870
6588345804
6588352884
6588358499
6588365457
6588370829
6588380716
6588386331
6588394815
6588400247
6588407572
6588414774
6588422342
6588427774
6588436807
6588444559
6588451151
6588457620
6588464395
6588470804
6588479349
6588486429
6588495401
6588503152
6588508524
6588514932
6588524332
6588533182
6588539102
6588549600
6588556985
6588569742
6588575235
6588584939
6588593667
6588599160
6588607705
6588612954
6588621865
6588627298
6588635171
6588643960
6588650857
6588656167
6588664102
6588672219
6588679116
6588685830
6588693032
6588699563
6588708596
6588717141
6588723489
6588730630
6588736978
6588745156
6588751870
6588760720
6588767678
6588774270
6588782143
6588790810
6588797951
6588804177
6588811867
6588819802
6588827492
6588831460
6588844338
6588852456
6588861916
6588868142
6588876015
6588883584
6588891457
6588898354
6588908608
6588915688
6588922585
6588930092
6588937539
6588945290
6588952126
6588958718
6588966347
6588973244
6588980324
6588988686
6588995827
6589002419
6589010109
6589017067
6589025307
6589033425
6589040138
6589045998
6589054604
6589061745
6589068703
6589072304
6589082436
6589087990
6589096535
6589104713
6589111549
6589118446
6589125954
6589132057
6589141395
6589147499
6589156776
6589163002
6589170936
6589180885
6589187172
6589196693
6589203163
6589212379
6589219581
6589228920
6589234840
6589244300
6589250770
6589260902
6589268775
6589279945
6589288734
6589298500
6589307166
6589314186
6589322914
6589331519
6589340492
6589347877
6589356300
6589364906
6589373023
6589380103
6589387855
6589394447
6589404273
6589410621
6589418067
6589425025
6589432471
6589439368
6589446998
6589453467
6589461097
6589468299
6589477698
6589484290
6589493079
6589498511
6589507056
6589516211
6589524695
6589532874
6589538977
6589547400
6589555457
6589561377
6589570166
6589577002
6589585913
6589592566
6589601599
6589607459
6589616980
6589624365
6589632117
6589640845
6589648535
6589654883
6589663123
6589671423
6589679724
6589686133
6589695166
6589704016
6589712683
6589721655
6589729834
6589738196
6589746802
6589751318
6589762549
6589769201
6589780127
6589786718
6589793188
6589803198
6589811926
6589818579
6589827063
6589834692
6589844580
6589855017
6589862890
6589870520
6589877111
6589885473
6589893347
6589901647
6589908178
6589917455
6589923864
6589932714
6589941381
6589947241
6589956945
6589965429
6589972997
6589982580
6589990636
6589998449
6590006078
6590015356
6590022558
6590027196
6590038793
6590045751
6590055700
6590063939
6590071996
6590079564
6590088109
6590095556
6590106664
6590115880
6590124669
6590137670
6590145238
6590154454
6590161718
6590170934
6590177220
6590184850
6590193578
6590201512
6590209569
6590217137
6590223119
6590231969
6590239781
6590248204
6590256200
6590264012
6590270360
6590279210
6590287083
6590294713
6590300694
6590310399
6590316563
6590324132
6590332982
6590340184
6590347386
6590354649
6590361668
6590370823
6590379857
6590386754
6590393773
6590399876
6590409398
6590417088
6590423924
6590431492
6590439366
6590446202
6590454136
6590463902
6590469944
6590477818
6590485935
6590492466
6590501499
6590510777
6590519016
6590525730
6590532444
6590542210
6590547947
6590557652
6590565708
6590573826
6590580540
6590588657
6590598423
6590606785
6590611301
6590621128
6590627720
6590639255
6590648044
6590654148
6590662937
6590671177
6590677646
6590687046
6590693577
6590700901
6590711521
6590720005
6590727451
6590735019
6590744602
6590749973
6590760410
6590767551
6590776462
6590785068
6590791171
6590797946
6590808200
6590814731
6590824069
6590830661
6590841159
6590847934
6590855502
6590864963
6590872348
6590880038
6590888583
6590896030
6590903293
6590913669
6590922153
6590930392
6590936679
6590947787
6590956454
6590965182
6590972262
6590985629
6590992831
6591002108
6591010959
6591016940
6591024264
6591033358
6591039157
6591048617
6591055758
6591064608
6591070651
6591079501
6591086459
6591095431
6591100802
6591110201
6591117892
6591124850
6591131564
6591139132
6591147250
6591154879
6591161837
6591169650
6591177706
6591185458
6591191927
6591199496
6591208224
6591216036
6591220370
6591230807
6591237520
6591247713
6591254366
6591263704
6591270418
6591277742
6591287691
6591294405
6591305880
6591315279
6591321932
6591330843
6591337313
6591344637
6591354891
6591363069
6591371187
6591378939
6591386446
6591394014
6591402315
6591411592
6591417879
6591424410
6591436250
6591443330
6591451692
6591458284
6591468538
6591475008
6591483980
6591490510
6591498994
6591508821
6591514863
6591524690
6591532319
6591539949
6591546968
6591555208
6591564729
6591572175
6591579072
6591587556
6591597078
6591605684
6591612153
6591620637
6591629365
6591638642
6591644990
6591653962
6591660981
6591669038
6591678620
6591684236
6591694062
6591702424
6591709992
6591718232
6591725739
6591732636
6591743134
6591749177
6591760590
6591768037
6591780122
6591789582
6591796174
6591806245
6591812897
6591822785
6591829377
6591837494
6591845673
6591853486
6591861359
6591869416
6591875580
6591882538
6591891449
6591897675
6591906525
6591913788
6591920685
6591928131
6591937226
6591944489
6591951386
6591961334
6591967865
6591975434
6591982392
6591989350
6591998322
6592005524
6592012604
6592021393
6592028595
6592036469
6592043549
6592050018
6592059906
6592065094
6592074982
6592081573
6592092499
6592098236
6592106842
6592115875
6592124237
6592131866
6592140228
6592147064
6592157013
6592163482
6592173126
6592179718
6592186371
6592196075
6592204254
6592212005
6592221649
6592229888
6592236663
6592244964
6592252044
6592260528
6592267059
6592277069
6592283660
6592293731
6592302276
6592310943
6592317779
6592325713
6592333160
6592341522
6592349151
6592358855
6592366668
6592373626
6592382110
6592388763
6592397185
6592403655
6592414153
6592420684
6592430205
6592436797
6592446197
6592454925
6592463103
6592469756
6592477569
6592485015
6592493010
6592502898
6592508086
6592518279
6592525603
6592533843
6592541838
6592548003
6592557402
6592566497
6592572905
6592582183
6592589446
6592597930
6592607939
6592615996
6592626555
6592634490
6592643034
6592656035
6592662810
6592670378
6592677458
6592685210
6592694670
6592702910
6592706877
6592716643
6592725249
6592733549
6592740568
6592748381
6592754362
6592763640
6592771635
6592780974
6592785368
6592795500
6592802031
6592809050
6592814665
6592826200
6592832670
6592839689
6592845549
6592854399
6592860807
6592871855
6592880277
6592888151
6592895231
6592905790
6592912199
6592923002
6592930753
6592939237
6592948209
6592956937
6592965360
6592973600
6592980131
6592988370
6592995084
6593005155
6593011564
6593021635
6593028104
6593036039
6593045621
6593051664
6593061368
6593068998
6593076749
6593085355
6593093229
6593102689
6593110563
6593115140
6593126432
6593133206
6593144071
6593150785
6593161588
6593168363
6593174954
6593184659
6593191129
6593200650
6593208646
6593216153
6593224210
6593231534
6593241299
6593248868
6593256924
6593264432
6593272855
6593280484
6593288052
6593296414
6593303311
6593311612
6593318020
6593327542
6593336575
6593341885
6593351407
6593360074
6593368618
6593374661
6593384427
6593392483
6593399990
6593407864
6593416104
6593424771
6593437222
6593444973
6593455166
6593464504
6593471523
6593480129
6593490017
6593497708
6593504665
6593511562
6593520474
6593528164
6593535305
6593541470
6593550991
6593555874
6593565823
6593573147
6593580776
6593584927
6593594448
6593600368
6593610561
6593616909
6593624904
6593630947
6593640529
6593646511
6593655056
6593663173
6593669155
6593678615
6593688015
6593696132
6593704250
6593710414
6593717250
6593726345
6593732570
6593741359
6593749233
6593756740
6593765712
6593773342
6593780544
6593788783
6593793117
6593805751
6593813503
6593821925
6593829372
6593837733
6593845363
6593853786
6593863551
6593871730
6593876125
6593886317
6593892421
6593904567
6593911647
6593920375
6593928859
6593936854
6593946620
6593955714
6593963710
6593972438
6593981166
6593989283
6593997157
6594005519
6594009791
6594023097
6594031031
6594039942
6594044337
6594054469
6594060938
6594070399
6594076808
6594084803
6594094080
6594103419
6594110316
6594119532
6594126734
6594141749
6594152186
6594162318
6594171717
6594183619
6594191920
6594199549
6594206568
6594214258
6594218348
6594229090
6594237879
6594246302
6594251185
6594264185
6594270716
6594279322
6594287684
6594296045
6594308069
6594315760
6594324121
6594329309
6594337427
6594342981
6594351648
6594358911
6594366907
6594372461
6594380457
6594386377
6594394068
6594402979
6594407922
6594416956
6594423792
6594432703
6594439783
6594446802
6594453333
6594463098
6594468652
6594478845
6594484338
6594491907
6594499902
6594507776
6594516199
6594523706
6594530786
6594538598
6594545556
6594553308
6594562280
6594568017
6594574060
6594583520
6594589807
6594600061
6594607446
6594615136
6594621179
6594630029
6594638208
6594645776
6594651696
6594660424
6594668359
6594676293
6594682397
6594691003
6594699120
6594704858
6594713708
6594723229
6594731225
6594736413
6594745629
6594752404
6594761315
6594767846
6594775170
6594783227
6594790429
6594797753
6594805382
6594812523
6594820153
6594828393
6594836022
6594844811
6594853051
6594859704
6594867943
6594876976
6594882653
6594892418
6594898888
6594908715
6594915245
6594925194
6594933678
6594942101
6594948693
6594956932
6594965294
6594972618
6594980065
6594990807
6594997154
6595005028
6595012962
6595021385
6595027855
6595037315
6595044762
6595054466
6595062889
6595069359
6595079124
6595085228
6595095421
6595104454
6595112511
6595121910
6595128990
6595137047
6595144066
6595150657
6595158531
6595165550
6595173118
6595180198
6595189781
6595193626
6595205162
6595211265
6595218833
6595226890
6595234825
6595241050
6595251121
6595258140
6595265830
6595274436
6595280113
6595286338
6595295677
6595304405
6595312339
6595318565
6595327598
6595333640
6595342673
6595350791
6595356895
6595365989
6595371665
6595381370
6595387168
6595396140
6595404136
6595413169
6595418113
6595427939
6595436057
6595443198
6595450095
6595457847
6595465293
6595473166
6595482016
6595488303
6595495139
6595505210
6595511740
6595521384
6595528159
6595538169
6595544638
6595553122
6595560935
6595570090
6595577658
6595584799
6595593405
6595601889
6595610373
6595619162
6595625205
6595634482
6595642844
6595649924
6595658408
6595664938
6595674460
6595681113
6595689657
6595697165
6595705466
6595713156
6595720480
6595729025
6595736105
6595744406
6595753927
6595760092
6595769491
6595777792
6595787374
6595793539
6595802450
6595808310
6595818258
6595826193
6595833883
6595842855
6595850912
6595857443
6595866354
6595874716
6595883749
6595893636
6595900289
6595909017
6595923605
6595932455
6595939718
6595948690
6595956747
6595964742
6595970907
6595979024
6595987997
6595994222
6596003316
6596009542
6596016561
6596025350
6596032369
6596039998
6596046956
6596056661
6596064351
6596072042
6596079000
6596086568
6596094197
6596101155
6596109395
6596117757
6596125508
6596132588
6596140157
6596148274
6596155843
6596163045
6596171224
6596177205
6596185628
6596191792
6596200887
6596209004
6596214925
6596223958
6596232869
6596240865
6596246419
6596255330
6596260640
6596269795
6596277852
6596284932
6596292195
6596301411
6596309895
6596318745
6596327351
6596336445
6596344014
6596351033
6596359211
6596368245
6596376118
6596383076
6596393269
6596402424
6596410786
6596417012
6596426960
6596435078
6596440876
6596450337
6596457478
6596464497
6596472798
6596480000
6596487934
6596494770
6596503498
6596510761
6596517475
6596525654
6596533405
6596541828
6596550617
6596559711
6596567402
6596575642
6596582111
6596591633
6596598224
6596607563
6596614094
6596623310
6596631000
6596640766
6596648456
6596654133
6596664631
6596670612
6596678974
6596689777
6596699115
6596705951
6596717060
6596724140
6596734577
6596741291
6596751178
6596756793
6596765766
6596772479
6596781574
6596787799
6596796710
6596802753
6596811786
6596818500
6596827594
6596834308
6596841205
6596849017
6596857989
6596863483
6596871356
6596879657
6596887836
6596894183
6596902057
6596910602
6596918231
6596925372
6596933307
6596941974
6596950518
6596957171
6596964923
6596971148
6596980243
6596988238
6596993121
6597001971
6597010882
6597017108
6597026202
6597032244
6597040240
6597049761
6597054583
6597063738
6597071429
6597078875
6597088397
6597095965
6597104449
6597112078
6597120257
6597126299
6597133196
6597142901
6597149248
6597159319
6597165972
6597173601
6597181902
6597189287
6597197039
6597203692
6597211565
6597218767
6597226030
6597232073
6597238909
6597244951
6597249651
6597257341
6597263140
6597269121
6597276567
6597283464
6597286577
6597296282
6597302996
6597309404
6597315874
6597323015
6597328691
6597335588
6597341265
6597348406
6597354448
6597361650
6597368425
6597373491
6597380144
6597386491
6597392839
6597399370
6597407854
6597414140
6597420427
6597427080
6597433733
6597440996
6597447832
6597454423
6597463457
6597470537
6597477312
6597484025
6597490373
6597494890
6597502336
6597508745
6597514299
6597520830
6597526262
6597532548
6597538225
6597545610
6597552140
6597557878
6597564409
6597570268
6597576005
6597580217
6597586747
6597593949
6597599870
6597606767
6597612565
6597618302
6597623796
6597630631
6597635270
6597642838
6597647599
6597653642
6597659318
6597665482
6597670854
6597676530
6597683366
6597690324
6597695878
6597703568
6597710526
6597717057
6597722062
6597730485
6597737138
6597742997
6597748185
6597755448
6597761735
6597768387
6597773514
6597779923
6597786637
6597794633
6597801652
6597806779
6597813736
6597819413
6597826676
6597834916
6597840714
6597846940
6597853836
6597859879
6597867569
6597875077
6597880753
6597887711
6597893936
6597900711
6597906937
6597913773
6597921707
6597926529
6597934220
6597940201
6597947342
6597953690
6597958450
6597966324
6597973953
6597980057
6597986099
6597992325
6597999527
6598006485
6598012589
6598024490
6598031570
6598039078
6598046219
6598052444
6598059647
6598065201
6598075088
6598081253
6598089859
6598097976
6598103897
6598109390
6598117447
6598124771
6598130874
6598136978
6598144668
6598152176
6598157180
6598164688
6598171280
6598179214
6598185684
6598191909
6598198623
6598204971
6598211746
6598218093
6598223953
6598232620
6598238967
6598245376
6598252761
6598258621
6598264114
6598272109
6598279067
6598286819
6598293350
6598299270
6598305923
6598313735
6598318618
6598325881
6598331557
6598343032
6598349380
6598355971
6598363174
6598370681
6598377212
6598382339
6598389968
6598394790
6598404189
6598410781
6598419631
6598426833
6598434951
6598443129
6598451064
6598458083
6598463454
6598471694
6598479445
6598486647
6598495131
6598502272
6598509535
6598518386
6598525283
6598533461
6598539687
6598547621
6598553053
6598561354
6598568129
6598576369
6598582472
6598590651
6598596388
6598604506
6598610548
6598618605
6598626418
6598632277
6598641066
6598649123
6598655287
6598664320
6598671278
6598680128
6598686415
6598693495
6598702040
6598710158
6598718763
6598728529
6598736036
6598749891
6598757582
6598765638
6598773085
6598779921
6598788588
6598796156
6598802442
6598809828
6598817884
6598823683
6598831983
6598838270
6598844740
6598853102
6598859510
6598866041
6598874159
6598880750
6598889417
6598895277
6598904737
6598929273
6598936475
6598944654
6598952161
6598959486
6598967420
6598975538
6598983838
6598993421
6599000379
6599007093
6599015027
6599022107
6599030042
6599038648
6599048291
6599053663
6599063306
6599069532
6599077161
6599085218
6599092969
6599101575
6599109387
6599116284
6599124219
6599131238
6599138928
6599147229
6599155103
6599162000
6599170545
6599179639
6599187207
6599193799
6599201611
6599209973
6599217664
6599223645
6599232190
6599238171
6599247205
6599255505
6599263318
6599269421
6599277600
6599285779
6599291516
6599300732
6599307873
6599314892
6599321911
6599330761
6599338269
6599345227
6599351391
6599361035
6599368481
6599375622
6599381909
6599391918
6599398449
6599406872
6599415783
6599424938
6599433666
6599441967
6599449841
6599458080
6599464733
6599473034
6599480602
6599488659
6599497448
6599505016
6599519299
6599527599
6599536327
6599544872
6599552013
6599567394
6599578625
6599586071
6599596935
6599607128
6599615429
6599624950
6599633495
6599641613
6599650036
6599659130
6599668468
6599676342
6599683055
6599689647
6599697155
6599704418
6599711315
6599718028
6599724986
6599731639
6599738048
6599745677
6599752635
6599758373
6599765819
6599772167
6599779369
6599785472
6599793651
6599799571
6599807689
6599813853
6599821544
6599827220
6599834788
6599842296
6599849498
6599854686
6599862865
6599869212
6599877452
6599885325
6599890880
6599898265
6599906444
6599914195
6599919871
6599928233
6599935679
6599942698
6599950511
6599957774
6599964976
6599971446
6599977000
6599984996
6599993235
6600000254
6600007212
6600015330
6600021739
6600030833
6600036997
6600046519
6600052378
6600060496
6600069895
6600078989
6600085215
6600094065
6600101023
6600107859
6600116404
6600123179
6600131113
6600138010
6600145518
6600153879
6600161204
6600167246
6600174265
6600182871
6600191599
6600197764
6600206736
6600212717
6600223276
6600229990
6600238169
6600246836
6600257517
6600263926
6600273752
6600279612
6600287973
6600295236
6600302805
6600310922
6600318186
6600325510
6600333139
6600338754
6600347299
6600352670
6600359567
6600368295
6600376779
6600382822
6600389169
6600398142
6600406015
6600412973
6600420175
6600429208
6600436105
6600442819
6600451303
6600458261
6600464670
6600474313
6600481454
6600488351
6600495065
6600505075
6600511361
6600518991
6600525888
6600535592
6600541635
6600549447
6600558236
6600565988
6600572763
6600580392
6600586618
6600595162
6600603524
6600611337
6600617440
6600626412
6600634347
6600642648
6600648812
6600655892
6600664742
6600670968
6600680367
6600686837
6600696359
6600703072
6600711983
6600718087
6600727120
6600733956
6600741097
6600751412
6600759164
6600767525
6600775033
6600783455
6600791878
6600798470
6600806893
6600813607
6600823494
6600829964
6600839425
6600848153
6600854195
6600863900
6600871834
6600879341
6600887398
6600897225
6600904671
6600912239
6600921211
6600928780
6600934761
6600945259
6600949593
6600960030
6600966621
6600976875
6600985848
6600991829
6600998116
6601007515
6601014412
6601026314
6601038765
6601047127
6601056831
6601065010
6601071846
6601080452
6601090889
6601097725
6601105781
6601112739
6601119270
6601127083
6601134040
6601143806
6601150886
6601159126
6601165840
6601175544
6601179695
6601190986
6601198310
6601205940
6601213630
6601221382
6601228584
6601236701
6601242622
6601250800
6601258857
6601265937
6601273933
6601282172
6601288276
6601297126
6601306953
6601315009
6601322150
6601329841
6601337714
6601345466
6601352851
6601360541
6601366889
6601376166
6601382636
6601391730
6601400580
6601409430
6601417487
6601425116
6601432380
6601440070
6601446051
6601455329
6601461432
6601470771
6601478705
6601484503
6601493293
6601501654
6601507941
6601515204
6601524726
6601531561
6601541083
6601546759
6601555182
6601564642
6601572150
6601580023
6601588324
6601595404
6601604193
6601610602
6601620184
6601626715
6601633978
6601643561
6601650091
6601659796
6601665167
6601675787
6601681524
6601692145
6601697821
6601706244
6601715887
6601722174
6601732672
6601741644
6601749762
6601757940
6601765142
6601773565
6601780096
6601788824
6601797918
6601805731
6601814520
6601823370
6601830084
6601837347
6601848089
6601853399
6601864446
6601874090
6601883062
6601892339
6601899236
6601909978
6601916021
6601924932
6601931036
6601940313
6601948369
6601956975
6601963323
6601970464
6601979497
6601985906
6601994817
6602001104
6602009893
6602016179
6602025274
6602030584
6602039617
6602046941
6602056157
6602063665
6602072515
6602079229
6602088140
6602094548
6602104314
6602110784
6602119878
6602125493
6602134465
6602141301
6602150456
6602157658
6602164494
6602172185
6602179143
6602186467
6602194768
6602201970
6602211491
6602218571
6602226323
6602233220
6602241032
6602248173
6602255986
6602264592
6602272648
6602280705
6602288823
6602296940
6602303166
6602311955
6602321843
6602328373
6602337468
6602344181
6602352909
6602360478
6602367131
6602375370
6602386784
6602394291
6602402592
6602410099
6602417240
6602425541
6602433720
6602441837
6602449894
6602458439
6602464909
6602473942
6602480534
6602487553
6602497196
6602503910
6602513737
6602521793
6602529423
6602535953
6602546635
6602554020
6602562504
6602566898
6602576847
6602583622
6602596805
6602601078
6602611332
6602617984
6602626773
6602632938
6602642276
6602648990
6602661258
6602670719
6602679325
6602688175
6602697086
6602704288
6602712650
6602719730
6602731815
6602737796
6602746280
6602752322
6602760196
6602765933
6602774661
6602780215
6602790286
6602796329
6602806094
6602813419
6602821109
6602830752
6602838504
6602845767
6602853457
6602862063
6602869754
6602876956
6602885867
6602892947
6602900699
6602906680
6602920230
6602927127
6602934390
6602941226
6602950747
6602959353
6602966311
6602974429
6602983767
6602989688
6602998477
6603006533
6603014712
6603022952
6603031680
6603041934
6603049380
6603057253
6603063601
6603072207
6603081179
6603089419
6603097720
6603107424
6603114199
6603122256
6603129214
6603137209
6603145449
6603154421
6603162478
6603170412
6603178652
6603185488
6603193422
6603201296
6603209780
6603220156
6603227602
6603236269
6603245668
6603251528
6603263552
6603270754
6603276735
6603284609
6603292787
6603301332
6603306886
6603317934
6603327150
6603336366
6603346742
6603356447
6603367067
6603377382
6603386110
6603394655
6603400514
6603412111
6603418947
6603429201
6603435426
6603446779
6603459169
6603465150
6603474916
6603481508
6603489625
6603498597
6603506227
6603515565
6603523256
6603530702
6603537721
6603545411
6603555970
6603562318
6603570924
6603576966
6603583985
6603592103
6603600282
6603608460
6603617249
6603622437
6603630677
6603638307
6603645509
6603653382
6603661622
6603670472
6603676575
6603684266
6603693604
6603699769
6603710816
6603718446
6603726258
6603734070
6603737855
6603749329
6603755005
6603765259
6603774476
6603780823
6603789856
6603798829
6603806092
6603812073
6603822388
6603828919
6603838318
6603845765
6603852478
6603861573
6603867737
6603877381
6603886536
6603892273
6603902588
6603909424
6603917542
6603923096
6603933594
6603942749
6603950562
6603959900
6603967041
6603973633
6603984619
6603993713
6604000061
6604007935
6604015686
6604023437
