4502128733
4502134165
4502139780
4502144785
4502150461
4502155100
4502161631
4502167246
4502173533
4502179880
4502185129
4502190134
4502194956
4502201120
4502206980
4502213449
4502219004
4502225534
4502230234
4502237192
4502243418
4502249765
4502255564
4502263559
4502271616
4502276804
4502286508
4502294626
4502300790
4502307443
4502315683
4502323190
4502331125
4502337717
4502345529
4502352243
4502359811
4502365610
4502380563
4502391611
4502401010
4502411142
4502421701
4502427499
4502434884
4502441598
4502447946
4502457406
4502463205
4502472726
4502480355
4502487252
4502495126
4502505258
4502510568
4502520272
4502528634
4502537240
4502542977
4502550485
4502558724
4502566903
4502575265
4502581674
4502587655
4502594491
4502602792
4502609872
4502617196
4502623299
4502631051
4502637032
4502645394
4502651925
4502661507
4502668465
4502676339
4502682809
4502691231
4502698800
4502706856
4502714608
4502723275
4502727486
4502738595
4502745797
4502753182
4502762032
4502770882
4502778695
4502784981
4502792122
4502800362
4502804573
4502816109
4502823799
4502831429
4502838387
4502844490
4502853035
4502859810
4502869454
4502876289
4502883797
4502891487
4502897713
4502905953
4502911568
4502920052
4502928719
4502936531
4502943672
4502949531
4502958565
4502966316
4502973884
4502981941
4502988228
4502999336
4503007942
4503015083
4503024971
4503031929
4503041023
4503051277
4503059456
4503068794
4503077583
4503085579
4503091926
4503101631
4503109748
4503117439
4503122138
4503132392
4503140815
4503148322
4503155586
4503163276
4503171272
4503178901
4503185920
4503194465
4503202644
4503210761
4503218574
4503226752
4503234321
4503240180
4503249457
4503255378
4503265021
4503273078
4503280891
4503287238
4503295051
4503300910
4503308906
4503317084
4503324531
4503333014
4503339972
4503346320
4503354316
4503362555
4503370124
4503376532
4503385321
4503391730
4503400519
4503406928
4503416205
4503422614
4503431525
4503438300
4503446967
4503454352
4503463141
4503467658
4503477423
4503485663
4503493414
4503501837
4503510260
4503518439
4503524298
4503532660
4503540228
4503547980
4503553900
4503563422
4503572027
4503579474
4503585455
4503594305
4503600348
4503608343
4503614386
4503624151
4503630865
4503641668
4503647162
4503655340
4503662664
4503669989
4503674200
4503683722
4503691656
4503698919
4503706365
4503713751
4503722723
4503728826
4503738592
4503744634
4503755193
4503760015
4503770879
4503779852
4503787786
4503796575
4503803045
4503811102
4503819036
4503826604
4503833990
4503841985
4503847539
4503856451
4503864629
4503871099
4503879095
4503886236
4503892034
4503901189
4503907659
4503916814
4503922918
4503932378
4503939946
4503946721
4503952703
4503961309
4503967351
4503977544
4503985662
4503993047
4504000432
4504006169
4504014653
4504021855
4504029790
4504037969
4504045781
4504051640
4504059514
4504066838
4504073918
4504081303
4504088567
4504095891
4504103886
4504109319
4504118108
4504124760
4504132329
4504139714
4504147832
4504156010
4504163457
4504170476
4504178044
4504186162
4504192814
4504200383
4504208684
4504216435
4504224064
4504231144
4504238591
4504245366
4504252751
4504260807
4504268559
4504275944
4504283451
4504289982
4504298405
4504305241
4504313603
4504323246
4504330937
4504337528
4504345524
4504352970
4504360722
4504366947
4504377995
4504384098
4504391544
4504400150
4504406803
4504415409
4504423527
4504430790
4504438053
4504447025
4504453007
4504457401
4504470341
4504478458
4504487247
4504498356
4504505802
4504513065
4504521915
4504529545
4504539005
4504546207
4504552311
4504559391
4504566593
4504573673
4504580020
4504586856
4504593753
4504600772
4504606449
4504612430
4504621585
4504628665
4504634769
4504641605
4504646854
4504654544
4504660953
4504667301
4504674259
4504680301
4504687503
4504692691
4504700320
4504704105
4504713565
4504721194
4504727664
4504733829
4504739566
4504747928
4504754642
4504760257
4504768374
4504773379
4504780826
4504786197
4504793033
4504799197
4504806460
4504812076
4504819888
4504824954
4504832644
4504838137
4504846072
4504853274
4504862124
4504869204
4504875735
4504882388
4504887027
4504894717
4504901858
4504907412
4504916201
4504920718
4504928652
4504932253
4504943301
4504950503
4504957217
4504964358
4504968936
4504975955
4504983523
4504990176
4504997073
4505003115
4505010683
4505017580
4505024905
4505029971
4505038332
4505045656
4505052981
4505062685
4505068972
4505078188
4505083315
4505093203
4505102175
4505107790
4505115664
4505123171
4505128115
4505138308
4505143984
4505153383
4505161074
4505168337
4505174013
4505181642
4505188723
4505194460
4505198488
4505210878
4505213686
4505224001
4505231691
4505237367
4505246340
4505255190
4505263490
4505271974
4505279665
4505284120
4505292848
4505297060
4505306398
4505313905
4505322267
4505329591
4505335023
4505342775
4505349916
4505357362
4505363038
4505371889
4505380189
4505387941
4505393739
4505401124
4505406679
4505415590
4505421388
4505429750
4505438600
4505445070
4505450685
4505459352
4505465455
4505473756
4505479127
4505487184
4505495790
4505503236
4505509339
4505517030
4505523072
4505530824
4505536744
4505543336
4505551331
4505558900
4505564881
4505571351
4505577332
4505585755
4505592286
4505601319
4505608155
4505617066
4505624940
4505632935
4505640076
4505645936
4505655152
4505661439
4505670838
4505679139
4505685670
4505691590
4505700135
4505708497
4505715149
4505724610
4505733277
4505740296
4505748169
4505755005
4505762757
4505771729
4505782532
4505787354
4505796509
4505804932
4505810852
4505815430
4505825440
4505833435
4505842163
4505850220
4505855713
4505864258
4505872376
4505878601
4505887146
4505895142
4505901428
4505911926
4505917236
4505927551
4505937012
4505943909
4505954468
4505961853
4505969971
4505975708
4505983581
4505989197
4505997375
4506002990
4506009033
4506017517
4506025757
4506031128
4506039062
4506046386
4506053405
4506059021
4506066467
4506074462
4506081787
4506087829
4506096313
4506101745
4506109497
4506115051
4506123168
4506131652
4506139770
4506146362
4506154540
4506161254
4506167053
4506174926
4506181762
4506189147
4506197814
4506205993
4506215392
4506221618
4506229430
4506234923
4506244384
4506253051
4506261046
4506267821
4506275512
4506281554
4506287536
4506296264
4506302184
4506310851
4506317931
4506325133
4506332335
4506341002
4506347472
4506355834
4506362548
4506368590
4506377501
4506384276
4506390685
4506396910
4506406981
4506415160
4506423094
4506428649
4506435912
4506443663
4506449095
4506456542
4506464842
4506472411
4506480833
4506487975
4506496092
4506503966
4506510985
4506519774
4506528929
4506537352
4506543455
4506552489
4506557493
4506567381
4506571531
4506583067
4506590941
4506596617
4506604735
4506612486
4506619078
4506626768
4506634459
4506640867
4506649351
4506658934
4506667723
4506675108
4506683409
4506692930
4506699888
4506707334
4506714964
4506722227
4506728391
4506735349
4506743223
4506749082
4506758054
4506764341
4506770933
4506779417
4506785703
4506792051
4506798277
4506807066
4506814268
4506822446
4506831419
4506836973
4506844968
4506852109
4506860166
4506867124
4506874631
4506882749
4506890500
4506899656
4506905881
4506914060
4506923398
4506930295
4506940061
4506946775
4506954099
4506960630
4506969052
4506975827
4506982907
4506991757
4506998349
4507004331
4507012326
4507021054
4507028317
4507034848
4507042233
4507051877
4507059384
4507067990
4507075009
4507081357
4507089841
4507095822
4507105038
4507111508
4507119443
4507127438
4507134885
4507142941
4507150326
4507157773
4507165097
4507174191
4507181454
4507189572
4507196347
4507204037
4507212277
4507218991
4507228146
4507234738
4507243344
4507252194
4507260250
4507266659
4507272702
4507280392
4507285641
4507297116
4507305538
4507312130
4507316891
4507327267
4507331967
4507341122
4507349301
4507358639
4507364498
4507373653
4507380245
4507388119
4507395016
4507403133
4507410397
4507418880
4507426571
4507435299
4507443539
4507451473
4507457210
4507465328
4507473751
4507482357
4507488827
4507496578
4507504451
4507510372
4507518734
4507526729
4507534847
4507543941
4507551082
4507559200
4507565303
4507573482
4507580135
4507588008
4507592647
4507603084
4507611080
4507617000
4507623836
4507632747
4507638179
4507648128
4507656184
4507665157
4507672847
4507679134
4507687251
4507695308
4507699886
4507707881
4507714412
4507724483
4507731135
4507738765
4507745479
4507754268
4507762080
4507768245
4507775203
4507783626
4507790400
4507800532
4507805659
4507817378
4507823481
4507833796
4507838618
4507850520
4507857295
4507865535
4507870417
4507880183
4507884761
4507894709
4507902827
4507912776
4507919734
4507927607
4507933222
4507942194
4507948176
4507955561
4507963313
4507971552
4507979609
4507986201
4507996272
4508005549
4508011835
4508018488
4508027460
4508034540
4508042841
4508050532
4508057673
4508064631
4508072931
4508079950
4508088129
4508094904
4508101008
4508109675
4508115839
4508124811
4508129023
4508139215
4508147272
4508155451
4508163385
4508169733
4508177851
4508186334
4508195124
4508202448
4508209467
4508218012
4508224726
4508231622
4508242548
4508251947
4508260065
4508267023
4508274774
4508282831
4508291986
4508299066
4508305597
4508315118
4508323968
4508330499
4508336420
4508345270
4508351190
4508360956
4508367059
4508374750
4508382928
4508389337
4508398065
4508405511
4508411920
4508419305
4508426995
4508437677
4508444513
4508453668
4508458856
4508468133
4508472772
4508482843
4508490594
4508500054
4508506341
4508514459
4508522149
4508529962
4508536797
4508545770
4508554376
4508563165
4508570733
4508577325
4508584283
4508592644
4508600335
4508607232
4508615533
4508622307
4508630669
4508637200
4508645684
4508652032
4508660210
4508666619
4508674431
4508683709
4508689873
4508698418
4508705681
4508712212
4508719902
4508727654
4508736626
4508745598
4508752678
4508759331
4508770256
4508778679
4508787651
4508795830
4508804436
4508812676
4508820671
4508828179
4508834404
4508842278
4508849480
4508857597
4508864433
4508873467
4508881218
4508889458
4508896233
4508904411
4508914238
4508923820
4508933159
4508940605
4508947136
4508953850
4508962639
4508967094
4508978508
4508986015
4508992058
4508999687
4509007744
4509012931
4509022697
4509027214
4509039665
4509044914
4509054374
4509058952
4509068717
4509074028
4509084037
4509092216
4509101249
4509107841
4509115959
4509124015
4509130119
4509137199
4509145622
4509150260
4509160514
4509168449
4509176200
4509180900
4509190787
4509195731
4509204520
4509211967
4509219474
4509228690
4509236625
4509244437
4509250419
4509259147
4509267631
4509275138
4509284354
4509293021
4509299552
4509306510
4509313102
4509322196
4509328849
4509337333
4509343924
4509353507
4509358329
4509368766
4509378043
4509383963
4509393973
4509400809
4509408682
4509416739
4509423941
4509431876
4509438895
4509446768
4509455191
4509461417
4509470206
4509478079
4509486136
4509492606
4509501395
4509507925
4509516470
4509522757
4509532034
4509540884
4509547842
4509556021
4509564261
4509571341
4509578299
4509587759
4509594351
4509601675
4509607779
4509616446
4509623892
4509631338
4509636099
4509646536
4509652517
4509662710
4509671133
4509679556
4509688528
4509696279
4509703176
4509709646
4509718130
4509724966
4509731802
4509736257
4509746572
4509754690
4509763296
4509771780
4509777822
4509782705
4509792898
4509798269
4509808584
4509816457
4509824148
4509830434
4509838247
4509843252
4509852529
4509860280
4509868764
4509874990
4509883352
4509891225
4509898977
4509902028
4509913015
4509917592
4509928518
4509937123
4509943288
4509951772
4509958181
4509963124
4509973500
4509978139
4509989003
4509994069
4510004262
4510008779
4510019582
4510025197
4510035939
4510040761
4510050832
4510060109
4510066090
4510073903
4510082082
4510086781
4510097707
4510102467
4510114430
4510122609
4510130360
4510136464
4510144276
4510152455
4510158619
4510163502
4510174489
4510183095
4510189198
4510197926
4510204335
4510212330
4510218495
4510226796
4510237782
4510244557
4510252674
4510259999
4510268116
4510276783
4510283131
4510294178
4510300953
4510308277
4510314930
4510322926
4510329517
4510337879
4510344471
4510354054
4510361500
4510367970
4510375355
4510384632
4510393421
4510399586
4510404407
4510416248
4510425465
4510431690
4510438953
4510445667
4510452747
4510460193
4510466724
4510477283
4510483021
4510493274
4510498218
4510507679
4510512500
4510520130
4510527393
4510538684
4510544544
4510552784
4510559436
4510567859
4510574451
4510582813
4510589710
4510596546
4510605762
4510613635
4510620349
4510628589
4510636218
4510645068
4510650928
4510661365
4510668628
4510676318
4510682483
4510690234
4510694934
4510704578
4510709521
4510720141
4510724841
4510734790
4510741321
4510748584
4510755054
4510762378
4510770862
4510779223
4510785754
4510793261
4510801013
4510806750
4510813708
4510820727
4510830004
4510838610
4510846301
4510852526
4510859423
4510865466
4510874987
4510881091
4510890917
4510898120
4510904162
4510910204
4510917712
4510923754
4510932909
4510937426
4510947375
4510952746
4510961840
4510969347
4510976794
4510983080
4510990221
4510999621
4511008837
4511015734
4511022143
4511029894
4511037951
4511048693
4511054613
4511065172
4511072863
4511080065
4511086962
4511092455
4511096666
4511106798
4511115160
4511121019
4511129137
4511137377
4511144640
4511150560
4511158373
4511166002
4511174608
4511179064
4511189073
4511193895
4511203478
4511211229
4511216844
4511224657
4511232958
4511241319
4511246812
4511254076
4511261339
4511268968
4511275072
4511279893
4511293809
4511301622
4511307909
4511316698
4511322313
4511329881
4511337327
4511346300
4511351976
4511360521
4511368272
4511375840
4511382371
4511391404
4511398301
4511405565
4511411790
4511420884
4511425706
4511435350
4511440599
4511451646
4511459703
4511468125
4511477342
4511483445
4511491380
4511497544
4511507249
4511512986
4511520799
4511528977
4511536668
4511543443
4511551011
4511556992
4511566331
4511572984
4511582566
4511591111
4511598618
4511605210
4511613450
4511620408
4511627732
4511634324
4511642747
4511650620
4511659714
4511667832
4511677598
4511683640
4511693772
4511698899
4511710007
4511718918
4511726609
4511733017
4511742112
4511749375
4511755844
4511767380
4511774521
4511782395
4511789475
4511797165
4511802658
4511810837
4511817551
4511826462
4511833542
4511842026
4511848007
4511854050
4511861984
4511868271
4511876022
4511882309
4511892807
4511897324
4511906662
4511913803
4511919479
4511928696
4511937424
4511944382
4511952804
4511958420
4511966354
4511972030
4511979477
4511990158
4511997604
4512006271
4512012558
4512020309
4512026962
4512032333
4512043197
4512049667
4512057235
4512063339
4512072189
4512078720
4512085800
4512091537
4512099960
4512108260
4512114974
4512121078
4512130782
4512135543
4512145126
4512150192
4512162948
4512172713
4512181930
4512188644
4512197555
4512205489
4512212508
4512220992
4512228622
4512236373
4512244308
4512251143
4512260543
4512266463
4512275985
4512285384
4512293136
4512300155
4512307723
4512313216
4512321028
4512329085
4512336104
4512342757
4512352034
4512359358
4512366683
4512374068
4512382186
4512389693
4512399092
4512407515
4512413741
4512423018
4512429427
4512439009
4512445845
4512455183
4512463667
4512471175
4512479109
4512484785
4512493452
4512498823
4512508894
4512516463
4512524763
4512530928
4512538069
4512544172
4512552961
4512562910
4512570845
4512576643
4512583845
4512591780
4512597578
4512605207
4512616011
4512626020
4512633894
4512641951
4512649580
4512657575
4512665754
4512673628
4512681257
4512688215
4512696028
4512703657
4512709089
4512717024
4512724409
4512730512
4512737959
4512746320
4512755109
4512761762
4512767805
4512775800
4512783735
4512792829
4512800947
4512808393
4512815351
4512822370
4512828779
4512836957
4512844831
4512852094
4512860517
4512867109
4512874433
4512884748
4512890302
4512900739
4512910138
4512919049
4512926984
4512932782
4512940473
4512948041
4512955854
4512961530
4512968244
4512976239
4512983624
4512989118
4512997174
4513005170
4513010907
4513016950
4513025983
4513034833
4513042157
4513048444
4513055829
4513061871
4513069257
4513075116
4513083722
4513096051
4513103741
4513110577
4513120038
4513124798
4513134869
4513139386
4513152752
4513160687
4513168744
4513175580
4513181866
4513190350
4513200543
4513207867
4513215557
4513220990
4513230084
4513236187
4513245526
4513252056
4513258648
4513267437
4513275067
4513281292
4513289654
4513296002
4513302838
4513310589
4513318157
4513326458
4513332989
4513339764
4513347027
4513352459
4513360516
4513365337
4513372662
4513377483
4513385113
4513391216
4513397259
4513403484
4513409649
4513418682
4513423748
4513429912
4513436626
4513442791
4513448040
4513454204
4513460613
4513465618
4513473125
4513479168
4513485210
4513491863
4513498882
4513504436
4513512004
4513517742
4513522319
4513528057
4513534709
4513541912
4513549480
4513555278
4513562175
4513567913
4513573589
4513579143
4513584087
4513591106
4513596599
4513602397
4513608318
4513614177
4513620403
4513624736
4513632243
4513638652
4513644389
4513650859
4513656169
4513661540
4513668010
4513673198
4513679240
4513684795
4513691142
4513696208
4513703166
4513707927
4513715373
4513720012
4513726176
4513732707
4513738688
4513744121
4513751567
4513758342
4513764750
4513770732
4513777079
4513784831
4513789531
4513797648
4513803019
4513810099
4513815409
4513822489
4513828471
4513834758
4513840861
4513848368
4513853007
4513860453
4513864665
4513872599
4513878886
4513884867
4513892741
4513899210
4513906168
4513911967
4513918986
4513925272
4513931620
4513939555
4513944621
4513950724
4513957926
4513964213
4513968302
4513978251
4513984293
4513990336
4513996928
4514002116
4514009623
4514014689
4514022135
4514029276
4514035685
4514042643
4514049296
4514055704
4514061319
4514069864
4514076883
4514081461
4514089701
4514094767
4514102030
4514108133
4514114420
4514120829
4514127054
4514134806
4514140360
4514147989
4514153543
4514162699
4514169473
4514174906
4514180948
4514187052
4514193033
4514199625
4514204569
4514210855
4514218485
4514223673
4514229776
4514236002
4514244363
4514250406
4514256631
4514261514
4514269632
4514276163
4514282266
4514287393
4514295511
4514302774
4514308633
4514316324
4514321817
4514329324
4514333047
4514344156
4514349832
4514355935
4514362466
4514368875
4514373819
4514380349
4514387674
4514395181
4514402017
4514408548
4514416055
4514422341
4514430276
4514437661
4514441934
4514449685
4514456643
4514463052
4514469949
4514476480
4514483376
4514489175
4514497231
4514504006
4514510903
4514518655
4514526284
4514535317
4514543557
4514550759
4514557595
4514565530
4514573037
4514579323
4514588113
4514595864
4514602517
4514608864
4514615761
4514621621
4514628457
4514636391
4514644570
4514650307
4514657937
4514664101
4514669045
4514679543
4514687478
4514697121
4514704689
4514710122
4514714272
4514723610
4514728371
4514738869
4514747170
4514755532
4514763222
4514770607
4514777565
4514785072
4514792763
4514797768
4514806801
4514812721
4514821083
4514828529
4514833412
4514842079
4514847084
4514855873
4514862343
4514871254
4514877479
4514885292
4514891395
4514900307
4514907265
4514916847
4514924232
4514931740
4514937416
4514947548
4514954750
4514964149
4514972511
4514979042
4514988990
4514995826
4515003456
4515010841
4515020301
4515027076
4515035926
4515044654
4515052406
4515058509
4515065956
4515071998
4515080482
4515088600
4515096839
4515103614
4515110572
4515118629
4515127052
4515131995
4515141761
4515147010
4515157142
4515165321
4515173438
4515178870
4515187598
4515194923
4515203162
4515207923
4515219825
4515225257
4515234717
4515242591
4515248816
4515256324
4515267127
4515273352
4515283851
4515290686
4515298499
4515306922
4515313086
4515322303
4515328589
4515336585
4515344702
4515352576
4515358557
4515366553
4515374304
4515382483
4515388403
4515396704
4515405371
4515412451
4515421423
4515428992
4515435522
4515444189
4515450781
4515459998
4515468115
4515476050
4515483496
4515491247
4515498083
4515505835
4515513769
4515522741
4515531347
4515537512
4515545324
4515553076
4515560827
4515566992
4515575659
4515584326
4515590979
4515599157
4515605871
4515613684
4515620764
4515629797
4515636083
4515646582
4515654760
4515660864
4515668920
4515676977
4515684057
4515691992
4515699804
4515709203
4515712927
4515725011
4515732214
4515740453
4515747655
4515755834
4515763769
4515772741
4515781225
4515787267
4515795080
4515803686
4515811315
4515817968
4515827184
4515833959
4515842687
4515851476
4515860082
4515868200
4515876806
4515883764
4515892797
4515901464
4515908239
4515916356
4515922887
4515931310
4515936559
4515948827
4515957921
4515966466
4515974462
4515981786
4515988316
4515995519
4516000951
4516008519
4516017735
4516023900
4516033177
4516037938
4516050816
4516053380
4516064000
4516072484
4516079869
4516086827
4516093907
4516102330
4516110020
4516118870
4516128575
4516137425
4516145237
4516152623
4516159214
4516165928
4516173741
4516180821
4516187779
4516195164
4516202488
4516207493
4516214451
4516219578
4516229100
4516234349
4516244175
4516251255
4516258335
4516265598
4516272862
4516277134
4516289951
4516297825
4516303501
4516311558
4516318821
4516326695
4516332127
4516341709
4516349216
4516357883
4516365696
4516372349
4516377720
4516386082
4516394016
4516402439
4516408298
4516416416
4516422580
4516433811
4516440525
4516451206
4516459812
4516468845
4516476291
4516485080
4516492282
4516501560
4516509067
4516515781
4516525486
4516533298
4516541904
4516548496
4516556491
4516563449
4516572116
4516578830
4516587985
4516594699
4516602512
4516609714
4516620334
4516625522
4516635226
4516643710
4516651340
4516659213
4516665195
4516672702
4516680575
4516688510
4516694552
4516699679
4516711276
4516718295
4516726718
4516733554
4516741305
4516745944
4516755710
4516764071
4516773593
4516781405
4516787326
4516792331
4516803378
4516808017
4516817965
4516822543
4516834506
4516842074
4516848117
4516855807
4516864352
4516872347
4516878573
4516886996
4516898531
4516904818
4516912875
4516920748
4516927157
4516934725
4516941012
4516947848
4516958468
4516963473
4516973666
4516979098
4516988192
4516995699
4517002352
4517008883
4517019442
4517024447
4517034151
4517042025
4517048616
4517055330
4517063021
4517069918
4517077852
4517085299
4517093782
4517102449
4517109468
4517116365
4517123995
4517129915
4517139559
4517149568
4517155367
4517163973
4517170870
4517177461
4517185213
4517191255
4517200166
4517207857
4517218233
4517225435
4517236238
4517241548
4517251497
4517259981
4517268587
4517273530
4517282320
4517287202
4517297700
4517302461
4517312898
4517322053
4517331025
4517339570
4517346345
4517355256
4517361848
4517369783
4517376558
4517387910
4517395723
4517404267
4517411409
4517419160
4517425813
4517434114
4517440827
4517452790
4517457795
4517467500
4517472321
4517481660
4517487214
4517497285
4517502473
4517513398
4517518891
4517527680
4517534577
4517543610
4517548615
4517557954
4517566071
4517573701
4517581818
4517587922
4517594758
4517603913
4517610688
4517617646
4517624177
4517635407
4517643219
4517650544
4517658234
4517664582
4517671723
4517680268
4517686982
4517697113
4517702240
4517711701
4517720429
4517728852
4517736908
4517744782
4517753449
4517760163
4517769867
4517776276
4517784882
4517790863
4517798248
4517806305
4517814056
4517823578
4517829132
4517837311
4517845550
4517851654
4517860565
4517868378
4517876922
4517886017
4517894562
4517900909
4517909820
4517915802
4517923736
4517929901
4517934417
4517946441
4517954376
4517962127
4517969207
4517975494
4517981292
4517993072
4518002166
4518008392
4518018829
4518027801
4518035491
4518042510
4518050445
4518057098
4518067718
4518074310
4518084258
4518089080
4518098357
4518105804
4518113494
4518122100
4518129485
4518137237
4518145721
4518150970
4518160064
4518167144
4518176299
4518181060
4518193450
4518198516
4518208831
4518213592
4518223540
4518229094
4518238677
4518245391
4518256316
4518261626
4518269805
4518276702
4518286101
4518293425
4518298980
4518307463
4518315215
4518322600
4518335356
4518340850
4518349455
4518356780
4518365325
4518373015
4518381377
4518389494
4518398161
4518404143
4518412566
4518419402
4518425261
4518436003
4518442229
4518451811
4518457793
4518466337
4518472990
4518481596
4518489836
4518499296
4518508696
4518515104
4518523527
4518530607
4518538420
4518544951
4518550993
4518560392
4518569181
4518575712
4518584074
4518590788
4518598783
4518605680
4518613493
4518621000
4518629240
4518636991
4518645048
4518651212
4518658781
4518664579
4518673063
4518677641
4518688932
4518696745
4518705167
4518713834
4518722013
4518728727
4518734708
4518741300
4518752103
4518762418
4518768644
4518776945
4518783719
4518792570
4518799589
4518808866
4518815641
4518825101
4518833890
4518840421
4518848783
4518855680
4518862394
4518872586
4518879728
4518888517
4518893460
4518903836
4518912137
4518919034
4518926175
4518937222
4518943082
4518952237
4518960477
4518968839
4518974393
4518983121
4518989529
4519001981
4519007169
4519017728
4519022794
4519032498
4519038052
4519046658
4519053677
4519064725
4519070645
4519079861
4519084561
4519094388
4519099454
4519107693
4519116177
4519126553
4519131741
4519140469
4519147061
4519155240
4519161587
4519169522
4519175991
4519186612
4519194424
4519200955
4519207241
4519214321
4519221035
4519229519
4519236172
4519245449
4519252896
4519263149
4519271633
4519277310
4519284145
4519292446
4519299648
4519309048
4519316860
4519325649
4519334438
4519340908
4519347927
4519355862
4519362514
4519372890
4519378200
4519388027
4519392788
4519402126
4519409755
4519418178
4519423732
4519434902
4519440395
4519449794
4519457363
4519465175
4519470119
4519479335
4519485927
4519495876
4519503994
4519512660
4519517543
4519526576
4519531581
4519541957
4519549037
4519558620
4519566737
4519575588
4519584010
4519592311
4519597987
4519605434
4519614955
4519623927
4519633327
4519641261
4519649867
4519656581
4519664760
4519671840
4519680873
4519688014
4519696376
4519704799
4519713038
4519721034
4519729091
4519737025
4519745997
4519753932
4519761805
4519769313
4519775660
4519783717
4519792811
4519800379
4519809291
4519817103
4519823756
4519833216
4519839259
4519848109
4519854151
4519862879
4519871607
4519880579
4519886988
4519896082
4519902247
4519909693
4519917689
4519925684
4519934168
4519940821
4519948511
4519956263
4519962305
4519970179
4519978235
4519982874
4519995325
4520001917
4520010340
4520017603
4520025538
4520032557
4520040613
4520047632
4520056849
4520064905
4520070826
4520078760
4520087061
4520092859
4520101038
4520109583
4520118372
4520125574
4520133325
4520139368
4520147852
4520153345
4520163904
4520172266
4520180811
4520188501
4520196252
4520202539
4520211755
4520219324
4520226953
4520235620
4520242517
4520250757
4520258691
4520267297
4520273706
4520281885
4520287866
4520297021
4520306299
4520314416
4520323449
4520330774
4520339929
4520347131
4520355432
4520363305
4520373193
4520382226
4520388452
4520396936
4520405603
4520411645
4520420556
4520427941
4520435021
4520444299
4520453454
4520460473
4520468163
4520479638
4520484765
4520496545
4520502160
4520514123
4520520837
4520529137
4520537804
4520546227
4520552819
4520562646
4520570336
4520578148
4520583764
4520591210
4520598961
4520608361
4520614647
4520625451
4520632042
4520638878
4520644555
4520651940
4520658593
4520666527
4520673485
4520681237
4520689232
4520695092
4520703148
4520708641
4520716332
4520724816
4520733177
4520739464
4520749657
4520755699
4520764183
4520769737
4520776695
4520784691
4520792015
4520798058
4520807396
4520814110
4520823997
4520831139
4520838890
4520845482
4520855736
4520861046
4520871300
4520876182
4520885582
4520891075
4520901939
4520906517
4520919517
4520925682
4520934715
4520940452
4520949974
4520956871
4520965293
4520973533
4520981834
4520990379
4520998680
4521004966
4521012718
4521020286
4521026267
4521034263
4521042442
4521051048
4521059226
4521065940
4521073875
4521076743
4521089805
4521099570
4521109031
4521116416
4521125816
4521133201
4521139487
4521148948
4521155234
4521164023
4521171287
4521179282
4521187583
4521193625
4521202231
4521210410
4521220054
4521228660
4521235679
4521244345
4521251792
4521258017
4521266928
4521273398
4521280844
4521289145
4521297507
4521303610
4521311972
4521318076
4521326987
4521336081
4521343344
4521351645
4521358725
4521366538
4521375205
4521381308
4521389670
4521397482
4521404135
4521412253
4521420676
4521426596
4521434408
4521442221
4521449240
4521457419
4521468100
4521474692
4521483298
4521491232
4521498373
4521506918
4521514303
4521520407
4521527365
4521535360
4521544210
4521550131
4521558310
4521565939
4521573202
4521581259
4521589804
4521596151
4521605734
4521611776
4521621176
4521627584
4521635885
4521642355
4521650900
4521659261
4521666952
4521674276
4521682211
4521688741
4521697286
4521706380
4521716207
4521723348
4521731344
4521738546
4521746786
4521753438
4521760580
4521769308
4521779012
4521786031
4521793905
4521800741
4521807699
4521816060
4521823446
4521829549
4521839193
4521845845
4521855184
4521862142
4521871663
4521879842
4521887349
4521892964
4521904195
4521912374
4521920247
4521928060
4521935872
4521942220
4521949971
4521958577
4521967061
4521974141
4521982076
4521989095
4521997823
4522005391
4522013081
4522024068
4522029317
4522039448
4522046956
4522053792
4522060506
4522067769
4522075032
4522085347
4522092366
4522100300
4522107380
4522116780
4522123433
4522131611
4522138325
4522146016
4522153523
4522162617
4522167439
4522177021
4522184468
4522191487
4522198017
4522207661
4522215840
4522223713
4522228352
4522238972
4522246784
4522254963
4522261555
4522269856
4522276508
4522284260
4522289936
4522298847
4522307209
4522313251
4522321857
4522330219
4522338703
4522346577
4522353840
4522359882
4522368549
4522374286
4522383503
4522392109
4522399128
4522407367
4522413105
4522420917
4522429035
4522435260
4522439716
4522451130
4522460224
4522466388
4522473224
4522481769
4522488605
4522496173
4522503131
4522514057
4522519306
4522529132
4522536151
4522543537
4522550067
4522558856
4522565936
4522574970
4522583087
4522590045
4522596881
4522603778
4522611285
4522623492
4522628680
4522639789
4522645709
4522656756
4522665973
4522672076
4522680377
4522686603
4522696856
4522702960
4522710345
4522716571
4522724688
4522728839
4522736468
4522743792
4522750323
4522756305
4522762530
4522768450
4522775347
4522781329
4522786517
4522795489
4522802142
4522808184
4522814166
4522819720
4522826678
4522831255
4522839190
4522845110
4522851519
4522856890
4522866229
4522872271
4522878985
4522886431
4522890093
4522898943
4522902483
4522911822
4522917803
4522924639
4522929827
4522936907
4522944842
4522950579
4522956133
4522964495
4522970843
4522979143
4522985613
4522992754
4522998858
4523004229
4523010820
4523016558
4523022478
4523028765
4523034441
4523039507
4523045305
4523050920
4523057146
4523063311
4523069475
4523076067
4523082353
4523089983
4523094744
4523101335
4523107378
4523112688
4523120622
4523125383
4523131792
4523139604
4523145342
4523151262
4523157182
4523164446
4523169634
4523175615
4523181596
4523187761
4523194536
4523200151
4523209428
4523215532
4523222734
4523230424
4523235918
4523243730
4523250383
4523256914
4523263383
4523270524
4523278886
4523285051
4523291032
4523297563
4523304155
4523310258
4523315324
4523324113
4523329911
4523336686
4523343461
4523351396
4523356950
4523363725
4523372331
4523378312
4523384538
4523390824
4523396867
4523404130
4523408952
4523417069
4523423173
4523429398
4523436784
4523441728
4523446916
4523454301
4523461015
4523469315
4523474686
4523480668
4523486527
4523492631
4523498795
4523505448
4523512650
4523519181
4523525101
4523530961
4523537125
4523544633
4523549637
4523558243
4523564835
4523570939
4523578202
4523584611
4523590470
4523595414
4523604020
4523608719
4523616532
4523623368
4523629105
4523636307
4523640946
4523648331
4523654435
4523662125
4523667435
4523673600
4523679276
4523688370
4523694901
4523701981
4523708878
4523716812
4523723038
4523728226
4523736710
4523742264
4523752396
4523756912
4523765701
4523772232
4523777237
4523784073
4523792252
4523801651
4523809830
4523816666
4523823501
4523831253
4523838211
4523844375
4523852981
4523859817
4523866348
4523872757
4523879776
4523884292
4523894729
4523902420
4523907852
4523916397
4523922012
4523930557
4523936172
4523943679
4523949905
4523958572
4523966384
4523972793
4523982192
4523988357
4523996658
4524003677
4524012344
4524018081
4524027603
4524035842
4524043411
4524050552
4524060928
4524065933
4524075942
4524085342
4524092361
4524097671
4524106033
4524113845
4524121108
4524123427
4524135573
4524142776
4524149856
4524155776
4524163711
4524170791
4524178359
4524185378
4524194167
4524201918
4524208510
4524215102
4524222487
4524229506
4524238967
4524244582
4524253493
4524260329
4524268019
4524276320
4524283034
4524288649
4524299269
4524307387
4524314650
4524321364
4524329176
4524336501
4524342604
4524352248
4524359450
4524367079
4524373915
4524378798
4524384657
4524394301
4524398573
4524411024
4524419813
4524427321
4524432570
4524441115
4524445204
4524454970
4524458937
4524468764
4524478712
4524486464
4524489454
4524501967
4524511976
4524518263
4524528700
4524536268
4524545607
4524552198
4524560194
4524566664
4524575575
4524579542
4524590467
4524597547
4524604627
4524613233
4524621717
4524629530
4524636183
4524645582
4524653883
4524660352
4524669325
4524677198
4524684827
4524692945
4524701246
4524709425
4524718580
4524724927
4524732862
4524739210
4524747510
4524755323
4524761365
4524769422
4524777051
4524784864
4524793104
4524799817
4524804761
4524814466
4524823682
4524831800
4524839856
4524845899
4524853894
4524861890
4524869641
4524877454
4524880445
4524891065
4524899976
4524905896
4524910474
4524921399
4524929212
4524935254
4524946179
4524954297
4524962354
4524968274
4524977490
4524983777
4524991528
4524999341
4525002698
4525013867
4525023511
4525030713
4525039624
4525046582
4525055432
4525060132
4525071728
4525076916
4525086926
4525091992
4525102673
4525107190
4525116345
4525120861
4525133435
4525139233
4525147717
4525152356
4525161999
4525169628
4525176159
4525183056
4525193188
4525198925
4525207897
4525215771
4525223644
4525228344
4525239147
4525245983
4525256298
4525263927
4525272228
4525280407
4525289623
4525296642
4525305553
4525313244
4525321117
4525329723
4525336437
4525344677
4525351513
4525359508
4525364513
4525376903
4525384533
4525392589
4525400524
4525408336
4525414501
4525422741
4525431469
4525439769
4525446178
4525454052
4525461925
4525468090
4525476207
4525484691
4525492198
4525500438
4525508373
4525514537
4525519664
4525530162
4525534801
4525544688
4525554637
4525562694
4525569652
4525577525
4525582164
4525591991
4525596629
4525607677
4525615733
4525623790
4525630076
4525638682
4525646495
4525654307
4525662608
4525668651
4525673289
4525684459
4525692332
4525700084
4525707896
4525714244
4525719493
4525729991
4525735179
4525746043
4525754771
4525761058
4525768504
4525777110
4525781932
4525791880
4525797312
4525809458
4525814585
4525824168
4525829112
4525838877
4525846507
4525853037
4525860178
4525871897
4525877329
4525887522
4525895090
4525902109
4525908701
4525915964
4525922556
4525931467
4525938547
4525946787
4525953562
4525962290
4525969736
4525976633
4525982920
4525992502
4526000193
4526009165
4526016733
4526027231
4526033640
4526042307
4526049570
4526059824
4526065500
4526074961
4526083872
4526090769
4526099314
4526107736
4526116953
4526125131
4526134042
4526140146
4526147470
4526156381
4526165048
4526171030
4526180490
4526186349
4526195932
4526202951
4526211557
4526218332
4526226755
4526234201
4526243722
4526251535
4526259714
4526267770
4526273935
4526282296
4526288217
4526296273
4526304574
4526307565
4526319162
4526326913
4526333322
4526341745
4526349374
4526359750
4526368539
4526371652
4526382638
4526389718
4526397775
4526404183
4526412606
4526420358
4526428597
4526436227
4526444650
4526453622
4526460030
4526467721
4526473885
4526482064
4526490182
4526497262
4526505929
4526514046
4526520455
4526529000
4526534920
4526540047
4526551400
4526559029
4526567391
4526573739
4526582222
4526589486
4526597603
4526604561
4526612801
4526621651
4526627938
4526632882
4526643074
4526650704
4526656868
4526666268
4526674507
4526681465
4526689278
4526694893
4526704292
4526710579
4526719612
4526724922
4526735359
4526740425
4526750008
4526754952
4526765816
4526770576
4526781624
4526787849
4526799751
4526807259
4526815742
4526821907
4526831001
4526839241
4526845344
4526854622
4526863106
4526871650
4526880073
4526888557
4526894661
4526902473
4526910286
4526913093
4526925911
4526930976
4526941047
4526948799
4526954902
4526959724
4526969978
4526975105
4526986518
4526995490
4527001533
4527009467
4527017463
4527022102
4527032111
4527037971
4527048591
4527054023
4527063850
4527071540
4527077521
4527084357
4527093513
4527103156
4527111579
4527117988
4527125739
4527133796
4527139899
4527147284
4527155219
4527160529
4527170234
4527178534
4527186347
4527191535
4527201361
4527209113
4527215216
4527223334
4527231574
4527237555
4527245734
4527250373
4527260504
4527265448
4527275946
4527280585
4527291144
4527296698
4527306891
4527311530
4527321539
4527329230
4527334784
4527343878
4527352545
4527357611
4527367255
4527379523
4527388739
4527396185
4527401800
4527413092
4527420294
4527428107
4527435492
4527442999
4527450567
4527455877
4527466864
4527474249
4527483160
4527488836
4527497747
4527504766
4527512213
4527521856
4527529303
4527538275
4527546698
4527554266
4527562139
4527569097
4527576910
4527586675
4527591924
4527601568
4527606451
4527616155
4527621343
4527631048
4527638128
4527649786
4527656866
4527664983
4527671575
4527680181
4527686651
4527693914
4527700689
4527711370
4527717229
4527726201
4527733343
4527741094
4527748052
4527755803
4527762456
4527773809
4527779302
4527788640
4527795537
4527802434
4527811284
4527817876
4527823857
4527834905
4527842900
4527848455
4527857610
4527864018
4527872502
4527879888
4527885930
4527894536
4527901860
4527911199
4527918706
4527926152
4527931157
4527940251
4527944951
4527957463
4527966679
4527975102
4527981572
4527989690
4527997868
4528006108
4528014714
4528020878
4528030278
4528036320
4528045231
4528051335
4528061223
4528067814
4528077336
4528084294
4528093571
4528100346
4528107426
4528114750
4528123844
4528130375
4528140629
4528146061
4528156193
4528160893
4528169926
4528177250
4528185307
4528192936
4528202274
4528210087
4528218021
4528224796
4528232548
4528239506
4528249149
4528254704
4528265995
4528273197
4528282413
4528287907
4528297489
4528304691
4528310490
4528317448
4528328312
4528335392
4528343265
4528350162
4528358646
4528365848
4528374637
4528379337
4528389042
4528396671
4528404422
4528409305
4528419681
4528424930
4528434207
4528443546
4528451969
4528458255
4528466434
4528474368
4528482364
4528486942
4528496524
4528501651
4528513919
4528520816
4528528568
4528533267
4528542484
4528549991
4528556522
4528563296
4528573917
4528579105
4528588504
4528596194
4528603091
4528610477
4528619632
4528626956
4528636233
4528644961
4528652835
4528660342
4528666507
4528674319
4528680728
4528687869
4528697268
4528702700
4528713504
4528718447
4528728640
4528733645
4528742984
4528751834
4528760440
4528767031
4528774966
4528782961
4528790957
4528796694
4528804873
4528814883
4528823367
4528830630
4528838931
4528845339
4528853274
4528858035
4528867800
4528872988
4528882754
4528891238
4528897585
4528905092
4528913332
4528918520
4528928652
4528933840
4528944277
4528949404
4528959475
4528967043
4528975527
4528980105
4528988710
4528995790
4529005007
4529010195
4529019472
4529026857
4529033937
4529042299
4529049745
4529057131
4529067690
4529072817
4529082643
4529092653
4529099123
4529107729
4529116213
4529126222
4529132631
4529142397
4529151430
4529158693
4529165529
4529174379
4529181703
4529191957
4529197633
4529207460
4529212648
4529222841
4529227907
4529237184
4529241701
4529253236
4529258302
4529267640
4529276429
4529284608
4529290406
4529298951
4529307130
4529316224
4529323793
4529330445
4529337892
4529346498
4529354493
4529362916
4529371034
4529378541
4529388123
4529393128
4529402894
4529410584
4529416383
4529424683
4529432923
4529440858
4529446778
4529455079
4529463197
4529470765
4529476868
4529481873
4529492982
4529501649
4529507630
4529515931
4529522156
4529529969
4529538209
4529543641
4529553772
4529562012
4529569947
4529576050
4529585205
4529589844
4529599244
4529604676
4529615418
4529620911
4529631348
4529637512
4529647034
4529654785
4529660828
4529666748
4529678528
4529685608
4529693970
4529701965
4529708069
4529716370
4529722717
4529727356
4529739014
4529747742
4529753967
4529761780
4529769958
4529774902
4529783020
4529790039
4529800659
4529805725
4529816284
4529823913
4529830566
4529837829
4529845642
4529852966
4529863891
4529872070
4529878540
4529885742
4529895141
4529900512
4529911071
4529916748
4529926879
4529931701
4529942565
4529948364
4529957275
4529963012
4529972717
4529981017
4529988647
4529995361
4530003845
4530011962
4530018615
4530026550
4530034972
4530043517
4530049682
4530057861
4530066466
4530073608
4530079650
4530087157
4530093322
4530103881
4530110412
4530118163
4530124877
4530134765
4530141173
4530148864
4530154845
4530163573
4530172118
4530179931
4530187133
4530195555
4530202697
4530210814
4530216979
4530226683
4530233397
4530242552
4530249327
4530257262
4530263671
4530270873
4530278746
4530288817
4530297179
4530303954
4530311949
4530319273
4530325377
4530333983
4530339232
4530351378
4530357115
4530368162
4530376402
4530384642
4530390074
4530397581
4530405272
4530415159
4530421263
4530430418
4530435850
4530445616
4530453062
4530460936
4530466307
4530476378
4530485533
4530492186
4530500669
4530508665
4530514891
4530522886
4530528135
4530538145
4530543272
4530553099
4530561521
4530567869
4530575132
4530581907
4530589475
4530597166
4530605222
4530614317
4530622251
4530628660
4530637754
4530646726
4530655942
4530662412
4530672300
4530679380
4530687559
4530696287
4530703672
4530711240
4530721433
4530730832
4530738645
4530745664
4530754270
4530761228
4530770017
4530779783
4530788083
4530791745
4530803159
4530807920
4530818601
4530823484
4530833310
4530839231
4530849973
4530855100
4530864316
4530872006
4530879453
4530886167
4530895383
4530900693
4530913022
4530919675
4530928159
4530936459
4530942807
4530951413
4530957577
4530965024
4530974179
4530982480
4530990353
4530995480
4531005673
4531012997
4531021176
4531025754
4531037106
4531045407
4531053524
4531058712
4531068051
4531075070
4531084042
4531093808
4531099606
4531107724
4531117184
4531126644
4531134640
4531144406
4531152157
4531160824
4531168575
4531176937
4531184322
4531191158
4531198177
4531205502
4531210812
4531224667
4531231380
4531239681
4531245968
4531255001
4531259762
4531268307
4531275753
4531284908
4531293758
4531299679
4531307308
4531315365
4531320431
4531329647
4531334835
4531345943
4531353267
4531361080
4531368282
4531376033
4531382259
4531390804
4531398311
4531407650
4531414852
4531423213
4531430416
4531438716
4531445735
4531454280
4531461299
4531471614
4531479366
4531485896
4531493770
4531501582
4531507869
4531516658
4531523128
4531535457
4531543025
4531550777
4531557429
4531564815
4531570796
4531578548
4531587703
4531596065
4531605037
4531612239
4531618953
4531628230
4531632991
4531642329
4531650081
4531658625
4531663386
4531672908
4531680415
4531688960
4531694209
4531702754
4531709895
4531719599
4531725581
4531735102
4531742610
4531750056
4531754939
4531763301
4531770381
4531781794
4531790034
4531796015
4531803095
4531812190
4531819025
4531826167
4531835444
4531843500
4531851557
4531857661
4531864863
4531872980
4531879511
4531887690
4531894892
4531903864
4531910761
4531918757
4531925409
4531933161
4531939814
4531947565
4531953669
4531963434
4531970820
4531977900
4531986322
4531993463
4531999628
4532009638
4532016413
4532025263
4532031427
4532042475
4532047907
4532054682
4532062189
4532069208
4532080683
4532086115
4532093134
4532101007
4532106317
4532111078
4532118402
4532121515
4532129816
4532135675
4532141473
4532148553
4532154535
4532160455
4532167291
4532174249
4532180841
4532186151
4532194391
4532199945
4532206231
4532214410
4532220086
4532226129
4532231622
4532238824
4532244928
4532250238
4532255792
4532263971
4532270074
4532276117
4532282952
4532287469
4532294427
4532301202
4532306939
4532312310
4532318719
4532324456
4532330133
4532335687
4532340997
4532347711
4532353082
4532358514
4532362969
4532369073
4532373345
4532380303
4532386834
4532393731
4532398736
4532403191
4532411614
4532417962
4532423028
4532430962
4532436700
4532441949
4532448418
4532454522
4532459405
4532465691
4532472466
4532477837
4532483941
4532487481
4532495659
4532500908
4532506524
4532513848
4532519097
4532525872
4532531792
4532538506
4532546319
4532551995
4532559441
4532566277
4532572503
4532579277
4532584221
4532591057
4532597405
4532603508
4532610100
4532616875
4532622795
4532629265
4532634758
4532640129
4532648979
4532655022
4532661308
4532668022
4532672600
4532679497
4532685295
4532693291
4532700493
4532708550
4532713676
4532720085
4532727043
4532734734
4532740837
4532746269
4532754143
4532760857
4532766899
4532773125
4532779106
4532786980
4532793571
4532799797
4532807426
4532813652
4532820488
4532825432
4532833488
4532839164
4532847770
4532851921
4532859611
4532865898
4532871940
4532880668
4532886100
4532891410
4532897880
4532904289
4532909904
4532916435
4532922477
4532930534
4532937248
4532943290
4532949150
4532955619
4532963798
4532968498
4532977043
4532982536
4532988639
4532994010
4533001701
4533008964
4533015250
4533021964
4533028251
4533036491
4533042472
4533049308
4533053275
4533062003
4533069816
4533074943
4533083243
4533088920
4533096976
4533103324
4533110038
4533117545
4533125663
4533132316
4533139335
4533145011
4533150504
4533158622
4533163321
4533172721
4533177237
4533186942
4533191947
4533198783
4533206412
4533213004
4533219657
4533227042
4533233756
4533241446
4533249259
4533254874
4533262686
4533270926
4533279410
4533286673
4533294425
4533301077
4533311575
4533316397
4533325430
4533334219
4533341849
4533349966
4533355704
4533363455
4533370840
4533378470
4533384634
4533395865
4533402823
4533410269
4533416983
4533425589
4533430044
4533438284
4533445120
4533454336
4533461966
4533467764
4533474051
4533482717
4533491018
4533498403
4533504324
4533514089
4533519277
4533529409
4533540518
4533546133
4533553396
4533559438
4533568899
4533577078
4533584036
4533591238
4533599294
4533605520
4533612173
4533619131
4533629079
4533633901
4533642446
4533649465
4533657278
4533662282
4533671682
4533676931
4533687673
4533695913
4533703664
4533709096
4533718923
4533723562
4533731862
4533739797
4533751088
4533757375
4533765310
4533771840
4533780263
4533786794
4533793813
4533801015
4533811391
4533818288
4533826039
4533832570
4533841664
4533848744
4533854787
4533864064
4533871877
4533879445
4533887319
4533893971
4533902516
4533909047
4533915395
4533921559
4533932362
4533940053
4533947987
4533953969
4533962025
4533967946
4533975453
4533983388
4533991688
4533999196
4534008656
4534015492
4534022572
4534029896
4534040211
4534048329
4534057118
4534065174
4534073902
4534079213
4534089222
4534094288
4534103993
4534109486
4534121022
4534126576
4534138233
4534146656
4534152638
4534160999
4534167164
4534176014
4534183827
4534191761
4534198597
4534208179
4534215015
4534223377
4534230701
4534239979
4534247913
4534255787
4534262318
4534270496
4534277454
4534286243
4534293934
4534303577
4534308704
4534318042
4534325855
4534332386
4534338978
4534347889
4534352893
4534363941
4534370960
4534380054
4534385303
4534395435
4534400257
4534409290
4534414539
4534424671
4534432849
4534439990
4534447315
4534455371
4534462207
4534470142
4534477100
4534487232
4534494495
4534501392
4534508655
4534517505
4534523975
4534532581
4534539661
4534551074
4534558215
4534566150
4534572681
4534580798
4534586841
4534596301
4534602282
4534613208
4534620593
4534629382
4534635913
4534643725
4534649524
4534659045
4534664904
4534675341
4534682727
4534690356
4534697253
4534704455
4534713305
4534720873
4534728015
4534736132
4534743395
4534751452
4534758044
4534765612
4534772875
4534780627
4534790148
4534798449
4534806261
4534813647
4534820177
4534829150
4534838366
4534847094
4534852709
4534863024
4534872729
4534881396
4534888293
4534896776
4534905321
4534911364
4534923449
4534929979
4534939257
4534946215
4534954577
4534961473
4534968737
4534976183
4534983934
4534990587
4535000048
4535005052
4535014818
4535024095
4535031114
4535040087
4535048265
4535056810
4535064562
4535071336
4535079515
4535086534
4535094652
4535101122
4535108934
4535116563
4535125108
4535133714
4535140367
4535149827
4535155931
4535165391
4535173814
4535182115
4535189012
4535198228
4535205064
4535212388
4535219652
4535227586
4535234666
4535242479
4535250901
4535256456
4535265062
4535272142
4535278062
4535289048
4535296678
4535304551
4535311143
4535319016
4535326219
4535334153
4535341966
4535350938
4535358018
4535366013
4535373277
4535381455
4535387498
4535395371
4535401353
4535412461
4535419663
4535427109
4535433091
4535441148
4535447434
4535455125
4535463242
4535473069
4535481553
4535489060
4535495713
4535503281
4535509751
4535517319
4535526597
4535534592
4535542344
4535551072
4535555771
4535565354
4535573899
4535580979
4535589096
4535601548
4535606919
4535616867
4535624680
4535631149
4535639816
4535646530
4535655747
4535664169
4535669724
4535679550
4535687607
4535693771
4535701889
4535709824
4535717941
4535723923
4535732834
4535742050
4535748581
4535757614
4535765121
4535772262
4535782760
4535789047
4535797043
4535805649
4535813400
4535821212
4535827194
4535836471
4535843124
4535851913
4535858932
4535866439
4535872909
4535880416
4535887496
4535902145
4535909225
4535917648
4535924484
4535931991
4535938033
4535946884
4535952987
4535961959
4535968429
4535976791
4535984542
4535990768
4535998885
4536006393
4536016402
4536025497
4536033370
4536042037
4536048446
4536058578
4536065536
4536075301
4536081038
4536091536
4536096786
4536113509
4536120711
4536128585
4536136580
4536144759
4536152449
4536161116
4536168624
4536178023
4536185530
4536192305
4536200728
4536208357
4536217696
4536223311
4536233382
4536238753
4536249617
4536254378
4536263167
4536270186
4536278487
4536285506
4536294417
4536299178
4536309065
4536316817
4536323225
4536330244
4536340315
4536346175
4536355940
4536362532
4536371077
4536379683
4536387678
4536396467
4536405928
4536413435
4536423079
4536431379
4536438215
4536444807
4536453108
4536460920
4536468855
4536475874
4536485273
4536490034
4536498945
4536506391
4536514936
4536521284
4536530805
4536538313
4536546247
4536555525
4536561872
4536568342
4536576521
4536585920
4536593671
4536600629
4536607893
4536613996
4536622663
4536631696
4536638166
4536644208
4536653486
4536662702
4536669416
4536675519
4536683393
4536691266
4536698835
4536707685
4536716230
4536724836
4536733014
4536739057
4536746076
4536753888
4536762128
4536771772
4536780072
4536787458
4536795453
4536802228
4536810163
4536816937
4536824689
4536830731
4536841657
4536847455
4536857465
4536864179
4536871503
4536878644
4536886090
4536892072
4536903302
4536911114
4536917645
4536923505
4536932172
4536938946
4536947797
4536953900
4536963360
4536972394
4536980267
4536986371
4536993878
4537000226
4537009076
4537015240
4537027020
4537034344
4537041790
4537048138
4537055584
4537062298
4537072918
4537078839
4537089886
4537096966
4537103375
4537111920
4537119000
4537124981
4537132855
4537139202
4537148785
4537156109
4537167706
4537174786
4537181500
4537190960
4537200298
4537208233
4537216900
4537225323
4537233929
4537241558
4537249431
4537256939
4537264812
4537271587
4537279400
4537288189
4537294231
4537301738
4537309673
4537316265
4537325603
4537335857
4537343059
4537352703
4537359356
4537367168
4537373455
4537382793
4537390178
4537397319
4537406291
4537413005
4537418804
4537428752
4537435222
4537442607
4537448955
4537461284
4537468608
4537476054
4537483257
4537491557
4537497783
4537505840
4537515727
4537524882
4537531840
4537538554
4537547710
4537554545
4537562907
4537570415
4537578532
4537586711
4537594096
4537600993
4537608073
4537617839
4537624247
4537632060
4537641154
4537647929
4537655680
4537665507
4537673747
4537681559
4537688700
4537698161
4537706706
4537713542
4537720866
4537727885
4537735758
4537742045
4537750224
4537756144
4537766703
4537774699
4537782877
4537789957
4537796061
4537804301
4537811320
4537819865
4537828287
4537836405
4537842509
4537850321
4537858378
4537864298
4537871317
4537879191
4537888529
4537894877
4537903666
4537910074
4537918375
4537924906
4537934977
4537943460
4537952311
4537961039
4537970682
4537977640
4537987162
4537994608
4538004007
4538011453
4538020426
4538027689
4538036966
4538041849
4538051370
4538056314
4538065042
4538072794
4538082681
4538091226
4538097879
4538122354
4538130838
4538138101
4538145669
4538155191
4538160806
4538169107
4538176065
4538182901
4538190469
4538196267
4538207498
4538214639
4538222635
4538229898
4538237649
4538244058
4538251382
4538258950
4538268472
4538276895
4538283914
4538291116
4538300271
4538304849
4538314492
4538322122
4538330544
4538339150
4538345742
4538352273
4538359719
4538366372
4538376748
4538384255
4538392007
4538399392
4538407143
4538413979
4538421792
4538429299
4538438515
4538443947
4538453591
4538460549
4538469704
4538477334
4538483376
4538490090
4538497597
4538505166
4538514382
4538522316
4538530251
4538538002
4538544106
4538551430
4538560829
4538566140
4538577126
4538582314
4538591896
4538598915
4538606423
4538613320
4538622170
4538629921
4538638100
4538645363
4538653053
4538659889
4538668861
4538676247
4538683754
4538691139
4538700661
4538708595
4538717018
4538725563
4538733986
4538739418
4538749489
4538754799
4538765602
4538771034
4538782020
4538790016
4538797767
4538805092
4538814918
4538823280
4538830421
4538837562
4538846168
4538852821
4538859230
4538868629
4538878150
4538887001
4538894508
4538902687
4538910255
4538918495
4538925941
4538934364
4538945472
4538953162
4538960120
4538967384
4538974159
4538983436
4538988258
4538997718
4539004981
4539014197
4539019324
4539029151
4539036719
4539043006
4539050941
4539058997
4539064368
4539076392
4539083960
4539090308
4539097876
4539105750
4539110572
4539119971
4539128028
4539135718
4539143286
4539151831
4539157996
4539165869
4539173743
4539180030
4539190955
4539197852
4539205603
4539213477
4539221655
4539229834
4539236182
4539244360
4539253699
4539259863
4539268897
4539275305
4539283240
4539289160
4539297034
4539304846
4539312292
4539321081
4539327856
4539335608
4539342200
4539349951
4539358252
4539367346
4539375036
4539383886
4539390173
4539398779
4539406347
4539412878
4539420385
4539427832
4539436254
4539443335
4539452429
4539458960
4539466284
4539475195
4539484228
4539492468
4539502111
4539510107
4539517980
4539526769
4539535558
4539540624
4539549902
4539555151
4539564245
4539572179
4539579198
4539586034
4539594640
4539602514
4539609167
4539616857
4539627416
4539632604
4539642126
4539647252
4539657628
4539666417
4539673131
4539680394
4539689977
4539698217
4539704503
4539711095
4539720494
4539725194
4539734044
4539743810
4539752416
4539760533
4539767369
4539775121
4539783544
4539788182
4539798253
4539806554
4539815404
4539821568
4539831517
4539837560
4539845921
4539853368
4539859105
4539867406
4539875829
4539881566
4539891209
4539899876
4539905919
4539914708
4539920872
4539931492
4539938023
4539946568
4539955296
4539961644
4539970311
4539977208
4539985264
4539993443
4540000035
4540009068
4540018589
4540025425
4540034092
4540040379
