7091326694
7091332371
7091338291
7091343418
7091347996
7091352329
7091357029
7091361484
7091366184
7091370578
7091374973
7091379795
7091384250
7091388889
7091394077
7091399143
7091403781
7091408054
7091412937
7091416904
7091421848
7091426364
7091430576
7091435276
7091441074
7091445652
7091450717
7091456333
7091461765
7091466220
7091472690
7091479892
7091485568
7091492771
7091498569
7091505771
7091515476
7091528354
7091536777
7091548618
7091554721
7091562350
7091569919
7091577914
7091584079
7091592136
7091601169
7091607211
7091613742
7091621676
7091628573
7091637485
7091644015
7091652621
7091660373
7091667575
7091677218
7091684481
7091691928
7091700900
7091711032
7091719699
7091730807
7091743380
7091754855
7091763217
7091771212
7091779452
7091788607
7091795138
7091805209
7091812472
7091818209
7091828158
7091834750
7091843783
7091851473
7091858553
7091867709
7091876131
7091882540
7091890841
7091899081
7091907503
7091914705
7091922701
7091930086
7091936678
7091943941
7091952730
7091959810
7091967501
7091974642
7091983004
7091989779
7091995577
7092004305
7092011324
7092020357
7092027620
7092034212
7092043001
7092049471
7092057161
7092065340
7092072603
7092079500
7092088777
7092094637
7092102815
7092108186
7092118257
7092124361
7092131014
7092140108
7092147127
7092157137
7092163728
7092173616
7092182405
7092189363
7092198030
7092207002
7092213167
7092221467
7092228364
7092236848
7092243928
7092253999
7092261201
7092267305
7092275850
7092282502
7092291108
7092297517
7092306123
7092315095
7092321443
7092331636
7092337922
7092346833
7092353425
7092363557
7092370698
7092379487
7092386750
7092393708
7092402314
7092413178
7092421845
7092431916
7092438996
7092446931
7092454926
7092462800
7092472016
7092479584
7092493622
7092500519
7092507783
7092517426
7092527131
7092533478
7092540741
7092550751
7092557160
7092565888
7092572358
7092579560
7092587983
7092595246
7092604401
7092611725
7092617524
7092627533
7092633271
7092642548
7092648895
7092655365
7092665741
7092673004
7092680756
7092687653
7092696320
7092703400
7092709686
7092718720
7092724884
7092733734
7092741730
7092748322
7092754547
7092763641
7092770599
7092779083
7092786346
7092794952
7092801178
7092809906
7092817352
7092822845
7092832306
7092838043
7092848480
7092856170
7092863372
7092871002
7092878204
7092884979
7092892364
7092900482
7092909149
7092915069
7092923797
7092929779
7092936798
7092944305
7092951202
7092963104
7092969268
7092979705
7092986419
7092994781
7093001922
7093009063
7093018279
7093026458
7093032684
7093042083
7093049224
7093057403
7093064544
7093072662
7093081939
7093091216
7093098846
7093106902
7093114104
7093124907
7093132415
7093141936
7093148284
7093155425
7093166655
7093176726
7093184356
7093194854
7093205107
7093218474
7093229521
7093237273
7093243682
7093250823
7093259307
7093265471
7093273284
7093280058
7093290129
7093297575
7093305449
7093312224
7093318755
7093325957
7093332793
7093339690
7093346465
7093355254
7093363249
7093370390
7093377409
7093384306
7093392241
7093398344
7093406889
7093414702
7093422941
7093429899
7093436613
7093444121
7093450834
7093457731
7093465300
7093473173
7093480803
7093487700
7093495024
7093501677
7093508940
7093516020
7093524015
7093531950
7093538847
7093546049
7093555876
7093565153
7093572660
7093581449
7093589872
7093598478
7093605497
7093615324
7093622953
7093629850
7093642545
7093649137
7093658414
7093665678
7093674345
7093683683
7093692716
7093701322
7093710355
7093717740
7093725675
7093734708
7093742093
7093747892
7093754178
7093761014
7093767423
7093775052
7093781095
7093790250
7093795804
7093802518
7093809720
7093815335
7093821134
7093827420
7093834867
7093841092
7093846890
7093854703
7093860379
7093868558
7093874722
7093881741
7093889249
7093895963
7093901151
7093908719
7093915433
7093923062
7093930203
7093936246
7093943082
7093948453
7093955289
7093961758
7093969083
7093974942
7093982144
7093987393
7093992947
7094000638
7094007779
7094013638
7094019436
7094026761
7094033047
7094040677
7094047635
7094055203
7094061917
7094068081
7094076138
7094083401
7094089444
7094097439
7094103604
7094109829
7094118679
7094125027
7094131375
7094137356
7094145413
7094152004
7094158291
7094165493
7094174893
7094182461
7094189480
7094196377
7094203701
7094208096
7094221218
7094227871
7094234585
7094241421
7094249355
7094256130
7094262722
7094271694
7094277920
7094284939
7094295437
7094302212
7094310390
7094315761
7094322658
7094330654
7094337368
7094343349
7094352199
7094358303
7094367092
7094373745
7094380519
7094388637
7094396572
7094406581
7094413723
7094422512
7094429470
7094436428
7094442043
7094449428
7094458705
7094465480
7094471217
7094481532
7094488246
7094495631
7094503200
7094510646
7094518337
7094527553
7094532130
7094540370
7094546352
7094554469
7094560878
7094566493
7094574611
7094580348
7094588649
7094594630
7094602809
7094610988
7094617030
7094626979
7094634120
7094641200
7094648707
7094655482
7094661830
7094668849
7094678492
7094684962
7094692958
7094700892
7094707545
7094713099
7094719935
7094726588
7094734584
7094743434
7094750453
7094757960
7094764979
7094773524
7094780360
7094789637
7094795863
7094804041
7094812159
7094818934
7094824488
7094832789
7094840845
7094848292
7094855067
7094862208
7094868922
7094875696
7094882654
7094889612
7094899500
7094906214
7094913172
7094919703
7094925989
7094934229
7094941065
7094948694
7094956507
7094963343
7094970484
7094978846
7094985620
7094992151
7094999048
7095005457
7095012415
7095017908
7095024744
7095032617
7095039392
7095046961
7095053674
7095060327
7095067102
7095075281
7095082666
7095089868
7095097986
7095105859
7095114099
7095121729
7095128809
7095135706
7095143762
7095151025
7095157312
7095164270
7095172143
7095179956
7095188196
7095195947
7095202539
7095211450
7095219812
7095226159
7095235498
7095243737
7095250512
7095258996
7095265771
7095272424
7095279504
7095290918
7095296167
7095302697
7095310571
7095317407
7095322778
7095330895
7095337670
7095344689
7095353600
7095360375
7095367578
7095374413
7095380822
7095387658
7095395959
7095403954
7095410790
7095417748
7095425256
7095432153
7095438683
7095445519
7095454308
7095461083
7095467919
7095474633
7095481103
7095489648
7095495141
7095504784
7095511681
7095520653
7095527550
7095532921
7095540001
7095546471
7095554406
7095561364
7095573021
7095579369
7095586266
7095593834
7095600670
7095606957
7095613976
7095623497
7095630455
7095637596
7095643822
7095650597
7095658531
7095665489
7095672447
7095680016
7095687584
7095696251
7095702293
7095710411
7095716759
7095724144
7095730797
7095740135
7095746422
7095753868
7095761131
7095768089
7095774986
7095781761
7095788597
7095797691
7095803551
7095812034
7095818138
7095825096
7095835350
7095843223
7095850792
7095859153
7095865989
7095874839
7095883079
7095889427
7095897239
7095909080
7095917381
7095925559
7095932762
7095939170
7095946678
7095954612
7095962486
7095971397
7095981590
7095988548
7095995384
7096001853
7096009544
7096016074
7096023399
7096032859
7096040061
7096047446
7096055991
7096062644
7096069541
7096075828
7096084556
7096095237
7096102561
7096110557
7096117698
7096124717
7096132224
7096141990
7096149924
7096157248
7096167502
7096175254
7096181235
7096188559
7096194602
7096202841
7096214743
7096223105
7096230368
7096237815
7096245383
7096253439
7096260581
7096268393
7096275839
7096283347
7096290976
7096300375
7096307883
7096315817
7096323813
7096331381
7096339377
7096346640
7096354147
7096362936
7096369223
7096377951
7096383627
7096393698
7096399740
7096408835
7096414755
7096423666
7096430807
7096438253
7096446493
7096454001
7096462423
7096470541
7096478903
7096485678
7096492758
7096499777
7096506674
7096514303
7096523397
7096530905
7096537008
7096545065
7096551718
7096560629
7096565756
7096573202
7096583700
7096591268
7096597616
7096607320
7096614828
7096622396
7096628255
7096636678
7096647359
7096655782
7096662740
7096672079
7096679403
7096687093
7096694600
7096702291
7096709432
7096719625
7096727193
7096734395
7096742391
7096749593
7096756978
7096766866
7096775045
7096782003
7096789510
7096795919
7096805318
7096813253
7096820943
7096830342
7096837667
7096843526
7096852132
7096860249
7096867635
7096874471
7096882588
7096889790
7096898885
7096905110
7096914204
7096920857
7096927876
7096935811
7096944905
7096952290
7096959859
7096966695
7096976643
7096984822
7096990803
7097001545
7097010029
7097018025
7097028401
7097036763
7097046223
7097054097
7097064289
7097071125
7097081135
7097088032
7097097615
7097101643
7097110798
7097120381
7097125935
7097135151
7097142903
7097151814
7097159321
7097166523
7097174152
7097181355
7097191975
7097198322
7097206928
7097213337
7097222858
7097230549
7097236347
7097245075
7097252521
7097261921
7097266743
7097275348
7097282856
7097290363
7097296894
7097304645
7097312580
7097323078
7097331501
7097339374
7097345783
7097353229
7097359150
7097367572
7097375629
7097383808
7097391620
7097399860
7097406513
7097414020
7097422443
7097430377
7097440875
7097446979
7097456867
7097465656
7097473651
7097481647
7097492145
7097500262
7097508441
7097518024
7097526202
7097534564
7097542010
7097548541
7097556659
7097566119
7097572284
7097579974
7097587359
7097593951
7097601397
7097610736
7097618182
7097626361
7097634417
7097640277
7097649249
7097655658
7097663165
7097671283
7097679278
7097685199
7097694293
7097703082
7097710040
7097718279
7097725237
7097732501
7097737811
7097748370
7097755084
7097762591
7097771563
7097779009
7097785235
7097792620
7097800494
7097810381
7097814715
7097824175
7097831438
7097840655
7097846636
7097852740
7097861101
7097869158
7097878618
7097885515
7097892656
7097900774
7097907671
7097914812
7097922258
7097930742
7097938005
7097945635
7097954485
7097961443
7097968584
7097975908
7097983293
7097992083
7098000017
7098008379
7098015276
7098021623
7098028459
7098035478
7098043413
7098052446
7098060503
7098069597
7098076372
7098083513
7098090776
7098096819
7098104265
7098114763
7098121843
7098128801
7098135759
7098143693
7098150896
7098158281
7098166521
7098175859
7098183732
7098192949
7098200212
7098208574
7098216813
7098222917
7098230851
7098240068
7098247819
7098256242
7098263139
7098270768
7098278337
7098285661
7098293473
7098304338
7098310685
7098319535
7098325761
7098334428
7098340592
7098347672
7098355668
7098363725
7098371964
7098379044
7098387650
7098394181
7098401017
7098409074
7098416703
7098424393
7098433610
7098440995
7098447098
7098454117
7098461686
7098469559
7098477494
7098485917
7098493058
7098501969
7098507950
7098515030
7098521988
7098530228
7098537674
7098547440
7098553727
7098562882
7098570145
7098577591
7098584976
7098592423
7098601090
7098608658
7098616471
7098623734
7098631485
7098641129
7098649185
7098655777
7098664566
7098670792
7098677933
7098684769
7098693619
7098700577
7098707962
7098715652
7098722671
7098731827
7098738785
7098746170
7098753372
7098761795
7098768448
7098776565
7098782974
7098792557
7098800979
7098810684
7098818496
7098825332
7098833389
7098840103
7098848037
7098858474
7098865982
7098872024
7098878555
7098885757
7098893325
7098901321
7098909133
7098915847
7098922988
7098930190
7098937209
7098945937
7098952529
7098961929
7098969314
7098977004
7098986343
7098992385
7098999465
7099007827
7099015090
7099024551
7099031448
7099038161
7099046157
7099052566
7099061049
7099068007
7099075820
7099084670
7099092971
7099100295
7099107985
7099116042
7099124221
7099129836
7099139602
7099147658
7099155043
7099161330
7099168471
7099175063
7099182692
7099189955
7099198195
7099205763
7099211623
7099219618
7099226637
7099232863
7099239760
7099247756
7099259657
7099267531
7099275099
7099282912
7099289626
7099299208
7099304823
7099313429
7099322646
7099330214
7099337721
7099344679
7099352247
7099359572
7099367567
7099376417
7099383558
7099390883
7099397658
7099404799
7099414869
7099421095
7099431837
7099438917
7099446241
7099469618
7099477308
7099483961
7099492567
7099502516
7099509413
7099518141
7099526319
7099534071
7099541029
7099548536
7099557020
7099564649
7099572767
7099580152
7099587171
7099596510
7099603956
7099611463
7099619154
7099626661
7099633253
7099641614
7099649122
7099656080
7099663770
7099671277
7099678663
7099689588
7099697461
7099704908
7099713270
7099719678
7099729078
7099738111
7099745862
7099754163
7099761914
7099768384
7099777967
7099785169
7099792310
7099800489
7099809888
7099817212
7099823071
7099830884
7099837964
7099848157
7099854749
7099864880
7099872083
7099879895
7099886670
7099894727
7099900891
7099910046
7099916455
7099925061
7099931958
7099940076
7099946789
7099955823
7099961804
7099968945
7099976880
7099987317
7099996167
7100001172
7100007824
7100015820
7100024975
7100029797
7100037182
7100047375
7100054943
7100059704
7100069409
7100074536
7100083447
7100089245
7100096630
7100107617
7100114636
7100120739
7100129223
7100134777
7100143871
7100149792
7100157482
7100165356
7100172985
7100180676
7100187389
7100195995
7100202587
7100210949
7100218639
7100225109
7100232433
7100240368
7100247204
7100256359
7100263134
7100272777
7100280590
7100289135
7100297863
7100305370
7100312450
7100320507
7100327953
7100335582
7100343273
7100351574
7100359386
7100367504
7100375621
7100383800
7100391185
7100398876
7100407909
7100415599
7100422679
7100430126
7100438365
7100444103
7100452403
7100460704
7100468150
7100476024
7100484386
7100492442
7100500499
7100508433
7100515880
7100524486
7100535167
7100541942
7100549449
7100556163
7100563487
7100570445
7100578807
7100584056
7100594249
7100601512
7100608043
7100616649
7100623057
7100629649
7100636119
7100646006
7100654185
7100661021
7100666941
7100674632
7100681712
7100688975
7100696787
7100704234
7100714610
7100722117
7100727854
7100737376
7100745127
7100751963
7100756846
7100766550
7100775706
7100782847
7100789866
7100797312
7100804148
7100814219
7100822947
7100828074
7100840342
7100847727
7100852793
7100862559
7100869639
7100876169
7100883921
7100891306
7100897410
7100905588
7100914499
7100922068
7100929819
7100936777
7100944284
7100951975
7100959177
7100968332
7100975351
7100982187
7100989389
7100996469
7101003549
7101012888
7101020517
7101027841
7101035654
7101042856
7101050424
7101057260
7101065073
7101072763
7101081918
7101091318
7101096078
7101104745
7101111520
7101118478
7101125619
7101133554
7101141916
7101149057
7101158151
7101166086
7101173471
7101181588
7101186410
7101197336
7101205392
7101212472
7101219552
7101226999
7101234506
7101242257
7101252084
7101260812
7101268624
7101277902
7101286325
7101293283
7101300729
7101309213
7101314950
7101323922
7101331246
7101338143
7101347970
7101355233
7101364083
7101370309
7101377755
7101385690
7101395943
7101400826
7101409432
7101416085
7101425790
7101432686
7101440560
7101448495
7101458565
7101465828
7101472848
7101479500
7101488228
7101495186
7101502572
7101511666
7101519173
7101526070
7101535225
7101540230
7101547982
7101556954
7101564339
7101571236
7101581490
7101587532
7101596749
7101603768
7101610726
7101618172
7101625923
7101634285
7101641731
7101649544
7101658699
7101666145
7101672249
7101679390
7101687325
7101698311
7101704536
7101712044
7101719429
7101726814
7101734566
7101741463
7101749519
7101757026
7101762825
7101770149
7101777778
7101785408
7101794685
7101801399
7101809761
7101816536
7101824043
7101831672
7101838691
7101845588
7101853340
7101861152
7101869697
7101878852
7101885993
7101891609
7101900215
7101907417
7101914192
7101922553
7101932197
7101938850
7101947151
7101956245
7101964607
7101974494
7101983222
7101990607
7101999641
7102007941
7102015510
7102023322
7102031013
7102039374
7102047187
7102056464
7102063483
7102070319
7102078132
7102087714
7102092536
7102100592
7102112006
7102118842
7102126593
7102132941
7102140448
7102148993
7102156806
7102163947
7102171698
7102178656
7102185797
7102192511
7102200629
7102207831
7102214911
7102222724
7102231390
7102241889
7102246771
7102255438
7102262274
7102269659
7102276678
7102284552
7102294440
7102300970
7102308478
7102315497
7102323309
7102330694
7102338690
7102346319
7102354864
7102362189
7102369940
7102379095
7102387396
7102394293
7102400885
7102408148
7102417120
7102424383
7102433111
7102439825
7102446356
7102453680
7102461065
7102471197
7102479071
7102487188
7102492010
7102501104
7102507879
7102514776
7102522894
7102530889
7102539129
7102546209
7102554388
7102561773
7102568914
7102575689
7102583196
7102591009
7102600774
7102607732
7102614080
7102621648
7102626897
7102635076
7102641546
7102647893
7102653509
7102659612
7102665288
7102671575
7102677617
7102685125
7102690801
7102697454
7102703435
7102710515
7102717534
7102723455
7102731023
7102737188
7102743901
7102751287
7102758611
7102763677
7102770513
7102775823
7102782476
7102790593
7102796391
7102801763
7102806828
7102813848
7102818852
7102824284
7102832707
7102838262
7102845647
7102850163
7102857671
7102863042
7102868474
7102875005
7102880132
7102885381
7102891423
7102896367
7102902714
7102907658
7102914555
7102921757
7102926091
7102931889
7102937993
7102943364
7102948369
7102954167
7102961064
7102967534
7102973027
7102977971
7102984013
7102990605
7102997502
7103002507
7103009221
7103014470
7103020878
7103026249
7103031498
7103039494
7103044743
7103051213
7103056828
7103063298
7103068852
7103076420
7103083439
7103088810
7103095158
7103100529
7103107548
7103114323
7103121098
7103127812
7103134098
7103140507
7103147831
7103153935
7103161625
7103166203
7103173771
7103181828
7103188480
7103194401
7103201969
7103208256
7103217594
7103224003
7103229679
7103236210
7103242435
7103250370
7103257511
7103263798
7103272037
7103280277
7103286197
7103292667
7103300235
7103308353
7103314762
7103320438
7103327274
7103334964
7103340763
7103346805
7103353458
7103361270
7103366519
7103374637
7103380680
7103387027
7103393924
7103399600
7103408267
7103413699
7103420169
7103426944
7103433109
7103441226
7103447452
7103454776
7103460208
7103468387
7103475101
7103480838
7103485843
7103493350
7103498355
7103506473
7103513797
7103519351
7103525638
7103531985
7103537784
7103545596
7103552249
7103560306
7103566958
7103573367
7103580081
7103586062
7103595096
7103600589
7103608645
7103614260
7103621341
7103627261
7103633548
7103640017
7103646975
7103653933
7103659121
7103666629
7103673098
7103678958
7103684329
7103691470
7103698977
7103703616
7103710696
7103717043
7103723330
7103731570
7103739687
7103744692
7103751345
7103758181
7103763308
7103771243
7103778994
7103785952
7103792727
7103800906
7103808108
7103814455
7103822085
7103829714
7103836001
7103843264
7103850710
7103857729
7103865969
7103870913
7103881167
7103888369
7103895754
7103902956
7103908510
7103916201
7103922976
7103931215
7103938478
7103944155
7103951601
7103958925
7103965578
7103972963
7103979738
7103987490
7103993288
7104000917
7104006899
7104014101
7104020387
7104027895
7104034059
7104042848
7104049440
7104056276
7104064088
7104070741
7104077699
7104086000
7104093812
7104099977
7104106813
7104113100
7104120363
7104128602
7104134340
7104143800
7104150819
7104158021
7104166261
7104175172
7104182740
7104191163
7104199403
7104207765
7104215150
7104222352
7104231324
7104237733
7104246095
7104252320
7104263246
7104271607
7104279664
7104287721
7104295960
7104303285
7104312135
7104320863
7104329469
7104336854
7104343263
7104351624
7104358582
7104368104
7104374146
7104381470
7104391968
7104399781
7104405579
7104414796
7104420045
7104429810
7104438172
7104445740
7104453126
7104462159
7104467225
7104476563
7104481690
7104489319
7104499390
7104506775
7104515686
7104522644
7104530274
7104537781
7104545716
7104552307
7104560547
7104568665
7104577637
7104585999
7104595154
7104602539
7104609558
7104619202
7104626099
7104632446
7104641296
7104648560
7104656677
7104665833
7104672241
7104679260
7104687256
7104694824
7104701904
7104710022
7104718201
7104725036
7104732483
7104741638
7104747680
7104755554
7104764892
7104772461
7104779541
7104786316
7104794860
7104801941
7104809265
7104817260
7104825988
7104833435
7104841552
7104848327
7104855773
7104863098
7104872436
7104880248
7104887573
7104896850
7104904785
7104910949
7104917358
7104927306
7104935485
7104942992
7104952697
7104959716
7104967956
7104974425
7104982177
7104990844
7104999023
7105008483
7105016295
7105023009
7105030761
7105038634
7105045958
7105052794
7105060546
7105068664
7105076415
7105083251
7105090697
7105097838
7105105040
7105111144
7105118895
7105126220
7105136229
7105143981
7105151549
7105158141
7105166197
7105173277
7105181090
7105189452
7105197997
7105206481
7105212279
7105219847
7105227965
7105236327
7105241942
7105251646
7105259642
7105269102
7105276671
7105284117
7105290831
7105298826
7105306456
7105314818
7105322142
7105330321
7105337401
7105347410
7105353575
7105361937
7105370482
7105380796
7105387449
7105395201
7105402647
7105409544
7105417662
7105424559
7105431639
7105440672
7105448667
7105454893
7105461973
7105468809
7105475950
7105483579
7105492063
7105499326
7105507444
7105516477
7105523985
7105530149
7105537412
7105544737
7105554319
7105561033
7105568357
7105576475
7105584104
7105591489
7105597532
7105606504
7105614316
7105621335
7105628538
7105635496
7105643796
7105650998
7105658384
7105667356
7105675412
7105685361
7105693052
7105699949
7105707456
7105717221
7105725095
7105731443
7105740659
7105747556
7105754941
7105762876
7105771909
7105778806
7105786313
7105793210
7105802487
7105809873
7105817868
7105824460
7105833127
7105838803
7105848264
7105854611
7105862851
7105871518
7105878476
7105886288
7105893490
7105900876
7105908932
7105918393
7105926144
7105933713
7105940671
7105949154
7105955746
7105963009
7105969906
7105978878
7105985165
7105994015
7106000058
7106009091
7106015011
7106022702
7106030270
7106040036
7106047177
7106051937
7106061276
7106068844
7106075009
7106084591
7106092281
7106100338
7106110531
7106115902
7106123531
7106132137
7106138973
7106148556
7106158810
7106165829
7106173763
7106180965
7106188717
7106196102
7106202633
7106209408
7106217159
7106226864
7106233700
7106240658
7106248165
7106257381
7106265011
7106271724
7106281490
7106289486
7106297908
7106306575
7106314571
7106324581
7106332637
7106339534
7106347225
7106354854
7106360408
7106367366
7106373653
7106381160
7106387874
7106395015
7106401729
7106408809
7106414913
7106423579
7106433345
7106438716
7106446040
7106456050
7106463069
7106469295
7106477718
7106484553
7106491267
7106498164
7106505183
7106512691
7106520991
7106529048
7106537227
7106544673
7106552119
7106560115
7106567866
7106575312
7106583796
7106590693
7106598750
7106606013
7106614497
7106623713
7106632136
7106639277
7106645564
7106654414
7106661494
7106668757
7106676264
7106683711
7106691218
7106700984
7106708491
7106715510
7106722407
7106729548
7106737849
7106746210
7106755122
7106762324
7106769648
7106778254
7106785700
7106792902
7106800043
7106808161
7106815973
7106823054
7106831537
7106838679
7106848017
7106858393
7106866327
7106874567
7106882990
7106891291
7106899469
7106906977
7106914972
7106921991
7106929438
7106936701
7106944513
7106950800
7106958307
7106965265
7106974787
7106979486
7106988642
7106998834
7107006708
7107014154
7107021784
7107030206
7107035761
7107042719
7107052911
7107058588
7107069879
7107076227
7107084039
7107093561
7107101190
7107107843
7107115411
7107121820
7107131647
7107136041
7107145196
7107151117
7107160699
7107166497
7107174676
7107182733
7107192682
7107197015
7107210321
7107214349
7107224176
7107232415
7107238275
7107247247
7107254693
7107261956
7107271111
7107276605
7107285882
7107291985
7107301385
7107310357
7107316522
7107323602
7107330743
7107338616
7107345940
7107352959
7107362359
7107369683
7107377679
7107385186
7107392083
7107399590
7107406487
7107415520
7107423577
7107433648
7107438164
7107445977
7107452263
7107462212
7107468743
7107476494
7107485344
7107493035
7107501213
7107508110
7107514031
7107523125
7107531914
7107539055
7107546990
7107555107
7107562615
7107570122
7107577568
7107586723
7107594597
7107603874
7107611137
7107618462
7107626335
7107636711
7107644951
7107652702
7107661552
7107670647
7107678093
7107684929
7107692436
7107699638
7107706352
7107716972
7107723625
7107733635
7107741569
7107748832
7107758415
7107767570
7107775932
7107784660
7107792350
7107800102
7107807548
7107814445
7107822074
7107829093
7107836784
7107846244
7107854057
7107860038
7107867973
7107874626
7107881584
7107890312
7107897636
7107905875
7107912467
7107918998
7107928031
7107935355
7107940055
7107948478
7107956229
7107965202
7107973991
7107981376
7107988517
7107997733
7108005729
7108016166
7108022208
7108031974
7108039481
7108048209
7108055594
7108063590
7108072074
7108080252
7108090262
7108096854
7108103141
7108110465
7108117606
7108123954
7108133841
7108142386
7108149771
7108157706
7108164908
7108170950
7108180228
7108187613
7108194998
7108201956
7108210135
7108216666
7108224417
7108232352
7108242056
7108249625
7108257742
7108267630
7108275320
7108282461
7108289480
7108297293
7108304129
7108312124
7108320181
7108329336
7108336477
7108344168
7108351431
7108360037
7108368338
7108373831
7108384451
7108393606
7108401236
7108409353
7108417044
7108424429
7108431509
7108439138
7108446707
7108453237
7108463064
7108468252
7108477529
7108484243
7108491689
7108498647
7108507192
7108517141
7108524282
7108531728
7108538747
7108544546
7108552358
7108559866
7108567617
7108577383
7108585134
7108592092
7108599599
7108606069
7108613881
7108621450
7108631765
7108640554
7108647939
7108655385
7108662587
7108669729
7108678212
7108684926
7108692556
7108701772
7108708974
7108716970
7108723806
7108731252
7108738271
7108745839
7108753896
7108761830
7108769032
7108776845
7108783742
7108790456
7108800038
7108804860
7108814748
7108824696
7108831837
7108839528
7108846791
7108854237
7108860951
7108868886
7108876637
7108884877
7108894765
7108902272
7108908314
7108917286
7108926381
7108934132
7108943898
7108951344
7108959218
7108969410
7108976918
7108984242
7108993214
7109002735
7109011036
7109019764
7109028370
7109034840
7109042469
7109051136
7109058949
7109067066
7109074452
7109082325
7109090626
7109098499
7109105457
7109113209
7109124378
7109133289
7109141102
7109148670
7109155079
7109161976
7109171986
7109179920
7109186817
7109196400
7109202747
7109210987
7109220264
7109227894
7109234852
7109243213
7109251880
7109260852
7109266101
7109276111
7109282947
7109289844
7109296314
7109304126
7109313709
7109321094
7109328968
7109335987
7109343067
7109350208
7109358081
7109365528
7109374866
7109382190
7109389636
7109398425
7109405261
7109412708
7109420398
7109428455
7109435718
7109445239
7109452319
7109459094
7109466235
7109473010
7109479663
7109488330
7109497851
7109505176
7109513171
7109520190
7109527331
7109534045
7109541919
7109549304
7109559008
7109566638
7109573657
7109580493
7109588061
7109595080
7109603015
7109610400
7109617846
7109627307
7109633166
7109642810
7109649829
7109656420
7109663745
7109672778
7109681078
7109690783
7109698901
7109705920
7109713305
7109720934
7109728747
7109739306
7109747851
7109755541
7109763598
7109771899
7109779101
7109786669
7109794665
7109803454
7109810717
7109818590
7109825670
7109833422
7109840990
7109848925
7109857409
7109867968
7109874804
7109881517
7109888720
7109899401
7109906420
7109914904
7109922899
7109930773
7109939257
7109947191
7109955492
7109964220
7109970201
7109980150
7109988023
7109994859
7110003771
7110010118
7110017748
7110024583
7110032396
7110039598
7110048326
7110056627
7110064806
7110072435
7110079637
7110086412
7110094530
7110105211
7110113511
7110121385
7110128282
7110135972
7110143297
7110152269
7110159715
7110167283
7110175401
7110183152
7110189805
7110198167
7110206102
7110213304
7110220689
7110230332
7110236924
7110242784
7110252061
7110259568
7110266526
7110274583
7110284654
7110292527
7110299302
7110306931
7110315171
7110322617
7110329331
7110336777
7110346360
7110354111
7110362778
7110371384
7110379624
7110387803
7110397080
7110405076
7110412705
7110419907
7110428147
7110434861
7110440720
7110449326
7110459763
7110469834
7110477219
7110487107
7110494980
7110500901
7110508469
7110515366
7110523789
7110533432
7110541306
7110549668
7110557541
7110564133
7110571518
7110579086
7110589401
7110595871
7110605392
7110613083
7110620285
7110627914
7110635056
7110642502
7110650497
7110658859
7110666427
7110676864
7110684189
7110692795
7110700485
7110708236
7110716964
7110727279
7110733688
7110743210
7110750534
7110757309
7110764511
7110772140
7110780075
7110787826
7110797164
7110804183
7110811630
7110819198
7110826705
7110837142
7110844589
7110851486
7110859298
7110866805
7110875289
7110883712
7110891525
7110900924
7110908920
7110914718
7110924422
7110931869
7110937606
7110945968
7110953841
7110961532
7110970443
7110977218
7110986373
7110992843
7111000472
7111009078
7111016768
7111025557
7111032943
7111040572
7111047469
7111055098
7111064498
7111072066
7111080306
7111088607
7111096602
7111104109
7111110945
7111118575
7111125472
7111133467
7111142012
7111150130
7111159285
7111166487
7111173445
7111180953
7111188033
7111196089
7111205000
7111212813
7111218367
7111227461
7111233137
7111240767
7111248946
7111256941
7111264082
7111272505
7111279707
7111287214
7111293989
7111301497
7111308699
7111316816
7111324507
7111335798
7111343000
7111350203
7111357527
7111366316
7111373030
7111381330
7111389692
7111399092
7111405805
7111415327
7111421247
7111431623
7111439802
7111449018
7111456831
7111464887
7111475385
7111482649
7111490766
7111498518
7111506452
7111517622
7111524458
7111531721
7111538923
7111548505
7111555158
7111562726
7111569623
7111577375
7111583845
7111590803
7111599531
7111607160
7111613447
7111622297
7111629743
7111637006
7111647199
7111654645
7111663617
7111671674
7111677838
7111688337
7111697248
7111704572
7111711774
7111719586
7111725690
7111734967
7111741742
7111747296
7111756146
7111764325
7111772199
7111780194
7111786298
7111794354
7111802899
7111811444
7111819623
7111827801
7111834882
7111844342
7111851117
7111858197
7111866131
7111873578
7111881146
7111888409
7111897320
7111904217
7111911541
7111918255
7111924847
7111933758
7111940350
7111946698
7111952862
7111958599
7111966656
7111970868
7111976849
7111984356
7111990216
7111996258
7112003826
7112009381
7112017132
7112023052
7112030499
7112037518
7112043621
7112050701
7112056500
7112062237
7112069195
7112076214
7112083111
7112089092
7112094280
7112101604
7112108135
7112115459
7112122234
7112127850
7112135418
7112141216
7112148418
7112154461
7112162029
7112168926
7112175091
7112179973
7112186260
7112191997
7112197674
7112204571
7112210003
7112215679
7112221416
7112227153
7112233745
7112238872
7112247295
7112251812
7112259746
7112264629
7112271526
7112276653
7112283733
7112289165
7112295391
7112301677
7112307720
7112314189
7112320171
7112327434
7112333537
7112339580
7112345989
7112351787
7112356609
7112362163
7112367473
7112375224
7112380046
7112386821
7112391887
7112397990
7112405742
7112412822
7112418132
7112425334
7112431010
7112437541
7112442851
7112449748
7112456828
7112463359
7112469340
7112475261
7112482585
7112487956
7112494365
7112503703
7112509379
7112516337
7112522380
7112528483
7112534770
7112540812
7112548869
7112555705
7112561503
7112568888
7112574260
7112582438
7112588237
7112595195
7112602519
7112607890
7112615031
7112621623
7112626994
7112634928
7112642436
7112650370
7112655558
7112661295
7112670695
7112676493
7112682902
7112690836
7112697611
7112702982
7112710856
7112715861
7112723490
7112728983
7112737833
7112744181
7112750346
7112757609
7112763041
7112770243
7112776774
7112782816
7112789408
7112796915
7112802591
7112809122
7112814798
7112821268
7112827982
7112835856
7112841410
7112850687
7112857096
7112862833
7112868631
7112877665
7112883280
7112891275
7112896891
7112904276
7112910135
7112916727
7112922464
7112929910
7112936075
7112941019
7112948648
7112953836
7112960611
7112966226
7112972574
7112980814
7112986734
7112992777
7112999551
7113005350
7113011758
7113018350
7113025369
7113031656
7113037637
7113044351
7113051492
7113057535
7113063394
7113072488
7113078592
7113085122
7113091043
7113098062
7113104287
7113113382
7113119729
7113126443
7113133279
7113139871
7113146341
7113152871
7113160318
7113167398
7113173135
7113181069
7113188333
7113195413
7113203408
7113209817
7113215859
7113223428
7113231973
7113238748
7113246316
7113252786
7113260598
7113266641
7113274636
7113281838
7113288735
7113299294
7113306924
7113314797
7113324563
7113333657
7113340981
7113347878
7113356423
7113363564
7113373269
7113381875
7113390236
7113397378
7113405922
7113413125
7113421120
7113427285
7113433754
7113440895
7113447853
7113455239
7113466652
7113473305
7113480324
7113486733
7113492531
7113499367
7113507851
7113517006
7113523720
7113530922
7113539894
7113546547
7113553017
7113562111
7113571388
7113578957
7113587379
7113595619
7113602699
7113612282
7113619484
7113628273
7113637123
7113646522
7113653969
7113660744
7113668190
7113674843
7113682655
7113689430
7113698768
7113707313
7113714699
7113722816
7113730446
7113737587
7113745582
7113753883
7113762062
7113770607
7113777870
7113784462
7113791542
7113798133
7113807777
7113814979
7113822547
7113828895
7113838111
7113844093
7113851783
7113858863
7113866981
7113877601
7113884742
7113891761
7113900428
7113905921
7113914771
7113921973
7113929603
7113939185
7113946754
7113954261
7113960914
7113969398
7113976233
7113984229
7113992347
7114000098
7114010535
7114018103
7114025489
7114033667
7114042456
7114050330
7114060584
7114068213
7114076514
7114085974
7114093787
7114100684
7114106604
7114114417
7114123389
7114132544
7114140051
7114148474
7114156226
7114165747
7114173560
7114181860
7114189368
7114196082
7114205176
7114212500
7114219336
7114225867
7114233130
7114241492
7114248694
7114258276
7114264502
7114273840
7114280249
7114287817
7114295630
7114303198
7114309240
7114319738
7114328589
7114336340
7114344702
7114352575
7114361120
7114368627
7114377172
7114384680
7114392492
7114399267
7114408239
7114416113
7114425329
7114432653
7114440466
7114447119
7114453344
7114462866
7114469152
7114477148
7114485937
7114493200
7114500402
7114509313
7114516393
7114523351
7114531835
7114539709
7114548131
7114555150
7114562292
7114569250
7114575353
7114583654
7114592809
7114600805
7114608373
7114618871
7114625402
7114632360
7114641820
7114649694
7114657262
7114664708
7114674413
7114680699
7114688207
7114694860
7114703893
7114710485
7114720799
7114729466
7114736485
7114744420
7114751439
7114757970
7114766759
7114773106
7114780370
7114787938
7114798802
7114807286
7114815160
7114822850
7114832432
7114838475
7114850133
7114858311
7114866246
7114875340
7114880223
7114887425
7114895360
7114902989
7114911534
7114918797
7114925511
7114934300
7114941746
7114948948
7114956211
7114963780
7114975315
7114982395
7114989048
7114996006
7115004002
7115011021
7115018345
7115025852
7115036045
7115045200
7115052830
7115058994
7115067051
7115075230
7115082676
7115092136
7115100498
7115108372
7115116550
7115122898
7115131077
7115139133
7115146824
7115156711
7115164951
7115172458
7115180149
7115188511
7115195957
7115203953
7115211826
7115219700
7115228122
7115235996
7115244785
7115250949
7115259616
7115265354
7115273716
7115283237
7115290500
7115298068
7115304904
7115312534
7115319614
7115326938
7115336398
7115344211
7115351962
7115359348
7115366733
7115374667
7115380832
7115387607
7115397800
7115405917
7115414584
7115421908
7115429416
7115436862
7115443454
7115451327
7115459201
7115468600
7115476596
7115483310
7115490634
7115498019
7115505099
7115512484
7115523227
7115531466
7115539401
7115545932
7115553378
7115561312
7115572970
7115581454
7115589938
7115597872
7115607699
7115615573
7115622714
7115632906
7115641268
7115649569
7115657320
7115664706
7115673006
7115680392
7115687655
7115695528
7115703402
7115711275
7115722811
7115732577
7115737643
7115746737
7115752718
7115760775
7115768953
7115777376
7115783358
7115792818
7115799227
7115806978
7115813631
7115828035
7115834993
7115843294
7115851595
7115860506
7115867281
7115872591
7115882112
7115892000
7115900179
7115907686
7115915437
7115923189
7115930818
7115938631
7115946260
7115953767
7115961580
7115970247
7115975862
7115983980
7115991914
7115998506
7116006074
7116015840
7116023897
7116032075
7116040315
7116050020
7116057344
7116064668
7116072420
7116082368
7116090425
7116098848
7116105867
7116113374
7116120881
7116129182
7116137605
7116146028
7116156282
7116164521
7116171784
7116180390
7116188569
7116196626
7116204011
7116213166
7116220490
7116227448
7116234651
7116244111
7116251618
7116259858
7116268464
7116276398
7116284943
7116294709
7116302888
7116310517
7116319306
7116327363
7116336213
7116343293
7116352204
7116359772
7116367402
7116373810
7116384919
7116392304
7116399933
7116408234
7116417267
7116424775
7116431855
7116439606
7116446747
7116454132
7116462372
7116471039
7116479035
7116486359
7116496430
7116504303
7116511444
7116520783
7116527863
7116542145
7116549652
7116557159
7116562714
7116571259
7116580902
7116589325
7116596649
7116603729
7116610809
7116619293
7116626800
7116633880
7116641144
7116648712
7116657501
7116663543
7116672760
7116681549
7116686310
7116696624
7116705414
7116713714
7116721161
7116728729
7116736297
7116745086
7116752655
7116761261
7116769195
7116775848
7116784027
7116791534
7116798980
7116807525
7116815704
7116824981
7116833038
7116839385
7116846893
7116853545
7116860748
7116870208
7116878570
7116885772
7116893401
7116900298
7116909392
7116915618
7116922454
7116933135
7116941131
7116949798
7116957854
7116964812
7116972564
7116982512
7116990447
7116998259
7117005095
7117013030
7117021636
7117026702
7117036223
7117043731
7117051360
7117058257
7117065520
7117073027
7117081877
7117088103
7117095915
7117105559
7117115386
7117123686
7117131865
7117141814
7117148894
7117159148
7117165434
7117172758
7117181242
7117187956
7117196684
7117203093
7117213103
7117221220
7117228850
7117237761
7117245634
7117253691
7117261137
7117268644
7117276152
7117284941
7117293242
7117301481
7117308500
7117316069
7117322905
7117328886
7117338346
7117344633
7117352690
7117362394
7117369535
7117377470
7117384123
7117391813
7117400846
7117406339
7117416593
7117424650
7117431913
7117439665
7117446684
7117454618
7117461698
7117469389
7117477262
7117485685
7117493314
7117501432
7117510404
7117517057
7117523954
7117533414
7117540861
7117548612
7117553312
7117565091
7117572660
7117577482
7117586332
7117593717
7117601224
7117608976
7117617521
7117625577
7117632779
7117640958
7117648465
7117656949
7117668790
7117676175
7117684293
7117691129
7117697598
7117705350
7117713101
7117721097
7117729215
7117737088
7117746121
7117753323
7117760892
7117768033
7117774014
7117782193
7117792203
7117799832
7117807339
7117814480
7117822293
7117829312
7117836331
7117846463
7117854825
7117862393
7117871304
7117879056
7117887112
7117894192
7117901638
7117912686
7117920254
7117930386
7117938382
7117945462
7117952847
7117961514
7117969082
7117977627
7117987087
7117991787
7117998501
7118006313
7118015591
7118023464
7118029934
7118038357
7118046902
7118054470
7118061489
7118068935
7118077297
7118086025
7118095241
7118102077
7118109402
7118116665
7118124111
7118130825
7118140529
7118147121
7118156643
7118164272
7118171901
7118179409
7118186550
7118196865
7118202175
7118214321
7118222866
7118230983
7118238491
7118246852
7118257045
7118266445
7118274806
7118283779
7118292201
7118301723
7118309718
7118316188
7118326076
7118334804
7118342494
7118350124
7118358119
7118364711
7118372401
7118380702
7118387294
7118394923
7118402614
7118409450
7118417018
7118424403
7118432521
7118439113
7118445949
7118454555
7118462306
7118469142
7118476039
7118482386
7118489772
7118497706
7118508876
7118516810
7118524318
7118531520
7118539759
7118548854
7118556117
7118562709
7118571864
7118579310
7118585902
7118593714
7118602809
7118611292
7118620265
7118628382
7118636744
7118647364
7118654078
7118664027
7118672388
7118679407
7118687220
7118694178
7118704981
7118713709
7118722010
7118731470
7118740381
7118749537
7118756434
7118763575
7118772303
7118779871
7118786707
7118794458
7118801966
7118809473
7118817102
7118824976
7118831751
7118840235
7118847193
7118852503
7118862574
7118870142
7118877832
7118885401
7118892420
7118900415
7118908167
7118914636
7118925012
7118931543
7118941248
7118947656
7118954675
7118962427
7118969507
7118977869
7118985437
7118993860
7119001794
7119011377
7119017724
7119025354
7119032373
7119039941
7119050561
7119058069
7119065210
7119072778
7119080896
7119089196
7119097558
7119107507
7119115930
7119123132
7119130090
7119137353
7119145288
7119152246
7119160119
7119167993
7119177331
7119184655
7119190637
7119200219
7119206994
7119215234
7119223412
7119232934
7119240746
7119247887
7119254845
7119263634
7119270592
7119277489
7119284386
7119291772
7119299767
7119308861
7119315392
7119322716
7119329796
7119340111
7119345666
7119353600
7119364831
7119372643
7119380639
7119388695
7119396752
7119403222
7119414269
7119423485
7119430504
7119438195
7119445275
7119453026
7119460106
7119468529
7119476830
7119487755
7119495751
7119503197
7119507286
7119516564
7119524803
7119532250
7119539574
7119547203
7119554283
7119561790
7119570946
7119579124
7119586693
7119594444
7119602867
7119610008
7119616539
7119623924
7119630943
7119640220
7119649315
7119657127
7119663414
7119670738
7119678978
7119688133
7119695701
7119702049
7119710533
7119717125
7119725242
7119734153
7119741661
7119749839
7119757347
7119765159
7119773094
7119779624
7119788902
7119795127
7119803550
7119811485
7119818687
7119827049
7119835166
7119841697
7119850791
7119856406
7119865073
7119871360
7119878623
7119886558
7119895469
7119903403
7119912681
7119920188
7119927390
7119934409
7119943198
7119950217
7119956138
7119964744
7119973838
7119981345
7119988120
7119995871
7120003440
7120011557
7120019492
7120026999
7120034934
7120042197
7120050742
7120057700
7120064658
7120070395
7120079001
7120088645
7120096274
7120103598
7120111472
7120117880
7120126242
7120135092
7120144125
7120152304
7120159506
7120168356
7120178305
7120185995
7120195029
7120200705
7120212424
7120220419
7120227804
7120235495
7120241598
7120249228
7120256674
7120264914
7120275717
7120282980
7120290426
7120298239
7120304342
7120312094
7120321676
7120330404
7120337973
7120345053
7120352682
7120361349
7120368002
7120374899
7120382223
7120391866
7120398824
7120406820
7120416342
7120424703
7120432943
7120442220
7120450338
7120458212
7120467672
7120474020
7120482687
7120489156
7120496969
7120504842
7120512655
7120520650
7120527852
7120535970
7120545675
7120550435
7120560506
7120568013
7120576741
7120584981
7120593526
7120601094
7120607503
7120616780
7120624166
7120632466
7120640950
7120648275
7120656819
7120664266
7120672078
7120679036
7120686788
7120694844
7120703877
7120711080
7120716573
7120725301
7120733235
7120740498
7120747945
7120755879
7120764180
7120771626
7120779500
7120788289
7120795979
7120803181
7120810872
7120818257
7120826863
7120834736
7120842732
7120849934
7120857258
7120863789
7120871479
7120879475
7120890706
7120898762
7120907490
7120916096
7120926350
7120935017
7120943562
7120950764
7120958393
7120966999
7120973957
7120982380
7120989399
7120998005
7121006733
7121014790
7121023518
7121031208
7121038227
7121047627
7121054096
7121062153
7121070393
7121077595
7121083271
7121092548
7121099262
7121106891
7121114216
7121122577
7121130329
7121138386
7121146564
7121153522
7121159931
7121167560
7121174152
7121184589
7121191486
7121201435
7121206256
7121215717
7121221637
7121230670
7121237873
7121245868
7121252826
7121260761
7121267536
7121274249
7121280048
7121287738
7121292377
7121300311
7121306293
7121311359
7121317584
7121322833
7121331378
7121336444
7121342426
7121349689
7121355670
7121360980
7121367816
7121374225
7121379291
7121384967
7121393207
7121399249
7121405963
7121412066
7121418658
7121424029
7121430804
7121440753
7121446185
7121452350
7121458636
7121463519
7121470233
7121477496
7121482867
7121489764
7121494647
7121500811
7121505999
7121512225
7121518939
7121525653
7121532122
7121536944
7121542864
7121547991
7121554583
7121559954
7121567340
7121574175
7121579730
7121587054
7121594073
7121599871
7121605120
7121611651
7121617510
7121624224
7121629107
7121634966
7121640215
7121645464
7121653887
7121659563
7121665240
7121670794
7121674578
7121682757
7121688006
7121694475
7121700457
7121707415
7121712603
7121718950
7121725847
7121732744
7121737871
7121743731
7121749651
7121756487
7121762224
7121769121
7121776262
7121781023
7121787615
7121793291
7121800493
7121805864
7121812883
7121818010
7121826189
7121831987
7121838030
7121845415
7121852068
7121858354
7121866960
7121873186
7121879289
7121885637
7121891496
7121898454
7121904009
7121912004
7121919328
7121925615
7121931047
7121938371
7121944048
7121951067
7121958818
7121965105
7121971696
7121977373
7121983537
7121990434
7121996294
7122005144
7122011491
7122017473
7122023576
7122030778
7122038469
7122043962
7122051652
7122058061
7122063981
7122070329
7122076188
7122082963
7122089067
7122094926
7122103044
7122109391
7122116288
7122123674
7122129899
7122137712
7122144486
7122150651
7122158525
7122164994
7122170182
7122177140
7122184525
7122190751
7122197465
7122203263
7122209794
7122217118
7122222855
7122228410
7122236405
7122242875
7122248673
7122254288
7122260270
7122266801
7122273270
7122281388
7122287186
7122292924
7122299821
7122304948
7122312516
7122318619
7122325821
7122332535
7122337967
7122345109
7122350724
7122357132
7122364396
7122372574
7122379532
7122386002
7122391800
7122399430
7122406083
7122413773
7122420609
7122429154
7122435257
7122443558
7122450028
7122457535
7122464493
7122471512
7122478836
7122485550
7122492386
7122500443
7122507462
7122514908
7122522171
7122530106
7122537369
7122544388
7122552261
7122559219
7122565567
7122571609
7122578751
7122586685
7122593033
7122601822
7122609756
7122616714
7122623001
7122632766
7122640335
7122646744
7122653763
7122660171
7122667923
7122676101
7122682998
7122689712
7122696548
7122703689
7122711990
7122719192
7122727310
7122737258
7122745254
7122754348
7122760452
7122767837
7122777542
7122784683
7122791702
7122799453
7122806533
7122814956
7122820937
7122829787
7122838393
7122844741
7122851821
7122862258
7122868850
7122875625
7122882461
7122888442
7122895400
7122902053
7122912612
7122918960
7122928786
7122933913
7122943313
7122949843
7122957656
7122964187
7122972548
7122982619
7122990065
7122997206
7123005019
7123011306
7123021437
7123028884
7123037001
7123044692
7123054885
7123062514
7123069350
7123075392
7123083083
7123090651
7123098586
7123105544
7123115431
7123121291
7123128798
7123137953
7123144057
7123152418
7123160475
7123169142
7123177687
7123183852
7123193251
7123199782
7123207472
7123214308
7123220656
7123231337
7123239027
7123246229
7123253859
7123261061
7123267408
7123275465
7123282911
7123291456
7123299269
7123305860
7123314100
7123320814
7123328199
7123336927
7123342970
7123351698
7123360426
7123368788
7123376844
7123384046
7123391554
7123398328
7123405775
7123413404
7123423109
7123430433
7123438245
7123444593
7123452467
7123460096
7123465772
7123476820
7123484876
7123491163
7123501417
7123507276
7123516309
7123524122
7123532056
7123539441
7123546460
7123554395
7123564588
7123572400
7123579358
7123586011
7123596997
7123605176
7123612439
7123620191
7123627149
7123634534
7123642041
7123651319
7123659802
7123669141
7123675794
7123682630
7123689649
7123696851
7123703565
7123711987
7123721509
7123728833
7123736890
7123743787
7123750928
7123760571
7123767834
7123775891
7123785046
7123792859
7123801404
7123808850
7123816113
7123823254
7123831006
7123840893
7123847485
7123855603
7123864331
7123871167
7123879834
7123887097
7123893933
7123902661
7123911938
7124103588
7124115124
7124127331
7124139171
7124148082
7124159130
7124167919
7124176830
7124195385
7124201976
7124218822
7124229076
7124240734
7124249034
7124260936
7124271007
7124284190
7124296520
7124302074
7124313853
7124324107
7124332713
7124341930
7124351451
7124358470
7124369151
7124380504
7124391307
7124401927
7124412425
7124419200
7124429332
7124438853
7124449107
7124457652
7124467906
7124478831
7124485606
7124495066
7124506114
7124515818
7124523387
7124535227
7124544871
7124553233
7124561900
7124571848
7124580882
7124587229
7124597056
7124605601
7124617136
7124626902
7124634837
7124643748
7124652659
7124662302
7124672617
7124680063
7124689524
7124701060
7124710032
7124717783
7124725840
7124736094
7124745066
7124752268
7124761667
7124769419
7124780649
7124788828
7124796335
7124804453
7124811228
7124817392
7124825144
7124831797
7124840097
7124848947
7124856943
7124865610
7124872324
7124877817
7124885446
7124893747
7124902048
7124910715
7124918527
7124925974
7124935251
7124941721
7124948495
7124955453
7124962839
7124970407
7124980356
7124984994
7124993844
7124999643
7125008493
7125014718
7125022653
7125030221
7125037484
7125045602
7125052560
7125060251
7125070138
7125074777
7125085519
7125094796
7125101449
7125108590
7125116281
7125125131
7125132455
7125141488
7125149423
7125157174
7125164620
7125172555
7125179635
7125187753
7125194528
7125202096
7125209420
7125216622
7125225655
7125231637
7125241158
7125248543
7125254525
7125260567
7125269234
7125277596
7125287667
7125292306
7125301339
7125306954
7125316659
7125323067
7125332589
7125340584
7125346932
7125354378
7125361763
7125369332
7125376229
7125383492
7125390816
7125399666
7125407357
7125414498
7125421456
7125427864
7125437752
7125444283
7125451546
7125459236
7125466316
7125472969
7125481697
7125488594
7125496162
7125504585
7125513496
7125520576
7125528084
7125535957
7125542793
7125549141
7125558601
7125564400
7125572334
7125580086
7125587349
7125596260
7125603401
7125610725
7125618110
7125625740
7125632942
7125640327
7125650032
7125656623
7125663276
7125669929
7125678901
7125686592
7125694160
7125702461
7125709663
7125717292
7125724555
7125732063
7125738716
7125746589
7125752204
7125761970
7125769111
7125775398
7125782111
7125789253
7125797126
7125803291
7125811286
7125821479
7125829292
7125836799
7125843879
7125851020
7125858649
7125865607
7125876472
7125883796
7125893317
7125900092
7125908942
7125917365
7125926764
7125935614
7125945624
7125960151
7125968329
7125974616
7125982428
7125989447
7125997260
7126004523
7126012274
7126021430
7126027655
7126036017
7126043769
7126050849
7126058600
7126064826
7126071784
7126079169
7126087225
7126094489
7126101080
7126108832
7126116949
7126124579
7126131415
7126139288
7126146429
7126154547
7126161749
7126169379
7126175543
7126183417
7126194586
7126204352
7126216009
7126225714
7126232672
7126240423
7126247198
7126253912
7126261053
7126268255
7126277716
7126285345
7126292547
7126300848
7126307806
7126315130
7126322271
7126329229
7126337164
7126345953
7126351873
7126360540
7126366155
7126372564
7126380743
7126387762
7126396429
7126405035
7126412420
7126421819
7126429815
7126436895
7126444280
7126451421
7126457830
7126465703
7126475347
7126483892
7126490789
7126498540
7126507207
7126512945
7126522100
7126527044
7126537236
7126545537
7126551580
7126561284
7126567632
7126575322
7126582524
7126590276
7126597844
7126605291
7126613957
7126620610
7126630254
7126635991
7126643743
7126652226
7126660100
7126669927
7126678288
7126685552
7126693791
7126701360
7126709721
7126716679
7126725468
7126734013
7126742375
7126750371
7126761113
7126768925
7126777104
7126785832
7126794133
7126802067
7126808354
7126817204
7126822819
7126828862
7126838810
7126844975
7126852238
7126859929
7126869389
7126876774
7126884648
7126891667
7126898381
7126906071
7126913456
7126922184
7126929997
7126938358
7126947514
7126955082
7126960819
7126968510
7126977360
7126982182
7126993412
7127001347
7127007511
7127014347
7127023502
7127030338
7127037540
7127044498
7127053348
7127062199
7127069889
7127078251
7127085270
7127091617
7127099491
7127107059
7127114811
7127123111
7127131595
7127139652
7127147464
7127154972
7127159793
7127166996
7127174869
7127184269
7127190616
7127200321
7127205936
7127214176
7127222843
7127229984
7127237064
7127245059
7127252567
7127263065
7127269779
7127277469
7127283817
7127291690
7127298892
7127306705
7127316287
7127324283
7127331424
7127339236
7127345340
7127353274
7127360599
7127368289
7127376163
7127385867
7127393802
7127401431
7127408633
7127415103
7127422915
7127431704
7127437625
7127448306
7127456851
7127463382
7127471072
7127477786
7127485598
7127493716
7127500918
7127508792
7127519839
7127528811
7127537661
7127542666
7127556521
7127564883
7127573794
7127582827
7127591189
7127599917
7127605227
7127612734
7127621096
7127631106
7127639040
7127647829
7127656801
7127664431
7127670473
7127678408
7127685915
7127693789
7127700808
7127708803
7127717959
7127726137
7127730288
7127740603
7127748049
7127755861
7127762087
7127771425
7127777895
7127785341
7127795229
7127803469
7127809938
7127820070
7127827150
7127837831
7127842470
7127852236
7127859926
7127869325
7127877077
7127886049
7127893922
7127902467
7127910646
7127917787
7127926088
7127933778
7127941652
7127949342
7127957094
7127963136
7127970949
7127980226
7127988649
7127992677
7128002321
7128008607
7128015931
7128024843
7128032716
7128041139
7128049867
7128057496
7128062684
7128072633
7128078675
7128086488
7128094178
7128102357
7128111268
7128117311
7128125001
7128132691
7128140626
7128148438
7128154725
7128161378
7128169312
7128177674
7128187989
7128194703
7128201844
7128210877
7128218262
7128224427
7128232545
7128240235
7128248475
7128255982
7128264039
7128272278
7128279908
7128283997
7128294068
7128305481
7128311768
7128321290
7128326478
7128334046
7128342896
7128352845
7128361451
7128370362
7128381958
7128390198
7128398560
7128408020
7128416199
7128423340
7128433899
7128439881
7128450745
7128457214
7128465393
7128473694
7128482178
7128489990
7128498413
7128505981
7128514465
7128522339
7128530701
7128537292
7128545776
7128553284
7128560058
7128568847
7128576538
7128587219
7128593567
7128601318
7128608642
7128616455
7128624206
7128629882
7128639587
7128648010
7128655761
7128663513
7128669555
7128677612
7128684753
7128691894
7128699462
7128709045
7128716735
7128722595
7128730529
7128737609
7128747436
7128753723
7128761657
7128770812
7128779174
7128787231
7128792968
7128799072
7128808715
7128814880
7128822021
7128830077
7128838378
7128848022
7128853149
7128862914
7128870177
7128877379
7128884032
7128892150
7128901305
7128909301
7128915587
7128923461
7128931823
7128937499
7128945739
7128953551
7128960204
7128967650
7128975157
7128982970
7128992125
7128997374
7129007018
7129013426
7129021849
7129031981
7129039671
7129045775
7129053648
7129062132
7129067931
7129076476
7129084471
7129093504
7129101744
7129109801
7129115660
7129124266
7129131895
7129138121
7129144530
7129154600
7129161925
7129173460
7129179259
7129188780
7129197203
7129204832
7129213011
7129221190
7129228758
7129237181
7129246153
7129253294
7129260618
7129268797
7129276487
7129282164
7129293272
7129299192
7129307676
7129312681
7129322325
7129330076
7129336118
7129343443
7129353208
7129360349
7129368284
7129375425
7129382505
7129390257
7129398069
7129405515
7129413633
7129422910
7129430357
7129437803
7129443662
7129450620
7129458433
7129466062
7129473997
7129481565
7129489744
7129496091
7129503843
7129510801
7129519040
7129526242
7129532773
7129542234
7129550290
7129558652
7129566892
7129574887
7129581235
7129589170
7129596616
7129604428
7129613706
7129620053
7129625974
7129635617
7129643918
7129648862
7129657834
7129664121
7129673703
7129681332
7129689084
7129697629
7129704648
7129712949
7129720151
7129725644
7129733884
7129743832
