7339893807
7339899483
7339904671
7339910347
7339915230
7339920540
7339925057
7339930855
7339935494
7339940804
7339946602
7339951424
7339956002
7339961190
7339966500
7339971749
7339976204
7339981575
7339985421
7339991280
7339996590
7340001656
7340006172
7340010689
7340015450
7340021187
7340026009
7340031624
7340036751
7340042366
7340047005
7340052681
7340059456
7340064278
7340069649
7340076973
7340082893
7340090462
7340097298
7340104561
7340112434
7340118538
7340125557
7340132027
7340139595
7340147468
7340152962
7340161018
7340168587
7340175422
7340183601
7340189155
7340197090
7340204719
7340211982
7340218635
7340223945
7340232612
7340239448
7340247749
7340255439
7340260505
7340267524
7340274787
7340283332
7340289009
7340297492
7340305671
7340311042
7340320930
7340326911
7340335700
7340341560
7340349922
7340358405
7340366279
7340372871
7340379401
7340385810
7340392463
7340401435
7340407905
7340416083
7340422858
7340430183
7340438483
7340444343
7340452033
7340461738
7340469611
7340477729
7340485175
7340491889
7340500434
7340507087
7340515693
7340521125
7340531134
7340538886
7340545111
7340552863
7340559455
7340568610
7340573920
7340584052
7340590583
7340598822
7340606391
7340615058
7340623236
7340631659
7340638739
7340647711
7340653754
7340663336
7340671576
7340680243
7340687384
7340692694
7340700629
7340708319
7340714789
7340721991
7340730231
7340737372
7340745062
7340752203
7340760321
7340767035
7340775702
7340784002
7340792914
7340798773
7340808111
7340814703
7340821356
7340831183
7340837957
7340845343
7340853033
7340861090
7340868719
7340875311
7340884832
7340890936
7340898260
7340905950
7340914984
7340922186
7340928900
7340938238
7340945867
7340952947
7340958196
7340967107
7340972356
7340982000
7340989996
7340998235
7341003789
7341011419
7341019598
7341025579
7341033575
7341041387
7341049505
7341056890
7341064763
7341071660
7341080449
7341087102
7341096502
7341103032
7341110235
7341117742
7341123296
7341131353
7341138372
7341144414
7341154851
7341162908
7341169194
7341175298
7341183232
7341191289
7341198552
7341207280
7341213811
7341222417
7341229314
7341235356
7341241765
7341250249
7341258733
7341264592
7341273442
7341279485
7341287358
7341294499
7341301396
7341308415
7341316472
7341323674
7341331364
7341339543
7341346135
7341354375
7341360295
7341368229
7341375004
7341382329
7341389775
7341397465
7341407231
7341415654
7341422490
7341428776
7341436406
7341442326
7341450444
7341455998
7341465092
7341471867
7341478276
7341485844
7341492497
7341499394
7341506718
7341515934
7341524052
7341531803
7341538883
7341546635
7341553227
7341561405
7341567997
7341573063
7341583622
7341591007
7341599064
7341607426
7341612858
7341621097
7341628361
7341636356
7341643192
7341649052
7341656437
7341665592
7341672550
7341680362
7341687381
7341695072
7341702030
7341710453
7341718387
7341728153
7341735660
7341744327
7341752384
7341760196
7341766117
7341774967
7341784610
7341792484
7341798160
7341806156
7341813602
7341820743
7341828128
7341836673
7341845767
7341852847
7341860721
7341867679
7341875797
7341883426
7341891910
7341902225
7341910342
7341917117
7341924441
7341931949
7341941043
7341948367
7341954654
7341963504
7341971133
7341977237
7341985965
7341993716
7342002200
7342009585
7342018557
7342023990
7342032412
7342042422
7342050784
7342059024
7342067080
7342072329
7342081668
7342090212
7342099307
7342106753
7342115359
7342124331
7342133608
7342140566
7342148684
7342158999
7342166628
7342174624
7342183657
7342192141
7342198489
7342208559
7342217165
7342222597
7342230349
7342234865
7342242678
7342248720
7342257204
7342263491
7342268435
7342276430
7342281740
7342289370
7342295534
7342301699
7342309328
7342316408
7342323000
7342329409
7342333437
7342342287
7342348574
7342354067
7342361757
7342365297
7342374636
7342379824
7342387270
7342392580
7342399965
7342407289
7342412050
7342419252
7342425722
7342433473
7342438722
7342444765
7342456667
7342462892
7342471742
7342478944
7342485414
7342492128
7342498842
7342511293
7342517030
7342523500
7342530458
7342536745
7342543275
7342551210
7342558168
7342564088
7342569398
7342577211
7342582521
7342590455
7342595582
7342603700
7342610475
7342616212
7342622010
7342629762
7342635926
7342641542
7342648866
7342656434
7342661561
7342668885
7342676026
7342682618
7342687806
7342695130
7342701600
7342708253
7342714845
7342720033
7342728272
7342736024
7342741944
7342750611
7342756593
7342765382
7342775941
7342780030
7342789368
7342795228
7342802308
7342811219
7342817994
7342826722
7342832764
7342841492
7342847474
7342854066
7342860230
7342869446
7342877381
7342884400
7342891419
7342898621
7342905213
7342912110
7342919373
7342926270
7342931580
7342939820
7342945862
7342954468
7342962647
7342970154
7342977906
7342985474
7342993775
7343000733
7343009278
7343016541
7343024231
7343032410
7343037903
7343046509
7343052551
7343062195
7343071838
7343077942
7343085144
7343094543
7343101196
7343110474
7343117920
7343124573
7343133789
7343140442
7343149719
7343156006
7343164306
7343173218
7343182922
7343190735
7343205017
7343212341
7343218261
7343228149
7343234375
7343240539
7343249694
7343258850
7343266418
7343272338
7343280700
7343286498
7343295288
7343301269
7343308959
7343315978
7343324828
7343331603
7343338744
7343345702
7343353637
7343360351
7343366821
7343374450
7343382446
7343389892
7343396667
7343404235
7343410094
7343418517
7343426391
7343431029
7343439879
7343445800
7343454406
7343462890
7343468688
7343475341
7343484008
7343489501
7343499328
7343504760
7343514098
7343521178
7343528502
7343535643
7343543822
7343548339
7343558776
7343565428
7343574706
7343583678
7343588866
7343598387
7343604918
7343612547
7343619933
7343630187
7343636046
7343644225
7343652525
7343660704
7343668272
7343676390
7343684874
7343696226
7343704100
7343712218
7343719786
7343728209
7343734617
7343743162
7343751707
7343759825
7343766905
7343774229
7343783506
7343789488
7343798704
7343804625
7343813658
7343819944
7343831663
7343836973
7343846312
7343854856
7343860838
7343869505
7343875425
7343882933
7343892759
7343897520
7343906980
7343914854
7343922544
7343931150
7343939085
7343946409
7343953733
7343962705
7343971372
7343977598
7343987058
7343995237
7344003965
7344010374
7344021055
7344027952
7344034971
7344044980
7344051816
7344060789
7344066709
7344073545
7344081357
7344090329
7344095334
7344104978
7344112729
7344119748
7344127195
7344134702
7344141904
7344149594
7344157346
7344167173
7344174741
7344181272
7344189450
7344196042
7344204282
7344212888
7344218076
7344227048
7344234799
7344241086
7344248288
7344260373
7344270200
7344278928
7344286313
7344293576
7344301877
7344311337
7344319394
7344326657
7344332944
7344341183
7344348080
7344354977
7344361508
7344368161
7344376645
7344383297
7344392697
7344400143
7344407528
7344416378
7344423153
7344432064
7344440976
7344447995
7344456478
7344465390
7344471981
7344478756
7344486508
7344497006
7344504391
7344513119
7344519894
7344527523
7344537045
7344545406
7344555599
7344562679
7344570980
7344579525
7344584957
7344593563
7344600277
7344609249
7344617245
7344624813
7344633968
7344642025
7344649105
7344659664
7344670162
7344676021
7344683590
7344694088
7344701168
7344710201
7344717159
7344729061
7344736446
7344748287
7344757198
7344764339
7344776058
7344783199
7344789730
7344796810
7344805232
7344812251
7344820552
7344825984
7344835262
7344843074
7344852351
7344858638
7344866756
7344875240
7344882075
7344890315
7344900569
7344905635
7344914668
7344922420
7344928218
7344937312
7344944575
7344952205
7344960872
7344966792
7344974788
7344983027
7344988154
7344997981
7345005427
7345012629
7345018306
7345026240
7345034114
7345042781
7345049678
7345058894
7345064875
7345072016
7345080134
7345086665
7345096552
7345103633
7345113276
7345120417
7345127619
7345136713
7345142634
7345149775
7345161005
7345169794
7345175776
7345185603
7345192805
7345199702
7345206415
7345216913
7345224665
7345232966
7345239863
7345248163
7345255488
7345264460
7345273798
7345279657
7345287409
7345293085
7345301630
7345310785
7345318110
7345327387
7345334894
7345341486
7345349604
7345358026
7345365595
7345375299
7345383600
7345392694
7345403314
7345411371
7345421076
7345428095
7345435053
7345444086
7345452264
7345460443
7345468988
7345474542
7345482355
7345490533
7345498773
7345504449
7345512628
7345521173
7345528680
7345537042
7345543817
7345551996
7345560357
7345568048
7345575372
7345582025
7345587640
7345596368
7345605157
7345611322
7345619073
7345625116
7345631585
7345640313
7345651177
7345661676
7345668878
7345676629
7345683831
7345690301
7345699212
7345706292
7345713921
7345722100
7345730096
7345736810
7345744683
7345753533
7345761102
7345769769
7345776910
7345785149
7345792596
7345802117
7345812188
7345818597
7345826897
7345833367
7345841424
7345850213
7345858391
7345865838
7345875298
7345882866
7345891533
7345899285
7345906121
7345914788
7345924065
7345931206
7345939690
7345946587
7345953972
7345963494
7345970818
7345979241
7345986565
7345996086
7346002739
7346008965
7346020195
7346027947
7346037346
7346044853
7346051872
7346061821
7346067131
7346075371
7346085686
7346095756
7346102959
7346111076
7346118400
7346126640
7346131950
7346140434
7346148552
7346156547
7346163688
7346171074
7346178093
7346183708
7346193657
7346201408
7346210014
7346216362
7346225395
7346234001
7346240348
7346246574
7346255851
7346262870
7346270622
7346277336
7346283805
7346290336
7346299247
7346309135
7346315360
7346323478
7346332389
7346338981
7346345573
7346351920
7346359855
7346368644
7346375419
7346383170
7346391593
7346397758
7346406974
7346416129
7346424125
7346432975
7346439628
7346446341
7346453605
7346464225
7346473502
7346489432
7346496512
7346506888
7346514029
7346523246
7346530326
7346539115
7346544791
7346556082
7346562308
7346570853
7346577811
7346583975
7346593253
7346600516
7346609061
7346618216
7346627310
7346634634
7346644461
7346653067
7346660513
7346670035
7346676932
7346684256
7346693899
7346701712
7346707571
7346716360
7346726370
7346732229
7346739371
7346748282
7346755911
7346764883
7346772818
7346779898
7346791067
7346798697
7346805655
7346815481
7346824820
7346833364
7346839224
7346847463
7346854177
7346860586
7346869070
7346876455
7346883962
7346892568
7346898611
7346906484
7346912100
7346921072
7346928762
7346935842
7346942495
7346951528
7346957876
7346965993
7346975210
7346983633
7346990041
7346997732
7347006032
7347012197
7347020437
7347028921
7347035512
7347043996
7347049795
7347055837
7347065542
7347073720
7347082753
7347091542
7347098256
7347106008
7347111867
7347120412
7347128286
7347135549
7347144277
7347150075
7347158986
7347166921
7347174062
7347183400
7347191518
7347201405
7347207997
7347214040
7347221669
7347230702
7347238393
7347245107
7347253163
7347260731
7347268605
7347276173
7347284169
7347293019
7347302174
7347308705
7347316090
7347323720
7347331532
7347337941
7347346913
7347357045
7347363026
7347370656
7347379139
7347386952
7347395070
7347403736
7347409718
7347417836
7347425404
7347434864
7347442860
7347453907
7347461659
7347470265
7347480946
7347488331
7347496082
7347503163
7347511341
7347520252
7347526417
7347534779
7347540943
7347549915
7347556019
7347563404
7347573170
7347579761
7347588306
7347595203
7347600696
7347609302
7347616504
7347626026
7347632984
7347640674
7347645740
7347653614
7347660755
7347667225
7347676136
7347684497
7347691272
7347696460
7347704517
7347711231
7347718677
7347726367
7347735096
7347740772
7347749378
7347754566
7347761646
7347768421
7347778125
7347784961
7347792346
7347801868
7347808399
7347816882
7347824573
7347831653
7347841357
7347849658
7347857043
7347866016
7347874194
7347880054
7347888660
7347895007
7347904285
7347912036
7347921252
7347927783
7347938220
7347948169
7347955615
7347963427
7347970874
7347978808
7347988696
7347996325
7348004443
7348012927
7348022326
7348028735
7348036853
7348044726
7348052478
7348060046
7348067736
7348077014
7348083849
7348091540
7348098681
7348107226
7348112963
7348121813
7348130541
7348139697
7348147753
7348156664
7348165758
7348174670
7348183092
7348192431
7348200487
7348208910
7348220873
7348227221
7348236498
7348242663
7348251757
7348258898
7348269518
7348276110
7348283739
7348289904
7348298082
7348306200
7348311449
7348320299
7348327379
7348336168
7348342028
7348351000
7348357775
7348364672
7348371141
7348381090
7348388231
7348395189
7348402147
7348409654
7348417833
7348426134
7348432726
7348440233
7348448351
7348454027
7348460619
7348470445
7348477037
7348486986
7348493638
7348499620
7348510118
7348516588
7348524766
7348532274
7348540513
7348549119
7348555162
7348564378
7348569749
7348579515
7348586595
7348596177
7348602464
7348610032
7348619249
7348627000
7348644395
7348651109
7348658921
7348666551
7348674790
7348684373
7348690232
7348698411
7348705674
7348716172
7348724473
7348730637
7348739793
7348746140
7348755357
7348760484
7348770371
7348777817
7348785325
7348794785
7348802415
7348810471
7348817978
7348825059
7348833359
7348840439
7348848801
7348855454
7348864975
7348871445
7348878159
7348887619
7348895249
7348903305
7348909714
7348918198
7348925278
7348935715
7348942734
7348951096
7348958786
7348967026
7348974350
7348983627
7348991196
7349000412
7349011154
7349018723
7349026291
7349034470
7349042099
7349050095
7349058090
7349067306
7349074264
7349079758
7349089218
7349095322
7349102890
7349109726
7349117416
7349126266
7349133835
7349140304
7349148178
7349154281
7349161850
7349170700
7349175827
7349187301
7349194870
7349200790
7349210189
7349218124
7349225936
7349232101
7349238876
7349247909
7349254074
7349263046
7349270309
7349277328
7349284469
7349291183
7349297775
7349307784
7349314681
7349322128
7349330184
7349337081
7349344039
7349351058
7349357467
7349364425
7349372420
7349377914
7349383468
7349392074
7349397933
7349405562
7349412459
7349419478
7349426681
7349435347
7349442611
7349451278
7349458236
7349465072
7349472396
7349478926
7349486312
7349495955
7349504256
7349512923
7349521468
7349529341
7349537764
7349545027
7349553328
7349562789
7349570723
7349577071
7349584578
7349591475
7349599410
7349607283
7349615462
7349626326
7349634016
7349640120
7349649824
7349656844
7349664290
7349672713
7349685225
7349693342
7349701216
7349709883
7349718855
7349726729
7349734785
7349742659
7349750288
7349760298
7349769453
7349780806
7349789534
7349797224
7349805525
7349811689
7349821089
7349827925
7349836164
7349843244
7349852827
7349858503
7349867109
7349877302
7349884748
7349892561
7349897871
7349906721
7349914961
7349922590
7349930097
7349937666
7349947248
7349952863
7349960371
7349967573
7349975202
7349981367
7349990888
7350000287
7350005964
7350013898
7350021650
7350029523
7350034528
7350043439
7350049665
7350058515
7350065290
7350072248
7350079145
7350088239
7350094953
7350101911
7350108625
7350118268
7350164716
7350172223
7350179913
7350187177
7350195172
7350201947
7350208478
7350215619
7350224713
7350231366
7350238324
7350245465
7350251752
7350258343
7350265301
7350272687
7350279706
7350283795
7350292462
7350299481
7350306744
7350313031
7350318158
7350327984
7350333966
7350340436
7350347455
7350354107
7350359845
7350368817
7350375836
7350383648
7350388897
7350396649
7350404156
7350409527
7350415997
7350424603
7350432293
7350440289
7350447674
7350455425
7350462750
7350470928
7350477520
7350484844
7350494915
7350505596
7350514874
7350522564
7350529156
7350534893
7350545147
7350552166
7350558575
7350565105
7350572063
7350578350
7350586956
7350593059
7350599956
7350607525
7350614239
7350621197
7350628093
7350634868
7350641704
7350648723
7350655132
7350661174
7350670086
7350676555
7350684368
7350690837
7350698589
7350704570
7350712688
7350721172
7350728740
7350734783
7350743267
7350749492
7350756633
7350763408
7350770244
7350780254
7350787334
7350794292
7350801982
7350809673
7350816570
7350824321
7350831279
7350838786
7350847087
7350854716
7350861674
7350869182
7350875407
7350883830
7350891887
7350896586
7350906352
7350913920
7350922709
7350928630
7350935466
7350943889
7350950847
7350957133
7350964824
7350974223
7350981791
7350986125
7350995585
7351001445
7351010234
7351015910
7351024943
7351030375
7351037638
7351044718
7351053324
7351059611
7351065714
7351071452
7351079203
7351085856
7351092631
7351097758
7351104777
7351110880
7351116251
7351122477
7351129435
7351136210
7351140849
7351147318
7351154032
7351160929
7351167033
7351173136
7351181132
7351186564
7351194071
7351200113
7351207682
7351213846
7351220133
7351228190
7351232645
7351240580
7351250589
7351256083
7351261820
7351267740
7351276285
7351282206
7351290140
7351295572
7351302164
7351307718
7351313150
7351320230
7351326090
7351332559
7351339273
7351343729
7351350992
7351357218
7351362833
7351368875
7351374368
7351381632
7351389200
7351394571
7351402017
7351407938
7351412943
7351419656
7351424722
7351431192
7351436380
7351441873
7351448404
7351453470
7351461648
7351467142
7351473367
7351479227
7351485879
7351491678
7351499307
7351507059
7351515603
7351520913
7351527383
7351532632
7351540628
7351545266
7351552224
7351556985
7351564248
7351571511
7351577249
7351584085
7351589761
7351594949
7351602517
7351609231
7351614358
7351619851
7351626504
7351632302
7351639382
7351646279
7351653604
7351661355
7351666604
7351674172
7351680276
7351687417
7351691445
7351700417
7351707986
7351714639
7351720986
7351725930
7351733620
7351740456
7351748391
7351753701
7351760903
7351767190
7351774270
7351781228
7351786660
7351794472
7351803078
7351810280
7351816079
7351824196
7351829506
7351837136
7351842812
7351852639
7351859902
7351866372
7351873146
7351879372
7351884255
7351891335
7351897866
7351904152
7351911293
7351917580
7351922646
7351931679
7351937355
7351943520
7351950051
7351956459
7351963112
7351969277
7351975807
7351982216
7351989601
7351996071
7352001564
7352009621
7352016212
7352023476
7352028969
7352036354
7352041969
7352049232
7352054970
7352062599
7352068336
7352075477
7352081398
7352087135
7352094032
7352099830
7352106300
7352113685
7352119362
7352126686
7352132362
7352139808
7352145546
7352152748
7352158973
7352164894
7352171608
7352178749
7352184425
7352191810
7352196571
7352204628
7352210914
7352219581
7352226173
7352232459
7352240211
7352246436
7352252662
7352260658
7352267738
7352274146
7352279945
7352288734
7352295570
7352301856
7352308021
7352314918
7352321204
7352330054
7352336036
7352345252
7352354529
7352362403
7352368934
7352375281
7352382789
7352389136
7352397010
7352403480
7352411475
7352417762
7352425025
7352431373
7352437232
7352446814
7352454871
7352463660
7352471412
7352478736
7352486609
7352493323
7352501380
7352508338
7352517920
7352524512
7352532630
7352539588
7352548194
7352554419
7352562232
7352568579
7352576087
7352582495
7352589697
7352597998
7352603857
7352612280
7352618628
7352626990
7352633093
7352641211
7352646826
7352654822
7352662512
7352668127
7352674719
7352685522
7352692419
7352697851
7352705908
7352714148
7352721777
7352728186
7352736303
7352744299
7352751867
7352757971
7352764624
7352773657
7352780859
7352788000
7352795813
7352802771
7352810827
7352817663
7352825231
7352832983
7352839269
7352846777
7352855261
7352861059
7352870641
7352878271
7352884435
7352892492
7352901037
7352908483
7352914709
7352923437
7352929418
7352937170
7352945959
7352952672
7352959508
7352967748
7352974645
7352982274
7352989355
7352996557
7353004186
7353011815
7353019323
7353027501
7353033178
7353039525
7353048925
7353055577
7353065831
7353072240
7353079320
7353089025
7353096349
7353103978
7353112584
7353120336
7353128758
7353137303
7353144017
7353152806
7353160863
7353169225
7353175877
7353182103
7353191686
7353199498
7353206944
7353213902
7353224339
7353229466
7353239598
7353246739
7353256322
7353264378
7353275548
7353284459
7353290989
7353299046
7353308262
7353315037
7353324742
7353331089
7353340001
7353346653
7353355870
7353361180
7353369908
7353376744
7353385716
7353394810
7353402745
7353408848
7353415684
7353425389
7353431248
7353437718
7353446873
7353455357
7353461460
7353470432
7353476353
7353484593
7353491428
7353497776
7353507359
7353512730
7353522495
7353528049
7353535862
7353542942
7353550388
7353558445
7353565891
7353570347
7353580356
7353588840
7353593723
7353603061
7353611423
7353617832
7353625705
7353633701
7353643711
7353651035
7353659580
7353667148
7353673923
7353682102
7353689853
7353698032
7353704685
7353713596
7353720249
7353728549
7353735996
7353744052
7353751499
7353758762
7353767001
7353774692
7353782871
7353792331
7353798557
7353807895
7353812961
7353822543
7353828525
7353838779
7353847446
7353854831
7353860812
7353869235
7353877353
7353885592
7353893588
7353901950
7353911105
7353919406
7353927157
7353935275
7353941501
7353950290
7353958712
7353965243
7353972689
7353982089
7353989535
7353996005
7354007357
7354014926
7354023287
7354032321
7354040743
7354049105
7354057772
7354068514
7354079806
7354087862
7354095553
7354106600
7354115511
7354122774
7354130343
7354140230
7354149203
7354156710
7354164706
7354173800
7354182833
7354188875
7354197603
7354206392
7354214571
7354220736
7354227327
7354236422
7354243135
7354252108
7354257540
7354266573
7354272798
7354281588
7354288484
7354295626
7354301851
7354311373
7354317781
7354325350
7354332308
7354339937
7354346468
7354355684
7354362154
7354370943
7354376863
7354384248
7354393343
7354399568
7354406648
7354413789
7354423433
7354429292
7354437410
7354444551
7354453096
7354461885
7354470247
7354477876
7354483186
7354493806
7354502473
7354508882
7354517000
7354524507
7354533540
7354541475
7354548372
7354560029
7354566255
7354577058
7354582856
7354590791
7354595857
7354605073
7354611177
7354619660
7354626130
7354636018
7354642610
7354649873
7354656709
7354664826
7354671540
7354678315
7354686250
7354692963
7354701264
7354707917
7354715424
7354721406
7354729462
7354735505
7354744782
7354751435
7354758332
7354767609
7354774872
7354781769
7354789399
7354796540
7354804047
7354811982
7354819916
7354827851
7354834198
7354841889
7354847809
7354855988
7354864045
7354875092
7354886444
7354894318
7354902619
7354913483
7354924652
7354931183
7354941193
7354947968
7354958954
7354965057
7354971832
7354980988
7354986969
7354995880
7355001190
7355010895
7355018646
7355025909
7355032074
7355039886
7355047577
7355055206
7355061798
7355069610
7355078522
7355086212
7355092193
7355100006
7355105926
7355114959
7355121002
7355129486
7355136444
7355143890
7355152862
7355158111
7355167938
7355172943
7355183563
7355190277
7355198577
7355208709
7355214752
7355223480
7355232025
7355238677
7355245208
7355255096
7355263091
7355271209
7355279388
7355287078
7355294402
7355302825
7355309478
7355317901
7355324371
7355333831
7355340728
7355348968
7355358550
7355365874
7355373626
7355380340
7355388762
7355396026
7355404326
7355414153
7355420195
7355429229
7355437590
7355444182
7355451812
7355459319
7355467986
7355475676
7355482756
7355490996
7355498381
7355506682
7355514495
7355522795
7355529509
7355536650
7355546721
7355554533
7355563323
7355568572
7355578459
7355587370
7355593718
7355602019
7355609770
7355619231
7355628081
7355634856
7355644804
7355651701
7355659270
7355667692
7355675261
7355681364
7355691618
7355699125
7355708159
7355713041
7355723906
7355731352
7355740507
7355751921
7355764250
7355771208
7355779692
7355788420
7355795133
7355801542
7355810697
7355818754
7355826322
7355832365
7355840727
7355848966
7355855253
7355864225
7355869596
7355878935
7355886747
7355893888
7355901090
7355909879
7355917387
7355924406
7355930265
7355937894
7355946683
7355954496
7355958524
7355968473
7355974454
7355983671
7355990079
7355999235
7356006681
7356015836
7356021756
7356030973
7356039090
7356046903
7356053128
7356059964
7356068998
7356075589
7356084500
7356090909
7356099881
7356106717
7356114102
7356120206
7356128629
7356137052
7356145413
7356152310
7356165189
7356171780
7356180753
7356187589
7356197537
7356206998
7356215359
7356221890
7356229947
7356239651
7356245633
7356255276
7356262539
7356270413
7356277737
7356289944
7356297268
7356305691
7356314053
7356320401
7356326870
7356336941
7356346157
7356352444
7356361355
7356368679
7356378628
7356384854
7356394375
7356400906
7356410794
7356416470
7356426846
7356433010
7356441494
7356448879
7356457424
7356464016
7356474026
7356481228
7356489956
7356496426
7356503994
7356513637
7356520351
7356528164
7356535427
7356544582
7356559536
7356566494
7356574428
7356584682
7356590175
7356600246
7356607387
7356615383
7356626308
7356632473
7356641323
7356647487
7356655178
7356664272
7356670620
7356677822
7356686611
7356693630
7356701015
7356708034
7356714321
7356723964
7356729579
7356737453
7356745387
7356753078
7356761745
7356767543
7356773891
7356783717
7356791774
7356796779
7356806544
7356814967
7356820949
7356828151
7356837306
7356844203
7356853053
7356859401
7356866481
7356874965
7356882228
7356889247
7356897609
7356906398
7356914760
7356922023
7356930323
7356938014
7356948024
7356954859
7356964564
7356971278
7356977748
7356990443
7357000392
7357009425
7357017603
7357024317
7357032557
7357040919
7357048609
7357054163
7357063319
7357070521
7357079676
7357085474
7357093836
7357101832
7357109156
7357115137
7357124842
7357132654
7357140101
7357147120
7357157313
7357165064
7357172877
7357180018
7357190760
7357199427
7357207361
7357215357
7357222437
7357230188
7357238611
7357244287
7357253199
7357261560
7357267054
7357277429
7357283716
7357290735
7357300134
7357307092
7357316431
7357322717
7357333093
7357339868
7357350122
7357359644
7357368372
7357375696
7357384485
7357393579
7357399194
7357408044
7357416345
7357424646
7357433130
7357438013
7357448205
7357455530
7357462427
7357469385
7357478357
7357486535
7357493554
7357501306
7357508264
7357514611
7357523645
7357533227
7357538781
7357545373
7357553979
7357560998
7357570214
7357578393
7357586206
7357593896
7357601159
7357608117
7357614343
7357623315
7357631982
7357638146
7357646630
7357652917
7357659875
7357668908
7357678246
7357684716
7357693139
7357700036
7357708398
7357715783
7357721642
7357731957
7357738244
7357747704
7357755150
7357761925
7357768822
7357778588
7357787072
7357796471
7357803246
7357812279
7357821495
7357829125
7357835961
7357845726
7357852135
7357861229
7357868248
7357876305
7357882225
7357893028
7357900963
7357907616
7357916100
7357924950
7357932701
7357941063
7357949486
7357959007
7357965843
7357974510
7357982506
7357989647
7357996788
7358008385
7358018394
7358029075
7358036033
7358044212
7358051048
7358061546
7358068748
7358077354
7358086387
7358092613
7358101341
7358107872
7358114402
7358122764
7358129112
7358136985
7358143150
7358152427
7358158714
7358167564
7358175682
7358182029
7358190696
7358199790
7358204856
7358214439
7358220603
7358231712
7358238670
7358245445
7358254295
7358260215
7358270164
7358276206
7358285728
7358294334
7358301475
7358310630
7358316245
7358326987
7358333701
7358343955
7358351523
7358358176
7358366782
7358374106
7358382651
7358390830
7358400535
7358407859
7358414512
7358423728
7358431479
7358438681
7358446433
7358454367
7358464804
7358472495
7358479026
7358487631
7358493247
7358503806
7358511740
7358521262
7358529196
7358537619
7358547019
7358556601
7358566245
7358573141
7358581747
7358586630
7358596457
7358603415
7358614340
7358622580
7358630636
7358636862
7358644491
7358655050
7358662558
7358672262
7358683066
7358690146
7358699240
7358708639
7358717733
7358725973
7358735800
7358743551
7358756308
7358763815
7358770407
7358777487
7358785665
7358794088
7358801229
7358807699
7358813558
7358822347
7358829061
7358838705
7358847128
7358853719
7358862936
7358872274
7358878378
7358888326
7358895834
7358903646
7358913351
7358921163
7358928548
7358936178
7358944723
7358955587
7358962667
7358972555
7358979329
7358986593
7358993795
7359003988
7359010396
7359021199
7359030049
7359036580
7359045064
7359052510
7359061177
7359069844
7359077840
7359085713
7359093648
7359101277
7359109517
7359116109
7359124959
7359131551
7359139180
7359149068
7359155843
7359163350
7359170552
7359178853
7359186665
7359195088
7359202351
7359210652
7359219929
7359226033
7359232747
7359242207
7359250813
7359256917
7359266682
7359272786
7359283528
7359289692
7359299275
7359306660
7359314412
7359320576
7359328816
7359336445
7359347370
7359353962
7359362202
7359369770
7359378132
7359385090
7359396259
7359405537
7359413777
7359423725
7359430195
7359435688
7359444843
7359450825
7359457905
7359466694
7359473164
7359485676
7359496113
7359503864
7359517902
7359526325
7359537311
7359545307
7359553974
7359566364
7359574238
7359582294
7359590473
7359598163
7359602192
7359612568
7359621296
7359629169
7359633197
7359642597
7359648700
7359657550
7359663471
7359672687
7359678852
7359686359
7359695270
7359701862
7359708942
7359717304
7359724201
7359731403
7359739154
7359747455
7359755267
7359761737
7359769427
7359777972
7359785663
7359793170
7359800799
7359807696
7359815265
7359821246
7359831012
7359837176
7359843768
7359852801
7359858050
7359867633
7359876056
7359884417
7359893878
7359905536
7359915911
7359924884
7359935260
7359942523
7359951312
7359958270
7359964312
7359973956
7359981585
7359988604
7359995684
7360003497
7360010699
7360018389
7360026080
7360033648
7360040911
7360048907
7360054888
7360063555
7360072771
7360080035
7360086993
7360094683
7360100787
7360109331
7360116350
7360123858
7360132952
7360140215
7360147295
7360154253
7360160479
7360169268
7360176348
7360183733
7360192766
7360199419
7360206377
7360212969
7360220171
7360229692
7360236223
7360245806
7360254045
7360262529
7360270281
7360276567
7360286211
7360293291
7360300066
7360309953
7360321123
7360327715
7360338640
7360345354
7360354021
7360362383
7360369218
7360376604
7360383562
7360391130
7360413225
7360420061
7360427019
7360434282
7360441362
7360449113
7360456254
7360462480
7360470231
7360478898
7360484453
7360493242
7360500932
7360507035
7360516435
7360522294
7360529313
7360538285
7360544633
7360551591
7360559526
7360568559
7360575822
7360582963
7360591325
7360598710
7360605485
7360615373
7360623124
7360630082
7360638810
7360645951
7360651994
7360659928
7360666764
7360674577
7360683060
7360690690
7360696610
7360704850
7360711075
7360719071
7360727982
7360732926
7360741593
7360748490
7360756486
7360762833
7360769913
7360774491
7360781449
7360786332
7360793412
7360800797
7360807084
7360811295
7360818314
7360825211
7360831620
7360836136
7360844498
7360852738
7360857437
7360864334
7360870682
7360876602
7360881302
7360889725
7360894974
7360901077
7360905350
7360913712
7360917191
7360924637
7360930496
7360937943
7360942886
7360950089
7360957291
7360962601
7360970352
7360977737
7360983047
7360990127
7360997818
7361003250
7361013199
7361018387
7361024673
7361031936
7361039932
7361044815
7361053848
7361056656
7361065445
7361070389
7361077713
7361083145
7361089737
7361095108
7361101883
7361108169
7361113845
7361119339
7361125137
7361130813
7361137283
7361142837
7361148696
7361155715
7361161758
7361167007
7361172744
7361179580
7361185745
7361192092
7361196548
7361203323
7361207961
7361216323
7361222183
7361229324
7361235244
7361241348
7361247024
7361253738
7361260940
7361267471
7361273086
7361279739
7361285232
7361289077
7361295241
7361301772
7361308120
7361313918
7361320510
7361326125
7361333266
7361339736
7361346206
7361353042
7361360976
7361366347
7361372512
7361378371
7361386123
7361392165
7361398513
7361406508
7361413466
7361420058
7361425307
7361434340
7361439406
7361445876
7361454482
7361460829
7361467177
7361473830
7361481459
7361487868
7361494093
7361502150
7361509841
7361518874
7361525527
7361531142
7361537489
7361544753
7361550246
7361557814
7361563368
7361570692
7361577101
7361584669
7361591261
7361599989
7361605421
7361613905
7361625319
7361630263
7361639174
7361645582
7361652052
7361659865
7361665968
7361672621
7361679945
7361685682
7361693190
7361699415
7361706861
7361712599
7361720900
7361728468
7361735487
7361741957
7361746961
7361754469
7361759596
7361767347
7361775038
7361781385
7361786329
7361794325
7361801649
7361807935
7361812818
7361820936
7361825880
7361833753
7361838636
7361846510
7361851453
7361858900
7361863905
7361871961
7361877576
7361886793
7361892103
7361900037
7361905897
7361912122
7361917982
7361924329
7361930128
7361937818
7361943555
7361951368
7361957349
7361963636
7361970411
7361977613
7361986829
7361993177
7362000501
7362007032
7362014112
7362021497
7362026746
7362034864
7362042798
7362048169
7362056775
7362062024
7362070264
7362075818
7362083508
7362091870
7362098645
7362106580
7362113049
7362119153
7362126111
7362132825
7362141126
7362150220
7362156750
7362162915
7362171765
7362179150
7362185925
7362192639
7362201733
7362207410
7362216015
7362222363
7362230786
7362236462
7362244946
7362253247
7362259472
7362269604
7362281933
7362288891
7362296154
7362304577
7362312024
7362320202
7362331005
7362338085
7362345166
7362352978
7362360119
7362365490
7362373974
7362379894
7362387768
7362394970
7362402660
7362408276
7362416149
7362423534
7362428234
7362437573
7362445629
7362452587
7362460339
7362467419
7362475536
7362482372
7362490490
7362497692
7362508251
7362516918
7362522777
7362530956
7362537182
7362543712
7362551647
7362558788
7362565807
7362574535
7362578930
7362588146
7362593822
7362600902
7362604503
7362613903
7362621898
7362629222
7362637035
7362643871
7362649852
7362656749
7362662181
7362671520
7362678172
7362685802
7362693920
7362699046
7362706798
7362712108
7362719371
7362726939
7362733104
7362741344
7362750133
7362757640
7362765025
7362774120
7362779185
7362789073
7362797252
7362804027
7362811290
7362820628
7362826732
7362835826
7362842723
7362850779
7362858836
7362865977
7362874827
7362882151
7362890269
7362897532
7362904918
7362915110
7362921275
7362930979
7362937876
7362945384
7362951914
7362961802
7362967661
7362978160
7362986033
7362993418
7363001048
7363008311
7363016489
7363025828
7363034434
7363045664
7363056284
7363064768
7363073374
7363082896
7363091257
7363097910
7363107310
7363113657
7363122263
7363128245
7363136179
7363145090
7363151682
7363158762
7363166575
7363175852
7363182932
7363189829
7363196054
7363205759
7363212534
7363219431
7363225473
7363235361
7363242075
7363249643
7363256235
7363263803
7363272775
7363278696
7363286691
7363294809
7363301035
7363310312
7363316415
7363326059
7363332224
7363340341
7363347421
7363360483
7363366586
7363375314
7363381174
7363390634
7363398508
7363405527
7363411752
7363421029
7363424814
7363437021
7363443185
7363452707
7363459726
7363469247
7363475900
7363483896
7363493051
7363500680
7363507699
7363516671
7363523568
7363531869
7363538583
7363546945
7363551889
7363560494
7363570748
7363577279
7363583871
7363592111
7363601388
7363607797
7363617196
7363622262
7363630013
7363638009
7363645150
7363653512
7363662118
7363669381
7363678048
7363684334
7363694344
7363701302
7363709664
7363719491
7363724618
7363733712
7363739022
7363746773
7363753487
7363762642
7363772957
7363785775
7363791390
7363799630
7363805489
7363815926
7363822762
7363832405
7363838021
7363847664
7363856148
7363863533
7363870125
7363880318
7363887947
7363894417
7363903206
7363911446
7363919075
7363924995
7363932686
7363940620
7363948677
7363955696
7363963936
7363969856
7363977852
7363986153
7363994820
7364001716
7364009895
7364015449
7364024238
7364035469
7364044380
7364052437
7364059150
7364067085
7364072456
7364081489
7364091926
7364097541
7364106758
7364114021
7364122505
7364128181
7364136116
7364145637
7364153694
7364160468
7364167671
7364176704
7364183540
7364190437
7364197700
7364205146
7364214546
7364220710
7364229560
7364237067
7364245185
7364253242
7364262092
7364270637
7364277045
7364285407
7364292487
7364302131
7364310187
7364319343
7364326056
7364333625
7364342048
7364349250
7364359198
7364366645
7364376654
7364385688
7364391547
7364399909
7364407843
7364416266
7364424445
7364430793
7364439948
7364448981
7364459174
7364466864
7364476874
7364485846
7364492133
7364502631
7364509833
7364516242
7364526129
7364533026
7364541144
7364549322
7364557440
7364563544
7364571051
7364578924
7364588751
7364595465
7364602545
7364610724
7364618048
7364624396
7364634283
7364642462
7364649359
7364656439
7364663031
7364671026
7364678228
7364685797
7364696051
7364704290
7364709112
7364716803
7364724432
7364731390
7364740606
7364747747
7364757452
7364763861
7364770025
7364779485
7364787969
7364797613
7364810796
7364819219
7364827276
7364834966
7364842779
7364851934
7364858099
7364872442
7364877874
7364888189
7364895574
7364902837
7364911687
7364918889
7364926214
7364935613
7364942266
7364947759
7364955083
7364964238
7364969976
7364978093
7364986089
7364994634
7365002202
7365008672
7365016118
7365023686
7365033818
7365040410
7365048284
7365055303
7365061467
7365072576
7365079045
7365087224
7365094121
7365102116
7365110600
7365118657
7365126286
7365132695
7365139897
7365149113
7365160588
7365169194
7365176701
7365183659
7365192021
7365199528
7365209294
7365218632
7365227971
7365235722
7365242497
7365249333
7365257573
7365264836
7365272831
7365280217
7365286442
7365294255
7365300480
7365307804
7365316777
7365324406
7365331303
7365338810
7365347843
7365354923
7365361881
7365368595
7365375675
7365382877
7365392643
7365398869
7365406315
7365414799
7365422367
7365428593
7365436344
7365442265
7365451176
7365457767
7365466801
7365473026
7365481571
7365490055
7365497989
7365507145
7365513920
7365521061
7365528690
7365537479
7365543766
7365550724
7365559757
7365566654
7365573612
7365581424
7365588504
7365596012
7365604923
7365612613
7365620243
7365626651
7365633182
7365641422
7365651798
7365659061
7365668643
7365677493
7365683170
7365690799
7365700259
7365706485
7365714481
7365723087
7365730655
7365738467
7365746829
7365753665
7365761966
7365768619
7365777957
7365788150
7365796451
7365803042
7365811831
7365818240
7365825747
7365835330
7365843203
7365851016
7365858279
7365866763
7365874270
7365882632
7365889407
7365897891
7365904361
7365914248
7365920901
7365929690
7365937075
7365945620
7365953189
7365959170
7365970217
7365976931
7365985720
7365995303
7366003359
7366010683
7366018984
7366026919
7366032473
7366041933
7366049197
7366059450
7366067507
7366075442
7366083376
7366089358
7366097109
7366104250
7366111391
7366120669
7366126833
7366135744
7366141054
7366148562
7366156435
7366164003
7366172060
7366179750
7366187624
7366195131
7366201906
7366209719
7366215883
7366224672
7366230776
7366237856
7366247377
7366252565
7366261476
7366267336
7366276918
7366281862
7366291567
7366296938
7366311525
7366319154
7366326173
7366332277
7366341859
7366347292
7366355043
7366362367
7366370058
7366377687
7366385866
7366392335
7366402406
7366408815
7366418886
7366428529
7366436830
7366444886
7366455262
7366462648
7366470216
7366478822
7366487062
7366495118
7366503785
7366513063
7366521424
7366529908
7366537782
7366544496
7366550660
7366561341
7366569093
7366578675
7366587159
7366594239
7366601807
7366609864
7366617677
7366626038
7366635072
7366642823
7366648988
7366659608
7366665406
7366674805
7366680787
7366689576
7366699769
7366707642
7366714844
7366724305
7366732178
7366738953
7366750367
7366762879
7366770630
7366779358
7366784851
7366793396
7366800232
7366808533
7366819458
7366825623
7366833130
7366840271
7366847595
7366856995
7366864197
7366872376
7366878479
7366886170
7366894592
7366903564
7366910889
7366919128
7366926025
7366932312
7366938965
7366947937
7366954224
7366963013
7366969849
7366977234
7366984619
7366990600
7367000427
7367007202
7367015869
7367022705
7367030212
7367037597
7367044189
7367053222
7367060424
7367068237
7367074279
7367083374
7367090148
7367096862
7367104736
7367113037
7367118347
7367126708
7367135803
7367141601
7367150878
7367158935
7367165283
7367173095
7367181335
7367188049
7367194091
7367203002
7367212096
7367222106
7367229186
7367237182
7367243041
7367250976
7367258910
7367266418
7367276916
7367286010
7367294677
7367301452
7367307250
7367316100
7367324950
7367337401
7367344359
7367350646
7367359618
7367365233
7367374511
7367381835
7367390380
7367400145
7367406554
7367416197
7367424925
7367432616
7367438841
7367450926
7367459105
7367468565
7367475829
7367484618
7367495177
7367501463
7367509703
7367516966
7367524351
7367532591
7367539793
7367545836
7367554198
7367559996
7367569334
7367577696
7367583983
7367592100
7367600950
7367608092
7367616636
7367624937
7367635313
7367643370
7367652647
7367659727
7367667601
7367673765
7367683714
7367691648
7367698912
7367706907
7367717283
7367723692
7367732359
7367740110
7367745786
7367753172
7367763548
7367773008
7367779112
7367788145
7367796384
7367801878
7367811338
7367817503
7367827390
7367833616
7367840208
7367848081
7367856443
7367862852
7367875303
7367882932
7367893064
7367899473
7367907651
7367916745
7367924924
7367930539
7367941221
7367947812
7367957761
7367968137
7367974302
7367982419
7367988767
7368001950
7368008725
7368017880
7368024106
7368032285
7368036984
7368045773
7368054624
7368064023
7368072324
7368081479
7368091550
7368099118
7368108762
7368127438
7368137387
7368146481
7368153134
7368163571
7368172360
7368182126
7368189145
7368198239
7368204281
7368211972
7368219479
7368226681
7368233578
7368241147
7368248837
7368255978
7368263363
7368270077
7368277645
7368287289
7368293392
7368303097
7368309078
7368316098
7368325131
7368333309
7368340695
7368348202
7368355160
7368364864
7368371700
7368378780
7368387753
7368395687
7368404903
7368413448
7368419430
7368426693
7368435482
7368444576
7368452022
7368457821
7368468563
7368474422
7368481869
7368492122
7368501644
7368509029
7368517452
7368524471
7368531673
7368539364
7368547481
7368555965
7368564083
7368571712
7368580745
7368585994
7368595088
7368604671
7368613765
7368620479
7368628597
7368635372
7368643001
7368652278
7368659786
7368669124
7368676387
7368684566
7368691951
7368699336
7368706599
7368715999
7368725154
7368732356
7368739131
7368746516
7368754756
7368762507
7368772700
7368781672
7368789302
7368797725
7368804011
7368812800
7368820125
7368829707
7368838557
7368849360
7368857661
7368865535
7368874812
7368882441
7368891719
7368900019
7368906489
7368916255
7368922358
7368928889
7368937251
7368946406
7368953120
7368957942
7368965144
7368973872
7368981013
7368987727
7368995905
7369003901
7369011774
7369019709
7369025507
7369034907
7369042170
7369050654
7369059687
7369065790
7369073786
7369080500
7369086970
7369096674
7369104426
7369113337
7369119928
7369127863
7369135920
7369145319
7369153864
7369160517
7369169245
7369178095
7369186701
7369194513
7369203791
7369211969
7369220270
7369228571
7369235834
7369243891
7369254389
7369262262
7369269525
7369275812
7369283807
7369292047
7369300348
7369308893
7369316949
7369325372
7369333795
7369340021
7369347955
7369356378
7369365350
7369375665
7369383966
7369392633
7369398675
7369408380
7369416986
7369424859
7369433526
7369440057
7369450311
7369457269
7369463800
7369470513
7369482293
7369498223
7369504510
7369514642
7369524468
7369532098
7369539300
7369550164
7369560540
7369567193
7369575250
7369581597
7369589776
7369599175
7369604424
7369612298
7369620354
7369627618
7369635247
7369642876
7369653069
7369660699
7369667412
7369673821
7369681206
7369687798
7369696099
7369704217
7369712395
7369718804
7369726799
7369734063
7369742974
7369753228
7369761345
7369768608
7369778923
7369787163
7369797661
7369805596
7369813225
7369821465
7369830010
7369834587
7369843315
7369850639
7369858452
7369866692
7369874199
7369881279
7369887077
7369894646
7369901909
7369908195
7369915092
7369920525
7369926018
7369933159
7369937065
7369943474
7369949882
7369960564
7369966118
7369970817
7369978386
7369984062
7369990471
7369998039
7370004875
7370010978
7370016044
7370022575
7370027946
7370033317
7370041740
7370046928
7370053093
7370059440
7370065849
7370070671
7370078544
7370085319
7370090080
7370095024
7370101066
7370109001
7370114921
7370122856
7370129203
7370136894
7370141960
7370147941
7370156303
7370161613
7370169486
7370175163
7370180045
7370186454
7370191703
7370198417
7370204704
7370210624
7370217826
7370223868
7370229728
7370235099
7370241080
7370246390
7370252128
7370257560
7370263358
7370269279
7370275870
7370281302
7370288321
7370295096
7370300651
7370307486
7370312247
7370320182
7370325553
7370330619
7370337943
7370343375
7370350211
7370356864
7370363578
7370369864
7370376578
7370382621
7370389334
7370395865
7370402152
7370409415
7370416495
7370420889
7370427054
7370435843
7370442069
7370449210
7370454764
7370461722
7370468741
7370476614
7370481863
7370489615
7370493948
7370501944
7370508170
7370515738
7370521780
7370528372
7370535757
7370541128
7370548636
7370554312
7370561270
7370569082
7370575735
7370580801
7370587881
7370593130
7370602041
7370609854
7370615469
7370623343
7370630301
7370637198
7370642141
7370651236
7370659719
7370666189
7370673635
7370681387
7370687551
7370693228
7370699392
7370708120
7370713919
7370720205
7370726309
7370733389
7370741140
7370747732
7370753408
7370760915
7370767507
7370772695
7370779775
7370786916
7370794973
7370800039
7370806326
7370816579
7370822073
7370829214
7370836477
7370843069
7370848928
7370855703
7370862050
7370868581
7370875478
7370883352
7370890554
7370895131
7370902150
7370908620
7370916494
7370924611
7370932607
7370938710
7370946340
7370952504
7370959096
7370966664
7370973012
7370980580
7370986867
7370993520
7371001638
7371009450
7371017507
7371025685
7371033559
7371040029
7371045400
7371054921
7371060964
7371068593
7371076650
7371084096
7371090077
7371096669
7371104115
7371110768
7371118703
7371127125
7371132863
7371139882
7371146046
7371155263
7371163685
7371170765
7371177785
7371185231
7371193104
7371203724
7371211598
7371219349
7371227589
7371235279
7371243092
7371250843
7371257618
7371268421
7371275318
7371282948
7371290150
7371298207
7371305714
7371312062
7371322254
7371329395
7371335926
7371343739
7371351673
7371359425
7371364857
7371375904
7371382740
7371390125
7371397816
7371404835
7371413135
7371420643
7371429371
7371437000
7371444507
7371452259
7371457508
7371464283
7371471180
7371480152
7371488025
7371495594
7371504810
7371509998
7371519458
7371526050
7371534229
7371543445
7371551441
7371557483
7371565479
7371572254
7371580493
7371589405
7371597827
7371605091
7371613147
7371621997
7371630542
7371637683
7371643787
7371652820
7371662036
7371670459
7371677417
7371686084
7371695911
7371701770
7371712451
7371719348
7371726428
7371736377
7371743335
7371751880
7371759265
7371767688
7371776660
7371783862
7371792102
7371800158
7371808947
7371817553
7371825305
7371834765
7371840747
7371849414
7371857043
7371866198
7371875170
7371887255
7371895495
7371904040
7371914660
7371924182
7371932787
7371940966
7371950060
7371956408
7371962756
7371970202
7371978381
7371986681
7371993639
7372002489
7372008532
7372016955
7372023730
7372033434
7372042162
7372048937
7372058520
7372066820
7372072680
7372083849
7372090502
7372098864
7372105944
7372113634
7372123461
7372133898
7372141222
7372148363
7372162096
7372171801
7372178820
7372186815
7372196031
7372203966
7372213487
7372219835
7372228868
7372235338
7372244920
7372252916
7372260729
7372269457
7372277818
7372284105
7372291063
7372300584
7372308763
7372316453
7372325243
7372332628
7372341295
7372350328
7372359178
7372366685
7372374803
7372383409
7372390916
7372396470
7372405198
7372414109
7372422837
7372428880
7372437364
7372446275
7372452317
7372459031
7372465989
7372474412
7372482591
7372490769
7372497849
7372504624
7372515000
7372523362
7372532884
7372539536
7372547471
7372555100
7372560960
7372569871
7372581956
7372591050
7372598618
7372608567
7372615708
7372626328
7372634324
7372643052
7372654648
7372662156
7372668931
7372679307
7372687119
7372694504
7372702195
7372710190
7372717820
7372726487
7372735581
7372742051
7372750779
7372757675
7372766709
7372775681
7372782578
7372790634
7372799668
7372805649
7372815231
7372820908
7372832321
7372839584
7372848496
7372856247
7372864243
7372871872
7372880173
7372888229
7372896286
7372905258
7372913681
7372919907
7372927170
7372936752
7372945053
7372953110
7372962448
7372969467
7372976547
7372983261
7372992111
7372999862
7373007492
7373017624
7373024154
7373032699
7373041000
7373047897
7373056869
7373064132
7373071456
7373079879
7373089035
7373096725
7373102584
7373111251
7373119552
7373129134
7373136337
7373144637
7373152328
7373163070
7373168807
7373177169
7373183944
7373193954
7373201339
7373209151
7373217696
7373227218
7373233504
7373242110
7373251143
7373257186
7373263900
7373274337
7373280929
7373289290
7373296859
7373304183
7373313765
7373321517
7373328902
7373336531
7373347274
7373353133
7373364730
7373369979
7373379073
7373392623
7373401106
7373408980
7373417403
7373427046
7373435225
7373442549
7373450911
7373458601
7373466902
7373473799
7373483260
7373489851
7373497725
7373506087
7373512556
7373523054
7373530318
7373538801
7373545698
7373553877
7373560713
7373568953
7373578230
7373583479
7373593245
7373602461
7373608931
7373617170
7373624800
7373632795
7373640364
7373647322
7373655622
7373663374
7373671736
7373678205
7373688093
7373694746
7373701582
7373711347
7373717512
7373725691
7373736067
7373743574
7373749494
7373757795
7373766157
7373774458
7373782453
7373787519
7373797895
7373804243
7373813886
7373820661
7373828229
7373837812
7373845319
7373851179
7373859662
7373869794
7373876020
7373882551
7373892072
7373900739
7373907697
7373915204
7373923017
7373931134
7373939557
7373949140
7373956525
7373964032
7373970746
7373979230
7373985883
7373993817
7374004010
7374012067
7374018598
7374026349
7374034039
7374041669
7374048627
7374059064
7374067120
7374074384
7374082501
7374089886
7374099103
7374108502
7374115826
7374122357
7374132367
7374140179
7374147259
7374156170
7374165021
7374170025
7374182538
7374191205
7374199383
7374210431
7374218487
7374225689
7374233990
7374240948
7374249920
7374260540
7374266766
7374274517
7374281170
7374288677
7374295757
7374301800
7374310467
7374316387
7374324688
7374333172
7374340618
7374347027
7374354717
7374364422
7374370586
7374379314
7374391216
7374398052
7374406109
7374415325
7374421001
7374429302
7374436077
7374442974
7374451946
7374459209
7374469585
7374476116
7374483379
7374491375
7374497295
7374505230
7374515422
7374522503
7374530193
7374538494
7374543682
7374555095
7374563030
7374569927
7374578105
7374583354
7374593669
7374601238
7374609233
7374617778
7374626994
7374634624
7374642131
7374648784
7374658305
7374663493
7374673564
7374682475
7374691325
7374699382
7374706218
7374712688
7374722270
7374728374
7374738322
7374744609
7374752482
7374761210
7374768840
7374777446
7374786662
7374796000
7374802775
7374809367
7374817790
7374824809
7374831767
7374841593
7374850016
7374858073
7374866862
7374878214
7374886149
7374895609
7374900920
7374912760
7374921244
7374930644
7374936381
7374945353
7374953104
7374961161
7374969523
7374977396
7374985514
7374989359
7375000651
7375008158
7375016337
7375022440
7375029276
7375037150
7375043436
7375051798
7375061442
7375068155
7375076822
7375087137
7375095926
7375103495
7375110819
7375119791
7375126566
7375135050
7375142862
7375151651
7375159098
7375168009
7375177713
7375187174
7375193216
7375201883
7375209451
7375218179
7375226358
7375235391
7375242105
7375248209
7375257547
7375265176
7375272134
7375280801
7375290384
7375297891
7375304910
7375312234
7375319498
7375326394
7375335489
7375344217
7375351602
7375360330
7375368203
7375374856
7375385293
7375393228
7375402810
7375410073
7375418618
7375428933
7375436135
7375447305
7375456460
7375465127
7375472146
7375479653
7375487405
7375494668
7375504739
7375512795
7375520730
7375528848
7375537759
7375543313
7375551858
7375560891
7375573464
7375580727
7375589516
7375596719
7375605996
7375612343
7375621194
7375630898
7375639504
7375646462
7375655129
7375661721
7375671547
7375678933
7375687600
7375693825
7375701149
7375709633
7375716591
7375724404
7375731789
7375742775
7375748513
7375755593
7375763344
7375771096
7375778420
7375788613
7375795754
7375804909
7375811928
7375817848
7375825783
7375835365
7375845009
7375852455
7375860817
7375868263
7375874123
7375883461
7375891518
7375901588
7375907143
7375915565
7375924171
7375930336
7375937050
7375945350
7375954811
7375961708
7375969948
7375981117
7375987953
7375995399
7376004005
7376012062
7376019264
7376026954
7376034156
7376041969
7376049903
7376059913
7376069618
7376076026
7376084083
7376091529
7376099830
7376106727
7376115577
7376123206
7376130897
7376136878
7376143165
7376151221
7376160377
7376168311
7376178077
7376184791
7376193519
7376202552
7376208228
7376217200
7376226356
7376234229
7376239966
7376249915
7376260718
7376267005
7376273658
7376283790
7376293616
7376305884
7376313514
7376322425
7376329322
7376339637
7376349707
7376355078
7376363867
7376369666
7376378455
7376386695
7376394751
7376402381
7376410498
7376417822
7376425452
7376432715
7376440710
7376447302
7376455237
7376462683
7376472327
7376479651
7376488074
7376494360
7376501196
7376508642
7376517737
7376525793
7376534277
7376542395
7376549231
7376559363
7376566748
7376576513
7376586218
7376594519
7376602758
7376610083
7376619116
7376625952
7376634191
7376640295
7376650244
7376656286
7376664099
7376671362
7376681677
7376687719
7376696264
7376705480
7376714697
7376723180
7376731970
7376738622
7376746923
7376755956
7376762548
7376772375
7376781164
7376788183
7376796178
7376804479
7376812353
7376818700
7376827184
7376837011
7376844945
7376853307
7376859166
7376868078
7376876134
7376882848
7376891088
7376901281
7376909520
7376915990
7376923803
7376931310
7376939000
7376947362
7376953527
7376960607
7376970189
7376978490
7376986485
7376993810
7377001683
7377009435
7377017613
7377036473
7377044652
7377053075
7377060338
7377068455
7377077122
7377086034
7377096837
7377105565
7377111912
7377118992
7377125767
7377135289
7377140904
7377148594
7377156834
7377164464
7377172032
7377180394
7377188633
7377196873
7377202916
7377211094
7377219883
7377227452
7377233433
7377239415
7377249241
7377256565
7377266026
7377272801
7377282627
7377291660
7377298313
7377305882
7377312840
7377320774
7377327854
7377333958
7377342014
7377351292
7377359409
7377363499
7377373814
7377379917
7377388645
7377394871
7377403477
7377410862
7377421116
7377427097
7377434299
7377443210
7377449253
7377458286
7377463352
7377474033
7377481113
7377488804
7377494907
7377504428
7377509494
7377517063
7377523288
7377531894
7377538486
7377547824
7377555820
7377563632
7377569675
7377577915
7377584018
7377591403
7377599094
7377607883
7377615390
7377623630
7377630527
7377636264
7377643832
7377651523
7377659457
7377668735
7377674960
7377680942
7377689792
7377695834
7377703219
7377712070
7377721164
7377730502
7377736300
7377744235
7377751864
7377757907
7377766024
7377773105
7377780795
7377789096
7377795382
7377803622
7377811312
7377818942
7377835360
7377849887
7377857089
7377867526
7377875399
7377884982
7377893221
7377902438
7377910494
7377918246
7377925997
7377931979
7377940340
7377946383
7377955660
7377961703
7377970064
7377979220
7377984530
7377993380
7377999666
7378009310
7378017122
7378024203
7378032076
7378039217
7378047457
7378054293
7378060946
7378068758
7378077364
7378083040
7378092073
7378097933
7378107210
7378114962
7378121309
7378129610
7378138399
7378144503
7378152010
7378161104
7378169039
7378175630
7378184053
7378191744
7378200044
7378207735
7378216097
7378222810
7378232759
7378240511
7378249727
7378256441
7378263948
7378273408
7378280550
7378287691
7378294771
7378304353
7378310884
7378320344
7378327852
7378337800
7378344087
7378353792
7378361116
7378368989
7378376313
7378386201
7378391633
7378401765
