6834030661
6834037192
6834042868
6834048911
6834053671
6834059042
6834065024
6834071066
6834077414
6834084494
6834090231
6834096274
6834102865
6834109030
6834116171
6834122580
6834129049
6834135458
6834143210
6834149435
6834155966
6834162802
6834170309
6834178122
6834183127
6834191732
6834198202
6834205587
6834211996
6834219992
6834226705
6834234518
6834240560
6834248068
6834253439
6834262289
6834269796
6834278280
6834290365
6834299398
6834311361
6834322042
6834328756
6834338277
6834346029
6834352316
6834360616
6834368917
6834376424
6834384725
6834391378
6834400228
6834408285
6834414998
6834423421
6834429891
6834436727
6834446004
6834454244
6834462606
6834470601
6834478841
6834486715
6834493123
6834499776
6834506917
6834516927
6834524129
6834534383
6834541524
6834548421
6834556539
6834565572
6834574117
6834582723
6834590596
6834598836
6834605550
6834615132
6834621480
6834628865
6834637898
6834644978
6834651997
6834659749
6834667500
6834675435
6834683736
6834691182
6834699544
6834706502
6834715779
6834723164
6834731221
6834738728
6834747334
6834754536
6834762227
6834771138
6834779072
6834787556
6834795308
6834803730
6834810688
6834817524
6834826680
6834833638
6834841084
6834849507
6834856953
6834865254
6834874653
6834882099
6834889546
6834896504
6834905720
6834912556
6834920124
6834928730
6834938618
6834946491
6834953754
6834962055
6834971210
6834981342
6834988605
6834998310
6835004963
6835013325
6835021625
6835027302
6835035602
6835044269
6835051532
6835059894
6835068927
6835075946
6835082538
6835090046
6835098407
6835105304
6835111713
6835120685
6835127704
6835134479
6835142902
6835150348
6835158832
6835167133
6835173175
6835183368
6835189472
6835196674
6835204913
6835212177
6835217731
6835226703
6835232867
6835244342
6835250446
6835259601
6835266559
6835273883
6835280597
6835289935
6835297992
6835304400
6835313556
6835320514
6835327777
6835336200
6835342730
6835351764
6835359820
6835368182
6835375384
6835381060
6835389361
6835396930
6835404071
6835413165
6835420245
6835426898
6835435992
6835441851
6835448748
6835457171
6835464556
6835472674
6835482379
6835488848
6835497576
6835503863
6835512408
6835519183
6835528094
6835536272
6835544695
6835552630
6835561846
6835569292
6835576861
6835582598
6835591509
6835601336
6835607256
6835616778
6835623308
6835632097
6835639483
6835647356
6835659197
6835665545
6835676043
6835683123
6835692156
6835699663
6835709612
6835727678
6835735430
6835743486
6835750444
6835756365
6835765032
6835773149
6835779924
6835787248
6835794084
6835800249
6835809038
6835815691
6835824419
6835832170
6835838579
6835845781
6835854204
6835861467
6835868059
6835876115
6835884904
6835893144
6835898820
6835906206
6835914445
6835920976
6835929521
6835935991
6835944780
6835953996
6835960283
6835967668
6835976457
6835983720
6835991166
6835998674
6836008012
6836016557
6836023271
6836030290
6836037248
6836044511
6836052323
6836059342
6836068925
6836076493
6836084001
6836090959
6836098832
6836105729
6836113419
6836121171
6836128800
6836136796
6836143998
6836151444
6836157975
6836167008
6836174027
6836182145
6836190324
6836196671
6836205521
6836211564
6836218278
6836226945
6836235550
6836242936
6836252091
6836261612
6836269364
6836276627
6836284195
6836292374
6836298233
6836306534
6836312516
6836320511
6836327652
6836333390
6836344742
6836350785
6836357498
6836365372
6836372269
6836378128
6836384537
6836394547
6836401383
6836409134
6836415787
6836426773
6836432571
6836440811
6836448990
6836455826
6836465897
6836472916
6836479751
6836486893
6836494949
6836501602
6836506668
6836513992
6836522476
6836527603
6836535110
6836541763
6836548233
6836554641
6836562942
6836568069
6836575699
6836581924
6836587295
6836595352
6836602188
6836610122
6836615676
6836621231
6836630508
6836637344
6836644058
6836651504
6836658889
6836664443
6836671707
6836677993
6836685684
6836692214
6836698196
6836705337
6836711379
6836718948
6836725723
6836731399
6836739089
6836744888
6836750137
6836757949
6836764785
6836772842
6836780959
6836788711
6836795058
6836801772
6836810561
6836817397
6836826125
6836832717
6836841201
6836847670
6836855666
6836863723
6836872023
6836877883
6836885878
6836893203
6836900222
6836906935
6836916213
6836924758
6836930190
6836937331
6836945571
6836952468
6836959365
6836969618
6836975844
6836985304
6836990370
6837000136
6837007826
6837014357
6837021559
6837031508
6837039565
6837046095
6837054396
6837063429
6837070753
6837076796
6837084730
6837091078
6837099074
6837104628
6837113844
6837122938
6837130690
6837138136
6837144301
6837152968
6837160719
6837167799
6837175245
6837182875
6837190931
6837197584
6837207228
6837215406
6837222486
6837229017
6837236708
6837245252
6837252027
6837258497
6837266248
6837273084
6837282179
6837289869
6837296705
6837303846
6837311353
6837318678
6837327772
6837335096
6837343763
6837350538
6837357374
6837365003
6837373426
6837380384
6837389051
6837395948
6837402112
6837411573
6837418836
6837426343
6837433362
6837441724
6837450452
6837456556
6837463208
6837471082
6837480603
6837489637
6837496289
6837504712
6837512403
6837520398
6837529920
6837537671
6837545239
6837551770
6837560132
6837567822
6837576184
6837583264
6837591443
6837599988
6837605237
6837614758
6837622144
6837629651
6837637158
6837647168
6837653821
6837663403
6837671704
6837679089
6837686291
6837694409
6837702771
6837711011
6837718823
6837726941
6837735669
6837741955
6837751111
6837759167
6837765637
6837772595
6837783825
6837792553
6837800915
6837807385
6837818493
6837826428
6837834423
6837841564
6837850231
6837858776
6837866406
6837872997
6837880505
6837888195
6837895702
6837903515
6837911144
6837917797
6837925182
6837931408
6837940502
6837946423
6837953625
6837962536
6837968273
6837979992
6837984569
6837993542
6838000805
6838009472
6838016125
6838023021
6838031200
6838038402
6838046215
6838053112
6838059093
6838068798
6838075878
6838083629
6838090831
6838098400
6838107128
6838114696
6838121898
6838129833
6838138256
6838143810
6838149791
6838160045
6838168651
6838176463
6838183605
6838191295
6838197215
6838205089
6838211437
6838220042
6838229808
6838237071
6838244517
6838250743
6838261241
6838267222
6838275462
6838283885
6838292369
6838302318
6838308543
6838316112
6838324351
6838331004
6838340281
6838347056
6838355540
6838362986
6838370250
6838379832
6838387156
6838394542
6838401072
6838411631
6838418162
6838426585
6838434214
6838442393
6838451121
6838459544
6838466013
6838472239
6838481822
6838490611
6838498362
6838505869
6838515452
6838523020
6838530772
6838539133
6838546580
6838553843
6838562144
6838569590
6838577830
6838584360
6838595713
6838602976
6838612131
6838619211
6838629160
6838637644
6838651865
6838658823
6838667368
6838674692
6838682322
6838689646
6838697214
6838705637
6838713205
6838719797
6838727304
6838733408
6838741892
6838748117
6838755625
6838764414
6838773508
6838779367
6838785898
6838794809
6838802560
6838809457
6838817453
6838826425
6838833688
6838840646
6838846933
6838856454
6838864023
6838870920
6838878366
6838886239
6838895578
6838902536
6838909738
6838917306
6838923837
6838931405
6838940133
6838947946
6838955941
6838964120
6838970712
6838979135
6838985849
6838994271
6839003976
6839010263
6839017770
6839027597
6839037423
6839044442
6839051888
6839058663
6839066842
6839075814
6839084054
6839091561
6839099801
6839106698
6839114877
6839121590
6839131600
6839138070
6839147408
6839157906
6839162911
6839172616
6839180001
6839187508
6839194039
6839204537
6839209847
6839220894
6839228951
6839237130
6839245003
6839253365
6839260811
6839268563
6839276619
6839284859
6839291695
6839299813
6839307625
6839316170
6839323677
6839331307
6839336678
6839347542
6839354378
6839362312
6839371712
6839379036
6839385628
6839393868
6839401985
6839410957
6839419991
6839432869
6839443428
6839450081
6839459907
6839466438
6839474068
6839484138
6839491463
6839498176
6839505928
6839513069
6839521248
6839530708
6839537605
6839546577
6839553840
6839560798
6839568977
6839575813
6839582405
6839589973
6839597236
6839606880
6839614570
6839622322
6839630195
6839638252
6839645454
6839653266
6839659797
6839667671
6839674323
6839683296
6839689155
6839697212
6839704170
6839711677
6839720649
6839727912
6839734809
6839743476
6839749946
6839757148
6839765937
6839771674
6839780524
6839789069
6839796149
6839804450
6839813544
6839819282
6839828376
6839835151
6839842109
6839849799
6839857184
6839864875
6839873175
6839880622
6839888983
6839897711
6839906012
6839913153
6839921576
6839928717
6839938544
6839945014
6839951850
6839961432
6839969672
6839977301
6839984015
6839992194
6840001715
6840007636
6840016791
6840025030
6840032538
6840040839
6840047491
6840056402
6840063055
6840073492
6840079840
6840088690
6840096136
6840104437
6840112005
6840119085
6840127447
6840134588
6840142828
6840151434
6840159613
6840167486
6840175909
6840182562
6840189947
6840197760
6840207159
6840214544
6840220831
6840229986
6840240057
6840248419
6840256109
6840265630
6840276922
6840285589
6840292852
6840302618
6840308477
6840317388
6840324956
6840334173
6840341619
6840348516
6840355657
6840362676
6840371465
6840378301
6840385015
6840392766
6840400396
6840410039
6840416692
6840424260
6840431951
6840439641
6840447454
6840455816
6840464544
6840472051
6840478154
6840485845
6840494268
6840501775
6840505803
6840515935
6840522161
6840529485
6840538396
6840543767
6840552556
6840558904
6840567693
6840573430
6840583318
6840588628
6840599065
6840604924
6840613286
6840621465
6840629887
6840637028
6840646062
6840655156
6840660222
6840670293
6840677922
6840685368
6840691960
6840702336
6840708317
6840718693
6840725590
6840734196
6840741032
6840749333
6840758244
6840766423
6840774479
6840780583
6840787236
6840795964
6840803715
6840814945
6840821598
6840830021
6840837773
6840844181
6840854801
6840862675
6840870304
6840877506
6840886051
6840895390
6840901554
6840910831
6840917240
6840927189
6840932194
6840941837
6840948429
6840958012
6840966495
6840974125
6840980289
6840988773
6840997806
6841006046
6841014103
6841020511
6841027164
6841037723
6841044315
6841051944
6841062564
6841075687
6841081974
6841093631
6841105960
6841113529
6841124759
6841132938
6841141300
6841147952
6841156925
6841163883
6841172977
6841179263
6841188358
6841194461
6841203433
6841210696
6841217899
6841224857
6841232547
6841239749
6841247439
6841255557
6841263248
6841271487
6841279971
6841286685
6841294436
6841302005
6841309695
6841317264
6841325015
6841331118
6841337954
6841346865
6841354617
6841360659
6841368411
6841375552
6841383548
6841392886
6841398501
6841406741
6841416262
6841424014
6841431765
6841440066
6841449832
6841455996
6841462649
6841472537
6841478884
6841489260
6841499697
6841507693
6841515444
6841522951
6841530764
6841538027
6841542116
6841551699
6841557619
6841566836
6841573916
6841582827
6841591189
6841599978
6841610232
6841618960
6841627077
6841635317
6841643251
6841651308
6841658083
6841666994
6841673525
6841681398
6841691164
6841697573
6841708132
6841714662
6841724245
6841731508
6841739015
6841747316
6841754946
6841762392
6841772646
6841781313
6841789003
6841797487
6841805177
6841811830
6841820253
6841827882
6841836061
6841844545
6841852724
6841861452
6841868776
6841875978
6841886659
6841894044
6841901552
6841913759
6841926698
6841934388
6841942872
6841949525
6841957521
6841966615
6841972901
6841981752
6841989442
6841996034
6842003602
6842012147
6842017152
6842026246
6842033021
6842040162
6842048036
6842056947
6842062989
6842072144
6842079408
6842086488
6842093201
6842101441
6842110657
6842117738
6842124329
6842132081
6842139771
6842147278
6842154420
6842162171
6842169129
6842176758
6842185364
6842190186
6842199158
6842205201
6842214173
6842220276
6842229859
6842239441
6842245484
6842253724
6842260682
6842268616
6842275696
6842283509
6842291260
6842300415
6842308167
6842316468
6842324707
6842331726
6842340027
6842346924
6842355347
6842365784
6842371155
6842378662
6842387329
6842397034
6842404602
6842412170
6842420593
6842428223
6842434509
6842444946
6842451111
6842459473
6842467651
6842476013
6842483520
6842491760
6842498535
6842505737
6842515197
6842521240
6842531128
6842538269
6842545959
6842553161
6842561767
6842570007
6842578430
6842582824
6842593933
6842600646
6842610107
6842616699
6842624145
6842634704
6842643432
6842649841
6842658447
6842668212
6842674926
6842685180
6842695800
6842702453
6842712646
6842723144
6842734252
6842743713
6842752929
6842760680
6842769713
6842781432
6842788512
6842796935
6842804076
6842810607
6842820128
6842827941
6842835814
6842843627
6842850890
6842858397
6842867186
6842872924
6842881530
6842886412
6842896849
6842904601
6842911376
6842919615
6842927550
6842934691
6842943785
6842949400
6842958922
6842966795
6842974120
6842981322
6842990355
6842996703
6843005370
6843013670
6843020018
6843027586
6843034483
6843041991
6843050658
6843058043
6843063963
6843071104
6843078795
6843088682
6843096129
6843104124
6843111265
6843118712
6843128355
6843136717
6843143492
6843152342
6843161375
6843167906
6843177305
6843186155
6843194395
6843205259
6843213682
6843222837
6843229490
6843237364
6843246641
6843254575
6843261778
6843271299
6843278928
6843288084
6843293760
6843303526
6843311338
6843319212
6843328550
6843336668
6843343137
6843350828
6843359312
6843367673
6843377683
6843384763
6843392698
6843400083
6843407407
6843414914
6843422666
6843432431
6843439817
6843448301
6843457090
6843462949
6843471616
6843482236
6843489255
6843498349
6843509885
6843521665
6843526669
6843538083
6843542355
6843552182
6843562253
6843568723
6843577695
6843586728
6843592770
6843600339
6843607968
6843617367
6843625607
6843631589
6843640561
6843646969
6843654660
6843663693
6843670407
6843677914
6843685299
6843694394
6843702145
6843709225
6843714962
6843724484
6843729672
6843739499
6843748837
6843755673
6843762020
6843769772
6843777767
6843785580
6843792782
6843800839
6843808834
6843816342
6843824886
6843830746
6843836910
6843846066
6843852718
6843860958
6843870907
6843877010
6843886593
6843894344
6843902035
6843908749
6843916927
6843924007
6843934749
6843941891
6843950497
6843959041
6843967342
6843975521
6843981685
6843988216
6843998714
6844005550
6844013241
6844023067
6844029659
6844037349
6844046688
6844054256
6844060298
6844071163
6844080501
6844091487
6844099422
6844107662
6844116329
6844122493
6844132198
6844140682
6844149776
6844157649
6844164974
6844173091
6844180476
6844188716
6844195979
6844204341
6844214107
6844222041
6844229488
6844237544
6844243892
6844253840
6844259944
6844268611
6844277217
6844287166
6844296565
6844307185
6844313350
6844321894
6844330684
6844339412
6844350459
6844357966
6844365840
6844372798
6844381221
6844388240
6844394282
6844404109
6844409663
6844419245
6844426997
6844434748
6844441706
6844449397
6844453486
6844463496
6844469660
6844478266
6844484309
6844493952
6844500422
6844507136
6844516352
6844523920
6844531611
6844539484
6844546442
6844554682
6844561823
6844568354
6844576227
6844584406
6844592157
6844598810
6844606623
6844614130
6844621943
6844629694
6844637812
6844644648
6844651728
6844659296
6844668756
6844676386
6844687616
6844694330
6844702753
6844710138
6844718622
6844726373
6844733820
6844741998
6844749689
6844758051
6844767084
6844775507
6844783319
6844789484
6844799310
6844807611
6844814325
6844823236
6844830072
6844838495
6844846063
6844855035
6844862787
6844871637
6844879083
6844886285
6844894769
6844902826
6844911187
6844918390
6844926934
6844936334
6844942437
6844951715
6844957086
6844966851
6844973077
6844982659
6844988458
6844999017
6845004693
6845015130
6845022515
6845030816
6845037713
6845046136
6845053033
6845061211
6845070977
6845079339
6845085809
6845094048
6845103936
6845110100
6845118340
6845125725
6845136956
6845144280
6845152825
6845164116
6845173333
6845181878
6845190728
6845195672
6845204766
6845213494
6845219475
6845226738
6845235649
6845241631
6845250603
6845257012
6845263970
6845273308
6845280205
6845287590
6845295342
6845303337
6845311089
6845318169
6845325981
6845333672
6845341179
6845349053
6845356682
6845365959
6845371819
6845380791
6845385612
6845394768
6845401237
6845410210
6845416069
6845424980
6845432426
6845439384
6845445671
6845455314
6845462578
6845469719
6845476860
6845485344
6845493828
6845502067
6845508842
6845517387
6845527031
6845535392
6845543266
6845552238
6845558891
6845566703
6845576347
6845582817
6845593009
6845600334
6845608024
6845614616
6845623039
6845632377
6845640800
6845647941
6845656425
6845665214
6845673515
6845680717
6845689017
6845695487
6845703117
6845712882
6845718070
6845728263
6845736503
6845744010
6845752921
6845760428
6845766715
6845776969
6845783927
6845792289
6845799857
6845808036
6845814811
6845824271
6845830863
6845838736
6845848685
6845853751
6845864554
6845872061
6845881949
6845889334
6845896964
6845903617
6845912039
6845921011
6845929129
6845943472
6845950980
6845960562
6845967703
6845977957
6845984854
6845994253
6846000906
6846008475
6846016470
6846022452
6846030203
6846037649
6846042166
6846048636
6846056631
6846062002
6846069327
6846075369
6846081778
6846087881
6846092642
6846100638
6846109060
6846115103
6846121267
6846127432
6846133902
6846140005
6846147329
6846153555
6846158926
6846166494
6846171682
6846177908
6846184866
6846191030
6846196340
6846204031
6846209341
6846217031
6846222280
6846228384
6846235708
6846241201
6846246450
6846254263
6846259206
6846266775
6846272634
6846279714
6846285146
6846291738
6846296865
6846303335
6846308950
6846315664
6846321401
6846326833
6846333791
6846338186
6846346731
6846351369
6846357778
6846364126
6846370595
6846375905
6846381887
6846387624
6846393361
6846400136
6846405019
6846411489
6846418630
6846423452
6846430532
6846437673
6846443959
6846449391
6846455434
6846460500
6846466176
6846473867
6846480275
6846486928
6846491872
6846498403
6846504445
6846511281
6846518483
6846525197
6846530751
6846536672
6846543813
6846549489
6846557179
6846563954
6846571645
6846578053
6846585133
6846591908
6846598561
6846604848
6846611256
6846618642
6846624684
6846631398
6846636708
6846644093
6846649830
6846657216
6846663380
6846671315
6846677601
6846685414
6846691700
6846698719
6846705128
6846711842
6846721363
6846726551
6846734181
6846740345
6846748890
6846755360
6846762257
6846768544
6846775685
6846781910
6846788929
6846795216
6846802479
6846808155
6846814381
6846823231
6846828358
6846836231
6846842152
6846849537
6846855518
6846863331
6846869068
6846877125
6846884632
6846892872
6846899403
6846907459
6846913196
6846920521
6846928821
6846934742
6846940662
6846948536
6846956104
6846962574
6846968799
6846976917
6846983020
6846989368
6846995594
6847003589
6847008594
6847016590
6847022693
6847029163
6847036914
6847042652
6847048267
6847056262
6847061817
6847069934
6847075855
6847083301
6847089343
6847096790
6847102771
6847108569
6847116138
6847122058
6847129566
6847135425
6847141528
6847148914
6847154590
6847161975
6847169604
6847175098
6847182178
6847192065
6847199084
6847204700
6847213489
6847221423
6847228564
6847235705
6847242663
6847251697
6847258960
6847266772
6847274157
6847280749
6847285876
6847294543
6847303454
6847311267
6847316394
6847324328
6847329760
6847337695
6847343127
6847349414
6847357287
6847362902
6847369433
6847377123
6847383105
6847390429
6847396350
6847402392
6847409106
6847416979
6847424426
6847430895
6847437975
6847446215
6847452685
6847460864
6847465868
6847473925
6847480090
6847488085
6847496142
6847501696
6847508715
6847517321
6847523607
6847529833
6847536303
6847544359
6847551012
6847559252
6847566332
6847576281
6847583483
6847590502
6847597521
6847606493
6847613878
6847620897
6847628832
6847635973
6847643236
6847650865
6847657701
6847665514
6847673204
6847681017
6847688585
6847696214
6847702806
6847710497
6847719347
6847727281
6847733812
6847741380
6847747545
6847754320
6847805833
6847819810
6847828966
6847839097
6847847398
6847854478
6847862474
6847870347
6847877122
6847884263
6847891404
6847900438
6847908250
6847915147
6847921861
6847928453
6847936326
6847944017
6847952012
6847959092
6847967149
6847974778
6847981919
6847988145
6847997849
6848005479
6848010667
6848019151
6848025987
6848033616
6848040879
6848048325
6848055405
6848062791
6848069749
6848077256
6848084092
6848087754
6848096543
6848102036
6848110886
6848118149
6848125168
6848134751
6848141953
6848148301
6848155198
6848162583
6848169663
6848177414
6848184800
6848191513
6848199143
6848207627
6848215256
6848222153
6848229966
6848236130
6848243332
6848251145
6848259201
6848267929
6848273422
6848282334
6848289719
6848298813
6848303757
6848313522
6848319748
6848327377
6848333725
6848343674
6848350632
6848358139
6848364243
6848371811
6848380966
6848388657
6848396286
6848403732
6848409714
6848417282
6848423263
6848431015
6848439804
6848448166
6848456894
6848464584
6848470688
6848479110
6848485214
6848492843
6848502609
6848511459
6848517501
6848524643
6848533554
6848538681
6848547103
6848555465
6848561874
6848569015
6848576461
6848584640
6848594589
6848601241
6848610336
6848617904
6848625228
6848634689
6848642013
6848648788
6848657272
6848665084
6848673263
6848681075
6848689315
6848702315
6848710128
6848723067
6848736556
6848744369
6848753829
6848763778
6848769881
6848778548
6848786300
6848792464
6848800704
6848806685
6848816207
6848822921
6848830245
6848839217
6848847945
6848854048
6848861556
6848868514
6848876692
6848883711
6848891585
6848898482
6848905379
6848913069
6848922347
6848930098
6848936751
6848944380
6848953780
6848959273
6848968306
6848974043
6848983443
6848991743
6848999129
6849004011
6849016646
6849024458
6849030562
6849038435
6849047468
6849052168
6849059065
6849067732
6849077131
6849084395
6849090254
6849097456
6849106794
6849114607
6849120710
6849129560
6849135847
6849143537
6849152388
6849158186
6849167768
6849174787
6849182417
6849190534
6849198957
6849207075
6849215315
6849223127
6849229231
6849235700
6849245588
6849252058
6849260358
6849271284
6849280866
6849287336
6849294843
6849302350
6849310163
6849319929
6849326703
6849334699
6849343061
6849352521
6849359723
6849367353
6849375348
6849382795
6849390302
6849401349
6849407514
6849417401
6849424726
6849431928
6849439252
6849448590
6849455792
6849463910
6849475385
6849481915
6849489179
6849498517
6849504437
6849515363
6849523236
6849534100
6849549298
6849556989
6849564679
6849573224
6849580548
6849588299
6849595990
6849602154
6849611737
6849618268
6849625897
6849632245
6849640057
6849645917
6849654828
6849664410
6849672162
6849680340
6849687970
6849695782
6849703289
6849709454
6849716351
6849727520
6849735028
6849742840
6849751141
6849757122
6849766278
6849772198
6849780865
6849787090
6849796917
6849803021
6849811077
6849818096
6849825237
6849834209
6849840984
6849848858
6849856609
6849865398
6849871075
6849878765
6849885906
6849893474
6849901592
6849909344
6849917888
6849925640
6849931865
6849939495
6849947857
6849955425
6849961956
6849969707
6849979473
6849987041
6849993694
6850001628
6850009929
6850017620
6850024089
6850032756
6850039470
6850049907
6850056316
6850064678
6850072124
6850078960
6850087383
6850096172
6850104472
6850111430
6850119609
6850128337
6850136638
6850143840
6850152019
6850158733
6850166606
6850175029
6850182475
6850191997
6850199443
6850206950
6850214091
6850222514
6850229899
6850238200
6850248027
6850256267
6850263163
6850271525
6850278361
6850286174
6850294352
6850302592
6850311442
6850321940
6850331462
6850340129
6850349162
6850358378
6850365458
6850376322
6850388346
6850395304
6850403971
6850412455
6850420207
6850426310
6850434489
6850444559
6850452250
6850458170
6850467326
6850473368
6850481119
6850488200
6850495951
6850503336
6850512675
6850519633
6850527933
6850534769
6850540995
6850550699
6850558146
6850565226
6850571878
6850579691
6850588236
6850594034
6850603250
6850609049
6850617105
6850624735
6850631143
6850638285
6850647196
6850654825
6850660929
6850668619
6850677591
6850683939
6850693277
6850700052
6850707132
6850715494
6850722635
6850729227
6850736612
6850745889
6850754312
6850762552
6850768655
6850777872
6850786417
6850793008
6850801370
6850808206
6850816202
6850825845
6850832376
6850840066
6850846841
6850857156
6850864297
6850872720
6850880471
6850888955
6850897073
6850902383
6850912088
6850920388
6850926858
6850934304
6850941995
6850949441
6850960671
6850968789
6850978433
6850985818
6850994180
6851001016
6851009316
6851016580
6851024941
6851034463
6851040688
6851049538
6851057656
6851064370
6851072304
6851079812
6851088235
6851096169
6851105874
6851113503
6851121804
6851129494
6851136147
6851145302
6851152993
6851164345
6851182412
6851189614
6851199257
6851207680
6851215615
6851222267
6851232521
6851239846
6851246865
6851253456
6851261269
6851269386
6851276894
6851285195
6851292824
6851299477
6851306984
6851315712
6851321632
6851330055
6851337441
6851344887
6851352333
6851359230
6851368507
6851376442
6851380897
6851388832
6851395241
6851401710
6851409279
6851416420
6851424721
6851435585
6851443947
6851450782
6851460914
6851468055
6851475685
6851485084
6851490821
6851500160
6851506568
6851515174
6851522926
6851529029
6851535926
6851544960
6851551185
6851560829
6851569374
6851577003
6851584876
6851592262
6851599586
6851608009
6851615089
6851623389
6851633643
6851641944
6851646583
6851657142
6851663551
6851673438
6851681373
6851691016
6851697669
6851705482
6851715064
6851722144
6851729529
6851737891
6851745582
6851755286
6851762793
6851770545
6851778235
6851784888
6851793006
6851800513
6851808936
6851819556
6851827857
6851835608
6851843909
6851850440
6851857886
6851865576
6851873999
6851881812
6851889258
6851899146
6851906531
6851914099
6851922705
6851930273
6851937415
6851945959
6851955420
6851961462
6851970251
6851979529
6851986548
6851997961
6852004919
6852014136
6852020788
6852032934
6852040197
6852048132
6852056677
6852062353
6852071386
6852079138
6852086401
6852093969
6852102026
6852109594
6852115759
6852123327
6852129797
6852137731
6852147009
6852155310
6852163671
6852171179
6852177099
6852185278
6852194250
6852199560
6852208715
6852216833
6852223669
6852232092
6852238988
6852244604
6852254308
6852259618
6852270055
6852277135
6852284826
6852292699
6852298376
6852307348
6852315099
6852319127
6852328588
6852334569
6852344762
6852350866
6852359227
6852365819
6852374303
6852383886
6852391759
6852399999
6852408422
6852415990
6852422765
6852431127
6852438817
6852447118
6852455846
6852464086
6852472997
6852481114
6852488500
6852496861
6852503453
6852510045
6852519933
6852527928
6852535558
6852542577
6852550999
6852558507
6852566930
6852575474
6852584202
6852593480
6852600072
6852612034
6852620518
6852628087
6852634190
6852643528
6852651890
6852658299
6852664952
6852675633
6852683262
6852690647
6852699986
6852707676
6852714573
6852723118
6852731297
6852740147
6852747654
6852755650
6852763951
6852772434
6852779759
6852788059
6852795384
6852803013
6852814182
6852823704
6852829990
6852837925
6852848057
6852854710
6852864658
6852871555
6852881748
6852887546
6852896458
6852904026
6852910984
6852918064
6852925693
6852932651
6852942783
6852951816
6852958896
6852964573
6852974338
6852979770
6852987705
6852995395
6853003086
6853012241
6853020053
6853028232
6853035984
6853042392
6853050144
6853058628
6853064487
6853073947
6853079624
6853088840
6853094821
6853103427
6853111301
6853117404
6853124545
6853134067
6853143466
6853149570
6853158603
6853164767
6853173862
6853179904
6853188205
6853196750
6853205356
6853215121
6853221896
6853228915
6853236911
6853243747
6853250766
6853258944
6853266818
6853275302
6853284701
6853291598
6853298617
6853306369
6853310458
6853320040
6853328524
6853336520
6853342440
6853353366
6853357516
6853367159
6853373080
6853382967
6853389437
6853398715
6853404879
6853416048
6853424593
6853434725
6853440035
6853450960
6853459505
6853466769
6853473055
6853483187
6853488863
6853498812
6853504061
6853512545
6853521517
6853529085
6853537874
6853545321
6853552828
6853560579
6853570040
6853577425
6853585665
6853594027
6853601534
6853610506
6853619234
6853628328
6853637300
6853645601
6853654390
6853662386
6853671114
6853678804
6853685884
6853693697
6853699678
6853708894
6853715974
6853725130
6853731477
6853740266
6853749727
6853754793
6853764619
6853772554
6853779512
6853787324
6853796358
6853802705
6853811738
6853819368
6853826936
6853834382
6853841523
6853848054
6853857759
6853865022
6853872041
6853877961
6853885774
6853894563
6853902314
6853909700
6853917329
6853926606
6853932954
6853945100
6853955171
6853959504
6853969087
6853975556
6853985505
6853991547
6854001191
6854007417
6854015046
6854024140
6854029938
6854040803
6854050629
6854056794
6854064057
6854073762
6854080598
6854088166
6854097077
6854104706
6854110810
6854119111
6854128632
6854134675
6854144196
6854152680
6854159333
6854168122
6854174958
6854183319
6854190949
6854198090
6854206391
6854214325
6854222626
6854230866
6854241730
6854249420
6854257904
6854262299
6854272675
6854281647
6854290314
6854298065
6854303192
6854315155
6854323334
6854332001
6854337128
6854347076
6854353851
6854363434
6854369659
6854380340
6854387604
6854397430
6854403229
6854413666
6854419403
6854427887
6854436737
6854445465
6854454864
6854462982
6854471832
6854480194
6854487518
6854496002
6854502288
6854510162
6854519866
6854527374
6854533416
6854540313
6854549285
6854555694
6854564788
6854570770
6854580047
6854586273
6854595062
6854602752
6854609954
6854617461
6854624602
6854630523
6854640411
6854649505
6854658843
6854665374
6854672881
6854679534
6854689239
6854695586
6854703582
6854711028
6854718902
6854726714
6854734588
6854742278
6854750518
6854759063
6854764251
6854773894
6854782622
6854789092
6854797393
6854807097
6854814421
6854821929
6854829436
6854837798
6854848296
6854855742
6854862700
6854870940
6854878630
6854886992
6854895964
6854904570
6854912199
6854920683
6854930205
6854936430
6854946257
6854952666
6854959379
6854967802
6854978300
6854985625
6854993193
6855001982
6855009977
6855017912
6855027617
6855035307
6855042814
6855050077
6855058500
6855066374
6855074858
6855083891
6855091886
6855098478
6855107145
6855115812
6855123869
6855132047
6855140287
6855147062
6855155058
6855161955
6855169950
6855178922
6855186857
6855194181
6855203031
6855210416
6855219267
6855227628
6855238493
6855246122
6855254789
6855264371
6855273466
6855281278
6855290800
6855295621
6855307462
6855316434
6855324857
6855334562
6855340848
6855349210
6855356717
6855362882
6855371305
6855377652
6855385465
6855394620
6855400724
6855409574
6855415738
6855424527
6855431424
6855438748
6855445950
6855455960
6855462796
6855469693
6855476285
6855486417
6855492642
6855500638
6855507657
6855515591
6855522488
6855529691
6855537076
6855544095
6855550259
6855559598
6855566861
6855574612
6855581204
6855590298
6855596280
6855603360
6855610318
6855620450
6855627285
6855636136
6855643338
6855650845
6855658780
6855667508
6855673672
6855682827
6855689785
6855698880
6855706448
6855712857
6855720120
6855727566
6855737576
6855744900
6855753201
6855763332
6855769985
6855779507
6855788235
6855795437
6855803921
6855814297
6855822048
6855828335
6855838711
6855845791
6855854031
6855862453
6855870144
6855879909
6855886684
6855898342
6855904629
6855914089
6855920620
6855931301
6855940944
6855949367
6855956081
6855963344
6855971889
6855979030
6855986049
6855993984
6856001125
6856008022
6856016262
6856022670
6856034267
6856042140
6856050441
6856058376
6856066554
6856074611
6856081691
6856090968
6856097926
6856106288
6856112575
6856119594
6856128505
6856134547
6856141627
6856149379
6856155543
6856163295
6856170924
6856177150
6856185206
6856192470
6856198573
6856206263
6856214015
6856219874
6856226405
6856233241
6856240748
6856246913
6856252650
6856257899
6856265223
6856272547
6856278529
6856284083
6856289210
6856296412
6856303675
6856309230
6856316432
6856322413
6856326502
6856334315
6856339564
6856344752
6856351527
6856358119
6856363612
6856369715
6856374842
6856382655
6856388392
6856394556
6856401759
6856407374
6856414210
6856421046
6856426478
6856435145
6856440699
6856446436
6856452906
6856458582
6856465296
6856471033
6856476710
6856483973
6856489222
6856495447
6856500757
6856507105
6856511377
6856517908
6856526087
6856531458
6856537256
6856544214
6856550013
6856556177
6856562464
6856568567
6856576441
6856582972
6856590906
6856597681
6856602747
6856610376
6856620508
6856626917
6856634546
6856640466
6856648035
6856653406
6856658899
6856666162
6856673120
6856678125
6856686121
6856690942
6856698328
6856704004
6856709863
6856717249
6856724817
6856729089
6856736413
6856741846
6856748743
6856755640
6856761316
6856769189
6856774866
6856781152
6856788049
6856793481
6856800317
6856804773
6856812280
6856817956
6856825647
6856831506
6856837976
6856843774
6856848352
6856855676
6856863000
6856869287
6856875268
6856881250
6856887780
6856894677
6856901818
6856908288
6856919641
6856925195
6856931970
6856938683
6856943932
6856949243
6856955651
6856964745
6856971032
6856976403
6856983727
6856986779
6856996056
6857002038
6857008263
6857014550
6857023766
6857029809
6857035485
6857042870
6857048180
6857054040
6857062035
6857067406
6857074975
6857082177
6857086999
6857094079
6857100731
6857106774
6857113671
6857119774
6857124230
6857132897
6857139611
6857146569
6857149865
6857157982
6857166588
6857173363
6857180870
6857187462
6857192894
6857199303
6857204491
6857213829
6857223839
6857231041
6857238976
6857245690
6857252586
6857259728
6857267052
6857276268
6857282555
6857289879
6857294518
6857302025
6857307640
6857315147
6857321617
6857328453
6857336815
6857342064
6857348839
6857356590
6857361168
6857368736
6857375023
6857383201
6857390709
6857396202
6857404381
6857409446
6857416404
6857424583
6857431175
6857439598
6857446373
6857453331
6857459983
6857465904
6857472679
6857479087
6857486839
6857495018
6857502342
6857510032
6857517173
6857524253
6857533164
6857538474
6857548972
6857556785
6857563743
6857570945
6857577354
6857583335
6857592124
6857597434
6857604942
6857613242
6857620872
6857627586
6857635215
6857642539
6857649558
6857656699
6857664145
6857671714
6857679038
6857685996
6857692832
6857699790
6857706992
6857713096
6857719993
6857726157
6857734885
6857742759
6857749839
6857755454
6857764060
6857769614
6857777610
6857784018
6857793479
6857799277
6857807639
6857813620
6857821433
6857828391
6857835166
6857843772
6857851401
6857861411
6857866904
6857874594
6857883322
6857888876
6857896445
6857904257
6857913596
6857921530
6857928610
6857937338
6857944479
6857952475
6857957602
6857967489
6857977926
6857986410
6857994833
6858002829
6858009176
6858016073
6858023520
6858030478
6858039694
6858047079
6858053122
6858060263
6858067831
6858073080
6858081198
6858087423
6858096640
6858104452
6858112081
6858119894
6858126852
6858138510
6858143087
6858155294
6858162008
6858170004
6858177511
6858184652
6858191549
6858198507
6858205709
6858213277
6858221212
6858228902
6858235738
6858242879
6858249105
6858257772
6858266073
6858274068
6858278890
6858288595
6858298116
6858304342
6858314290
6858320516
6858326864
6858336507
6858343892
6858353231
6858359761
6858369222
6858377706
6858386129
6858392720
6858399739
6858409383
6858419454
6858428548
6858436543
6858443379
6858451558
6858459859
6858468343
6858475850
6858484456
6858492757
6858500935
6858510762
6858520100
6858528950
6858536519
6858545979
6858552815
6858561970
6858569539
6858575764
6858584553
6858593953
6858602376
6858610249
6858619221
6858628193
6858635212
6858643696
6858651204
6858658528
6858667500
6858676716
6858684834
6858690937
6858698689
6858708882
6858718037
6858726826
6858734577
6858744892
6858752827
6858760334
6858767414
6858778095
6858785725
6858795002
6858801960
6858811115
6858818561
6858825581
6858834003
6858841022
6858848530
6858857258
6858864948
6858872028
6858879780
6858886921
6858894733
6858903888
6858911274
6858918293
6858925495
6858935260
6858940693
6858948627
6858956195
6858964008
6858973163
6858980976
6858987018
6858995014
6859003559
6859009357
6859017780
6859025836
6859031818
6859041339
6859047382
6859056598
6859062824
6859069659
6859078754
6859086017
6859093402
6859101642
6859110431
6859117389
6859124530
6859130572
6859140277
6859148089
6859155658
6859163226
6859171588
6859179156
6859187884
6859194659
6859203082
6859209613
6859219317
6859229083
6859234210
6859244220
6859250811
6859260638
6859267901
6859275347
6859283892
6859291705
6859299639
6859308062
6859315325
6859323565
6859332354
6859338702
6859345294
6859355425
6859361956
6859372454
6859378985
6859387408
6859397173
6859404620
6859412249
6859421282
6859429339
6859436663
6859444964
6859453387
6859461687
6859468279
6859476580
6859483294
6859493425
6859500933
6859511492
6859518023
6859529558
6859536821
6859546953
6859554094
6859562822
6859571123
6859586260
6859595537
6859602800
6859611894
6859618913
6859626299
6859635271
6859643022
6859649980
6859657610
6859664812
6859672746
6859679704
6859686052
6859695879
6859701738
6859711565
6859718828
6859726457
6859733781
6859741655
6859745927
6859758989
6859766374
6859774003
6859782121
6859789750
6859797014
6859804826
6859811479
6859819169
6859825334
6859834245
6859843095
6859847856
6859857072
6859862992
6859871965
6859880204
6859887956
6859895036
6859904008
6859911210
6859918351
6859926530
6859933549
6859942521
6859949723
6859958695
6859965714
6859972367
6859980241
6859988297
6859996293
6860003983
6860012345
6860020096
6860028580
6860037919
6860043107
6860052811
6860059647
6860069535
6860076493
6860086503
6860094681
6860102067
6860111283
6860118851
6860127213
6860135025
6860142594
6860151749
6860160355
6860169327
6860176651
6860184403
6860191788
6860199539
6860205460
6860212113
6860223160
6860231156
6860237259
6860244339
6860253372
6860259964
6860267044
6860273270
6860281570
6860289993
6860297562
6860303787
6860311417
6860320328
6860328689
6860336319
6860348526
6860360794
6860369095
6860380081
6860388260
6860397293
6860407486
6860413955
6860422989
6860430191
6860437149
6860447769
6860454055
6860461624
6860468582
6860475845
6860485366
6860494033
6860499954
6860507461
6860516616
6860523818
6860531020
6860537490
6860545181
6860554702
6860561843
6860570632
6860577651
6860584365
6860592055
6860600173
6860607986
6860616225
6860623977
6860630935
6860638808
6860645522
6860653090
6860659194
6860666640
6860675918
6860684279
6860690810
6860698195
6860707839
6860716079
6860723586
6860729567
6860740371
6860747206
6860755690
6860764846
6860773268
6860780959
6860788710
6860795668
6860804030
6860810622
6860820204
6860826674
6860835524
6860845656
6860852553
6860860060
6860866469
6860877272
6860882643
6860893019
6860899367
6860907851
6860916701
6860923048
6860929518
6860938673
6860946730
6860954542
6860964186
6860972914
6860980482
6860986097
6860994581
6861003553
6861011854
6861020765
6861026869
6861033949
6861044020
6861050856
6861058607
6861068373
6861075758
6861083692
6861091932
6861099439
6861106397
6861114881
6861123548
6861129835
6861136610
6861145582
6861155531
6861163709
6861170240
6861176893
6861187757
6861195020
6861203138
6861211805
6861223035
6861234510
6861240919
6861250623
6861257276
6861267469
6861273633
6861280530
6861291639
6861299329
6861307081
6861314771
6861320996
6861330335
6861336377
6861342847
6861351880
6861360486
6861366651
6861373914
6861382886
6861387891
6861397717
6861405591
6861413281
6861419751
6861429395
6861435803
6861443677
6861450940
6861458569
6861466565
6861474561
6861482739
6861488293
6861497449
6861503308
6861512158
6861520703
6861527295
6861534131
6861544324
6861551770
6861559216
6861565808
6861576611
6861583325
6861591504
6861599804
6861608349
6861617321
6861623608
6861632824
6861641064
6861647595
6861654614
6861664379
6861671643
6861679638
6861688366
6861695996
6861705029
6861712719
6861720226
6861728771
6861737011
6861745495
6861752392
6861760754
6861767406
6861775463
6861785473
6861791088
6861800976
6861809154
6861816784
6861823498
6861833752
6861840160
6861848522
6861856945
6861865307
6861869823
6861881908
6861889965
6861898266
6861904918
6861912487
6861922374
6861927379
6861937084
6861945690
6861953258
6861961681
6861969493
6861976024
6861984386
6861993846
6862000072
6862006786
6862016734
6862024730
6862033397
6862044261
6862056712
6862063487
6862072826
6862080272
6862088695
6862096873
6862104503
6862110606
6862117442
6862126597
6862133678
6862142589
6862147349
6862157237
6862165477
6862172496
6862178233
6862187877
6862195445
6862202464
6862208079
6862218760
6862226146
6862235850
6862241832
6862250132
6862266856
6862274729
6862282176
6862290904
6862300791
6862307139
6862314646
6862321848
6862332285
6862339121
6862347361
6862356455
6862362559
6862371653
6862380076
6862387156
6862395701
6862402476
6862410532
6862421152
6862429941
6862435923
6862445017
6862451853
6862459971
6862469431
6862474741
6862483103
6862493174
6862500742
6862506846
6862515207
6862521860
6862531687
6862538462
6862546823
6862555063
6862562876
6862570688
6862578806
6862587168
6862594858
6862601877
6862610300
6862618906
6862626047
6862634470
6862641916
6862651132
6862658884
6862666635
6862675180
6862682870
6862691537
6862699289
6862707407
6862716562
6862723947
6862730295
6862739328
6862747140
6862756479
6862763864
6862772836
6862780710
6862789377
6862795541
6862804391
6862811959
6862820993
6862829965
6862840219
6862848336
6862855661
6862866769
6862879647
6862889779
6862900887
6862908700
6862918588
6862927377
6862936410
6862945504
6862954781
6862961739
6862969430
6862976022
6862984994
6862993722
6863002083
6863010811
6863018807
6863026436
6863036385
6863042550
6863052987
6863060616
6863068734
6863076607
6863084664
6863091500
6863100350
6863108956
6863114205
6863123116
6863130379
6863139229
6863147164
6863156136
6863165657
6863173531
6863182137
6863188118
6863195564
6863202950
6863212959
6863220223
6863227791
6863237190
6863244148
6863251167
6863258369
6863265633
6863275459
6863282539
6863291695
6863299446
6863307136
6863316414
6863324348
6863332100
6863338997
6863348457
6863354683
6863362495
6863371345
6863380378
6863388374
6863398384
6863406807
6863414436
6863422309
6863430488
6863440010
6863449409
6863468269
6863477912
6863489997
6863498115
6863507820
6863515815
6863523689
6863534614
6863541206
6863547797
6863555854
6863563789
6863571601
6863579291
6863589057
6863597968
6863607062
6863617377
6863625434
6863634589
6863642707
6863650580
6863659797
6863666755
6863673713
6863681708
6863687995
6863694342
6863700385
6863707404
6863715461
6863723273
6863731513
6863738593
6863745429
6863752570
6863759284
6863766608
6863773139
6863780829
6863786261
6863795538
6863801093
6863808722
6863816718
6863823798
6863833441
6863841010
6863847052
6863854071
6863859686
6863866034
6863874396
6863880682
6863888251
6863895514
6863904181
6863910589
6863916998
6863924566
6863931097
6863937079
6863946478
6863953497
6863960211
6863967596
6863975836
6863982672
6863989264
6863995367
6864003057
6864012396
6864019537
6864027166
6864036505
6864042242
6864051153
6864058416
6864066412
6864073431
6864081793
6864091314
6864098760
6864106329
6864115484
6864122747
6864130621
6864138860
6864145879
6864153020
6864160650
6864166753
6864174566
6864181768
6864189519
6864196966
6864207159
6864213750
6864221441
6864227666
6864237432
6864243352
6864250127
6864260625
6864268560
6864276128
6864282903
6864292241
6864297918
6864305547
6864309453
6864319829
6864329961
6864338262
6864345403
6864353093
6864361394
6864370061
6864374700
6864383672
6864393987
6864402287
6864410161
6864418034
6864426213
6864433598
6864440617
6864448125
6864457036
6864464665
6864470219
6864477238
6864482793
6864491582
6864497258
6864505559
6864514958
6864522221
6864529179
6864536198
6864541813
6864547612
6864555913
6864564518
6864570927
6864577946
6864586735
6864593815
6864599369
6864606877
6864613407
6864620671
6864627385
6864634281
6864643009
6864650090
6864656986
6864663212
6864672917
6864678349
6864686405
6864694645
6864705204
6864711613
6864719242
6864726017
6864733952
6864741032
6864748661
6864758610
6864766544
6864770573
6864780582
6864786625
6864794193
6864803165
6864808719
6864816166
6864825260
6864832035
6864838810
6864846378
6864854068
6864860782
6864869816
6864877933
6864886173
6864891849
6864899845
6864907352
6864913333
6864922061
6864928287
6864935611
6864943180
6864950931
6864958011
6864964176
6864973697
6864979801
6864987491
6864994693
6865002689
6865010806
6865018985
6865025760
6865035281
6865041568
6865050174
6865056094
6865062869
6865072452
6865079654
6865087161
6865095096
6865105166
6865112918
6865121646
6865129642
6865139407
6865148257
6865154605
6865162600
6865171695
6865179690
6865187503
6865195742
6865205813
6865212954
6865221011
6865227847
6865236514
6865243106
6865250308
6865257754
6865266848
6865273867
6865280398
6865288149
6865297122
6865304202
6865311221
6865319216
6865325442
6865333315
6865340762
6865348086
6865354067
6865361208
6865368655
6865376040
6865384219
6865391299
6865397341
6865406313
6865412600
6865419558
6865426089
6865434145
6865442995
6865453127
6865458254
6865466127
6865473330
6865481386
6865488161
6865496096
6865502871
6865512758
6865519167
6865528810
6865535219
6865543154
6865550051
6865558473
6865566103
6865574709
6865582155
6865590761
6865598818
6865604372
6865612123
6865619325
6865627565
6865635561
6865641542
6865650270
6865657716
6865661745
6865670045
6865678957
6865684511
6865694581
6865702882
6865710573
6865718202
6865728151
6865739076
6865747316
6865753053
6865763917
6865771669
6865781312
6865789003
6865794679
6865802797
6865809144
6865815370
6865822572
6865830628
6865835389
6865844361
6865851014
6865856935
6865864137
6865871827
6865877015
6865884095
6865889832
6865896974
6865905579
6865915833
6865921449
6865930482
6865938111
6865947022
6865953919
6865961121
6865967652
6865973023
6865979920
6865987733
6865992798
6866000916
6866006776
6866013184
6866018799
6866025574
6866030274
6866037232
6866042847
6866049317
6866056458
6866063233
6866068909
6866076233
6866082093
6866088074
6866093811
6866101380
6866106873
6866112732
6866118836
6866127014
6866132202
6866138367
6866145264
6866150757
6866158020
6866162842
6866169190
6866174927
6866182984
6866188049
6866193360
6866199951
6866206482
6866212036
6866219910
6866226624
6866232361
6866239380
6866244446
6866252197
6866258728
6866266174
6866271484
6866278686
6866285339
6866290954
6866297485
6866303345
6866311951
6866317627
6866323364
6866330383
6866336975
6866343933
6866352051
6866358276
6866365539
6866371277
6866379211
6866385498
6866393859
6866400756
6866405456
6866413574
6866419555
6866427001
6866433715
6866441589
6866454040
6866461852
6866470336
6866476867
6866483459
6866491454
6866498473
6866505981
6866512328
6866519408
6866525817
6866533630
6866540099
6866547301
6866554382
6866560607
6866567321
6866575194
6866580749
6866588378
6866597106
6866603698
6866610534
6866618896
6866623778
6866631957
6866637877
6866645324
6866653014
6866660277
6866666808
6866673949
6866680480
6866689208
6866695617
6866701964
6866709105
6866715880
6866722045
6866730529
6866736388
6866742736
6866750548
6866758605
6866764952
6866771544
6866777342
6866784483
6866792906
6866798522
6866806456
6866812254
6866819457
6866826537
6866833678
6866840208
6866848326
6866854857
6866860472
6866869932
6866877806
6866885557
6866892882
6866897948
6866905882
6866911375
6866919188
6866927061
6866935545
6866941099
6866947752
6866955198
6866961912
6866967955
6866976622
6866982725
6866991514
6866999876
6867004942
6867013853
6867019773
6867027098
6867036558
6867044065
6867052549
6867059934
6867067076
6867075926
6867083433
6867091734
6867100034
6867109495
6867116209
6867123716
6867132993
6867139280
6867145689
6867153989
6867160398
6867168577
6867176145
6867184141
6867191282
6867199216
6867206418
6867212827
6867219724
6867225278
6867234250
6867241941
6867248838
6867255674
6867263608
6867272214
6867279905
6867286008
6867294187
6867300412
6867308225
6867317258
6867325681
6867332517
6867340695
6867347531
6867355039
6867363889
6867370847
6867377927
6867385739
6867394711
6867401914
6867408749
6867417600
6867424558
6867431393
6867439267
6867447018
6867454831
6867462949
6867470700
6867477475
6867485104
6867491940
6867499570
6867508603
6867514523
6867522946
6867530514
6867539059
6867543881
6867552853
6867558835
6867567868
6867575192
6867584652
6867591793
6867597714
6867606259
6867614498
6867623471
6867629452
6867640927
6867648983
6867657406
6867665768
6867672115
6867681027
6867689205
6867695919
6867705380
6867712093
6867722042
6867728817
6867737484
6867744991
6867752804
6867760494
6867768307
6867776913
6867785763
6867794063
6867802059
6867810421
6867814815
6867825802
6867832638
6867840877
6867848751
6867858883
6867871395
6867879940
6867888729
6867898006
6867904232
6867912715
6867923702
6867933528
6867939571
6867947322
6867956478
6867962581
6867969173
6867979427
6867986018
6867994808
6868000911
6868010555
6868016719
6868025203
6868032100
6868040706
6868048152
6868054866
6868063960
6868069759
6868080379
6868088008
6868095149
6868101436
6868111384
6868117183
6868126765
6868132869
6868140864
6868148555
6868156428
6868160823
6868171870
6868180232
6868188044
6868194514
6868203791
6868210017
6868216304
6868225459
6868231440
6868240718
6868249629
6868256159
6868264521
6868273676
6868281855
6868287959
6868294672
6868304194
6868313410
6868320124
6868329279
6868337275
6868343439
6868351801
6868359736
6868368159
6868377070
6868385493
6868389887
6868400690
6868407282
6868414728
6868424494
6868430597
6868440607
6868447321
6868457087
6868464960
6868472590
6868479486
6868487726
6868497004
6868505609
6868512934
6868521356
6868529169
6868537653
6868545770
6868554254
6868563043
6868568414
6868578912
6868586908
6868593805
6868602472
6868611017
6868618890
6868625665
6868633966
6868643243
6868651361
6868657831
6868667596
6868675897
6868682306
6868693292
6868699884
6868714898
6868869439
6868879998
6868887811
6868895684
6868902947
6868912408
6868921929
6868929131
6868937493
6868945306
6868953179
6868961785
6868969292
6868977776
6868984307
6868992058
6869001519
6869009636
6869018120
6869025628
6869034173
6869043633
6869051629
6869058037
6869068352
6869075920
6869083733
6869093254
6869101128
6869107964
6869118462
6869125542
6869133171
6869140801
6869149773
6869157890
6869166435
6869174919
6869181206
6869189140
6869198296
6869206352
6869213860
6869222710
6869229546
6869237053
6869244621
6869255119
6869262688
6869270561
6869279228
6869287163
6869295158
6869302055
6869310234
6869324821
6869332329
6869340080
6869349052
6869357292
6869368827
6869376884
6869385734
6869395866
6869404106
6869410636
6869420158
6869430900
6869441398
6869449943
6869462821
6869474479
6869485526
6869494804
6869504569
6869516105
6869530448
6869540275
6869550407
6869565543
6869575553
6869587394
6869595756
6869608573
6869621756
6869632682
6869640983
6869654715
6869668876
6869678946
6869690665
6869700797
6869710807
6869721915
6869733328
6869741812
6869753409
6869767081
6869778189
6869791312
6869799368
6869810294
6869822989
6869834708
6869844595
6869854971
6869867544
6869880606
6869895682
6869908804
6869921621
6869934622
6869948233
6869961538
6869972525
6869985952
6869999441
6870011282
6870022695
6870036489
6870045278
6870057180
6870066213
6870077627
6870088003
6870099600
6870111013
6870125112
6870137441
6870153005
6870163625
6870177602
6870191213
6870203115
6870213003
6870221914
6870235708
6870249562
6870259511
6870273061
6870282094
6870295705
6870311635
6870327138
6870340505
6870351613
6870365102
6870377858
6870388478
6870400990
6870411122
6870421620
6870433522
6870445241
6870455311
6870469472
6870481557
6870494801
6870505177
6870515065
6870527943
6870537709
6870552967
6870560963
6870571949
6870585499
6870597340
6870606983
6870619618
6870628041
6870641407
6870652821
6870664600
6870679127
6870690540
6870702686
6870711475
6870722828
6870733143
6870743336
6870755848
6870764637
6870778553
6870789478
6870800464
6870813099
6870826587
6870839405
6870851734
6870862232
6870875965
6870886158
6870897205
6870909046
6870921192
6870934802
6870948169
6870959827
6870973865
6870983386
6870996326
6871010974
6871026172
6871038257
6871047229
6871061633
6871071582
6871086047
6871097705
6871111377
6871122241
6871133349
6871145129
6871160632
6871171374
6871183825
6871193164
6871206835
6871219714
6871231433
6871240038
6871254748
6871272326
6871283190
6871297228
6871306078
6871318285
6871332751
6871344042
6871359667
6871370592
6871379931
6871392748
6871404101
6871416674
6871427477
6871437120
6871450060
6871461046
6871472399
6871486559
6871497545
6871507311
6871517565
6871528978
6871538744
6871550951
6871562792
6871571581
6871583421
6871594225
6871605577
6871617967
6871629686
6871643236
6871653245
6871664171
6871676011
6871686632
6871700120
6871708909
6871720445
6871732713
6871741258
6871755723
6871765367
6871776658
6871786119
6871800828
6871812608
6871826036
6871834580
6871846971
6871859300
6871871995
6871884568
6871895799
6871906480
6871917832
6871928391
6871938950
6871950059
6871961472
6871972764
6871981553
6871991746
6872006760
6872019577
6872032700
6872043930
6872057358
6872071701
6872086716
6872100632
6872110520
6872122360
6872136948
6872149582
6872161606
6872173874
6872184982
6872197739
6872209885
6872222885
6872234177
6872246078
6872257309
6872276352
6872288193
6872300583
6872311874
6872322738
6872335922
6872347335
6872360031
6872371810
6872383163
6872392501
6872402999
6872414474
6872424240
6872437240
6872447006
6872457382
6872469650
6872480758
6872492233
6872504134
6872515121
6872523788
6872536422
6872547835
6872558272
6872568160
6872579757
6872591109
6872600081
6872609786
6872622176
6872633773
6872645980
6872656050
6872668196
6872678572
6872690962
6872705367
6872717574
6872727889
6872741561
6872752913
6872765364
6872775801
6872787032
6872801131
6872811018
6872826338
6872834029
6872848372
6872860884
6872871931
6872884871
6872896834
6872909712
6872925215
6872934431
6872948408
6872959394
6872972395
6872985762
6872997175
6873010298
6873021833
6873031721
6873044660
6873055464
6873071027
6873081098
6873092085
6873107038
6873119306
6873133771
6873145551
6873159894
6873175458
6873188459
6873201948
6873215131
6873228803
6873239667
6873251508
6873265119
6873275495
6873288556
6873302350
6873312421
6873324445
6873332684
6873346478
6873356122
6873367902
6873380170
6873389874
6873401349
6873415448
6873426739
6873439496
6873448224
6873459698
6873473004
6873484051
6873496686
6873508526
6873521038
6873534161
6873545697
6873559674
6873570538
6873581341
6873596295
6873609173
6873621746
6873629803
6873642010
6873654034
6873666546
6873675396
6873687664
6873699383
6873709759
6873721233
6873731548
6873740154
6873753399
6873763775
6873775677
6873785625
6873796978
6873808696
6873819744
6873828899
6873840740
6873852153
6873864849
6873873394
6873886516
6873897014
6873909282
6873919841
6873931011
6873942302
6873951213
6873963603
6873973735
6873984721
6873997417
6874006755
6874017924
6874028300
6874039958
6874048564
6874060405
6874070659
6874081584
6874093608
6874105876
6874117045
6874129863
6874138591
6874153666
6874168498
6874177775
6874196574
6874211466
6874221171
6874233927
6874243937
6874253825
6874263957
6874277995
6874286356
6874298746
6874307963
6874319865
6874332499
6874344584
6874356669
6874367716
6874381693
6874394022
6874403666
6874416666
6874429789
6874441019
6874454996
6874466776
6874480631
6874489359
6874501627
6874512552
6874521585
6874534586
6874549600
6874559427
6874570963
6874582864
6874593240
6874605753
6874616190
6874631692
6874641336
6874655923
6874668069
6874681924
6874690713
6874703592
6874720559
6874732949
