5539058879
5539064372
5539069377
5539075114
5539080119
5539084818
5539090128
5539096537
5539102152
5539108134
5539115092
5539120829
5539126994
5539131388
5539139140
5539144999
5539152079
5539157450
5539164286
5539171305
5539177164
5539183268
5539189799
5539196696
5539201151
5539212137
5539219218
5539225870
5539231058
5539238138
5539243509
5539251688
5539259989
5539266703
5539276102
5539281412
5539287394
5539296427
5539302042
5539311808
5539317179
5539323404
5539335062
5539343790
5539350260
5539358682
5539366007
5539371378
5539381754
5539390604
5539399088
5539409280
5539416116
5539427835
5539437723
5539445963
5539453226
5539462930
5539470621
5539480142
5539486673
5539492715
5539503335
5539510415
5539517862
5539524087
5539530069
5539539529
5539550454
5539555581
5539564676
5539572183
5539579385
5539587014
5539597146
5539605508
5539613076
5539620889
5539628823
5539639138
5539646524
5539656289
5539663735
5539671365
5539678445
5539686257
5539694375
5539702187
5539710610
5539718423
5539725991
5539733437
5539740212
5539747964
5539754922
5539765481
5539772195
5539780923
5539789101
5539799843
5539807900
5539816750
5539823220
5539832436
5539837136
5539846779
5539855141
5539862404
5539870888
5539876442
5539885048
5539892739
5539899880
5539905373
5539912575
5539920937
5539930031
5539937355
5539944557
5539951393
5539958595
5539962624
5539974281
5539981667
5539989296
5539995400
5540002358
5540009194
5540016335
5540024818
5540031166
5540040993
5540048134
5540058327
5540063271
5540074379
5540083900
5540089699
5540099708
5540108620
5540116554
5540124916
5540131325
5540140419
5540148292
5540158546
5540166481
5540175636
5540183326
5540191139
5540199012
5540205970
5540214820
5540221839
5540227516
5540237770
5540244300
5540253334
5540260597
5540268409
5540272865
5540283241
5540290809
5540298316
5540307288
5540317420
5540325721
5540334144
5540342994
5540349586
5540357581
5540362342
5540372474
5540377418
5540388038
5540395972
5540402991
5540410377
5540416419
5540425391
5540433448
5540442298
5540449012
5540456641
5540463355
5540472937
5540480079
5540487586
5540494788
5540502295
5540510474
5540517981
5540525611
5540531348
5540539588
5540548010
5540555518
5540564734
5540573950
5540581885
5540589087
5540595740
5540604529
5540613379
5540621619
5540630774
5540638708
5540645666
5540653418
5540662024
5540667883
5540676428
5540685644
5540693579
5540700354
5540710486
5540715124
5540725561
5540733252
5540741064
5540749670
5540757605
5540765234
5540771338
5540780981
5540787512
5540798193
5540805517
5540815222
5540823339
5540832312
5540837194
5540847936
5540856237
5540864721
5540871862
5540879858
5540886450
5540893896
5540901647
5540909094
5540917089
5540924719
5540932958
5540938696
5540947057
5540954687
5540962072
5540970312
5540978429
5540984289
5540992773
5541001012
5541007421
5541015417
5541023046
5541029027
5541037328
5541042821
5541052160
5541058751
5541067174
5541074498
5541081884
5541089452
5541097448
5541105870
5541112584
5541120458
5541128026
5541135472
5541143163
5541150365
5541158483
5541166295
5541173497
5541181310
5541188268
5541196080
5541203221
5541212437
5541220494
5541229283
5541237218
5541244847
5541252537
5541259679
5541266576
5541273350
5541281834
5541288914
5541296849
5541303624
5541311192
5541319493
5541326878
5541335362
5541343297
5541350743
5541358494
5541363987
5541374241
5541383030
5541390355
5541395359
5541405613
5541413182
5541421727
5541432652
5541440220
5541447849
5541454319
5541461460
5541471104
5541477635
5541487156
5541492405
5541499058
5541509007
5541515904
5541521763
5541532566
5541538853
5541547520
5541557285
5541566868
5541575107
5541582249
5541589390
5541594150
5541603428
5541610935
5541617100
5541625767
5541629490
5541637241
5541644260
5541650303
5541658176
5541664646
5541672947
5541680576
5541688266
5541694004
5541701694
5541706455
5541714939
5541722263
5541730747
5541735630
5541743747
5541751071
5541756809
5541762302
5541770664
5541777438
5541783420
5541790439
5541796848
5541804721
5541811557
5541819125
5541824313
5541830478
5541837863
5541844394
5541851291
5541859225
5541867648
5541873447
5541881259
5541889804
5541897677
5541904269
5541912265
5541922336
5541929782
5541937228
5541944247
5541952670
5541961398
5541967868
5541974948
5541984774
5541991000
5541999606
5542006259
5542013278
5542022067
5542029391
5542036959
5542042758
5542052340
5542060641
5542067660
5542075106
5542081576
5542090487
5542098116
5542106905
5542114474
5542121554
5542132662
5542138888
5542148043
5542155672
5542164156
5542172823
5542178561
5542188936
5542195162
5542203402
5542209139
5542218722
5542227511
5542233797
5542240999
5542246737
5542255343
5542262972
5542269625
5542281404
5542289705
5542297274
5542303987
5542311006
5542318575
5542325899
5542333589
5542340792
5542350801
5542357027
5542365999
5542373750
5542381685
5542389131
5542393038
5542403780
5542408846
5542415559
5542424043
5542430757
5542440340
5542447664
5542455659
5542461702
5542469820
5542476655
5542485750
5542493562
5542503267
5542509736
5542518464
5542525606
5542534089
5542540620
5542546663
5542554719
5542562165
5542569368
5542577241
5542583284
5542593232
5542599275
5542609162
5542618135
5542626008
5542634858
5542642243
5542652131
5542660737
5542668427
5542675202
5542683625
5542691682
5542696320
5542706879
5542715180
5542722688
5542731599
5542739167
5542746979
5542756013
5542762116
5542771149
5542777436
5542788117
5542794770
5542805024
5542809846
5542822175
5542831025
5542837250
5542846039
5542852326
5542861786
5542871247
5542879059
5542886689
5542893402
5542901703
5542909088
5542916718
5542923981
5542933014
5542939179
5542947113
5542955658
5542962982
5542969574
5542979523
5542986481
5542993073
5543000153
5543008392
5543014191
5543023651
5543031464
5543039642
5543046722
5543054108
5543062408
5543070221
5543076935
5543085846
5543094513
5543101410
5543106659
5543116180
5543125213
5543131500
5543141815
5543150299
5543156768
5543165069
5543172271
5543181793
5543187957
5543195343
5543203887
5543212310
5543219329
5543228729
5543236114
5543243743
5543251861
5543260284
5543267364
5543276031
5543281890
5543291290
5543299041
5543307403
5543314605
5543322662
5543330413
5543337188
5543343963
5543353423
5543360992
5543369048
5543376617
5543385283
5543394439
5543401397
5543410186
5543417998
5543425445
5543433684
5543440032
5543448760
5543455230
5543463652
5543470366
5543481108
5543490874
5543500029
5543507842
5543516082
5543522307
5543531584
5543539580
5543552458
5543559538
5543568816
5543574492
5543585356
5543593230
5543600981
5543607268
5543613249
5543622038
5543629851
5543637541
5543646330
5543651457
5543660918
5543667937
5543677458
5543684721
5543691679
5543699736
5543705107
5543714567
5543722685
5543731535
5543738859
5543745024
5543753752
5543762175
5543769133
5543777555
5543783598
5543793119
5543800321
5543807585
5543815885
5543824491
5543831022
5543837675
5543848295
5543854582
5543864958
5543872038
5543877714
5543885038
5543891630
5543902372
5543911161
5543919279
5543928251
5543936307
5543943082
5543949674
5543958524
5543969205
5543978055
5543984647
5543992704
5543999906
5544006498
5544016691
5544023038
5544030851
5544039335
5544044584
5544053312
5544059293
5544069974
5544077359
5544086270
5544095365
5544100431
5544108731
5544114957
5544125882
5544133817
5544144925
5544154752
5544158841
5544170377
5544174893
5544187405
5544195889
5544205045
5544214383
5544222256
5544229825
5544235379
5544243619
5544253018
5544261258
5544266873
5544275723
5544279812
5544288663
5544294278
5544304165
5544311734
5544320340
5544328335
5544334012
5544344021
5544351101
5544359951
5544369351
5544375515
5544381863
5544388943
5544398526
5544405911
5544412991
5544421963
5544430203
5544436672
5544443630
5544451199
5544458706
5544468166
5544476162
5544483303
5544490261
5544498440
5544506130
5544514248
5544522671
5544530727
5544537746
5544543667
5544553005
5544561733
5544570766
5544579738
5544587673
5544595302
5544601711
5544613735
5544622219
5544631679
5544639980
5544649074
5544657131
5544666591
5544674587
5544685146
5544693203
5544701931
5544709560
5544716640
5544724636
5544730617
5544741298
5544749050
5544757289
5544765102
5544772731
5544780666
5544788356
5544798549
5544806667
5544816005
5544823634
5544830775
5544837794
5544845607
5544854518
5544862269
5544870692
5544878200
5544886439
5544895534
5544902186
5544912623
5544922877
5544932521
5544939051
5544949000
5544955897
5544963160
5544970668
5544978175
5544987696
5544993312
5545003016
5545010096
5545018397
5545027308
5545034388
5545041712
5545047999
5545055018
5545062342
5545067530
5545077174
5545084803
5545094386
5545100245
5545105738
5545114832
5545124537
5545130274
5545140772
5545149012
5545156519
5545165552
5545173731
5545182032
5545192164
5545199793
5545207911
5545216028
5545222986
5545229029
5545238916
5545247217
5545256433
5545263758
5545270838
5545280237
5545286219
5545294886
5545301538
5545313684
5545321863
5545329248
5545336817
5545345972
5545352686
5545361231
5545371362
5545378259
5545384912
5545393884
5545400293
5545409937
5545418787
5545427026
5545434656
5545441614
5545450586
5545458032
5545466516
5545476404
5545483301
5545491907
5545501794
5545507226
5545515954
5545523706
5545533410
5545539697
5545550744
5545558801
5545566919
5545575219
5545586145
5545598535
5545605615
5545616601
5545622033
5545632714
5545638329
5545649987
5545657372
5545666711
5545672204
5545682580
5545688256
5545698083
5545707116
5545713280
5545720849
5545728295
5545737633
5545744164
5545752892
5545762170
5545771020
5545775719
5545785485
5545793053
5545801903
5545807335
5545816185
5545823449
5545831078
5545839745
5545849389
5545856957
5545863366
5545871605
5545879662
5545889000
5545897789
5545906395
5545914879
5545921837
5545930260
5545938072
5545946556
5545956566
5545968163
5545975243
5545983788
5545991295
5546000023
5546009361
5546017174
5546026146
5546034630
5546041099
5546050255
5546059166
5546067161
5546073814
5546083580
5546090172
5546098655
5546106041
5546114830
5546123069
5546130088
5546140037
5546146263
5546154625
5546163536
5546170677
5546178794
5546184837
5546192771
5546202293
5546207176
5546217674
5546227012
5546233970
5546241050
5546249656
5546258994
5546265342
5546275291
5546280601
5546291648
5546294700
5546309348
5546318198
5546324973
5546335105
5546342490
5546349814
5546360557
5546366843
5546378013
5546383445
5546396995
5546403953
5546412619
5546418967
5546426902
5546435630
5546442405
5546451072
5546457175
5546464865
5546472800
5546480979
5546486899
5546493735
5546503440
5546508200
5546518698
5546523337
5546532981
5546539633
5546547995
5546554648
5546563559
5546570761
5546579184
5546585837
5546593527
5546599509
5546608054
5546616049
5546622153
5546630026
5546637289
5546645285
5546654135
5546660727
5546665915
5546676962
5546685751
5546692404
5546700216
5546708395
5546715536
5546725424
5546732687
5546741476
5546748068
5546757406
5546764059
5546773031
5546781515
5546789266
5546797933
5546804647
5546813558
5546822103
5546829000
5546838217
5546844808
5546852071
5546861959
5546869100
5546876791
5546883260
5546892110
5546899007
5546908712
5546915243
5546924093
5546930624
5546940145
5546946615
5546953878
5546962789
5546970174
5546978109
5546987630
5546993978
5547000631
5547011007
5547017598
5547026571
5547036153
5547044820
5547051534
5547059713
5547066182
5547074544
5547083150
5547091512
5547098348
5547105550
5547114156
5547121663
5547130574
5547138143
5547146504
5547155171
5547164510
5547174275
5547183675
5547192036
5547203511
5547209553
5547223286
5547233357
5547239888
5547250447
5547258626
5547265278
5547273213
5547279011
5547287922
5547292683
5547304707
5547312275
5547318318
5547326008
5547334065
5547338887
5547349202
5547355793
5547363240
5547370259
5547379414
5547386250
5547393574
5547399494
5547409504
5547415669
5547423481
5547432148
5547439778
5547446186
5547455525
5547462177
5547467365
5547477131
5547485920
5547495075
5547500202
5547510395
5547517841
5547526264
5547534321
5547542438
5547549091
5547558124
5547566608
5547574970
5547581623
5547590534
5547599262
5547605854
5547614521
5547622944
5547629718
5547637531
5547645038
5547652423
5547660419
5547669635
5547677570
5547684406
5547692768
5547701312
5547708087
5547716693
5547725604
5547732074
5547740924
5547747455
5547756122
5547762836
5547770282
5547779071
5547786273
5547794391
5547803851
5547810626
5547817157
5547825702
5547834918
5547843585
5547849994
5547859210
5547865924
5547875140
5547881610
5547888812
5547898700
5547905780
5547913470
5547920672
5547931659
5547938800
5547947467
5547953997
5547963580
5547971087
5547980120
5547988665
5547995623
5548004779
5548013751
5548020953
5548029254
5548037554
5548049944
5548058245
5548065569
5548074664
5548081805
5548087908
5548096209
5548105059
5548110369
5548120013
5548128191
5548134112
5548140826
5548149248
5548156023
5548164995
5548171648
5548180559
5548187334
5548194903
5548203753
5548210161
5548216082
5548224566
5548233110
5548240191
5548246355
5548254778
5548262651
5548269182
5548277056
5548285478
5548292497
5548300798
5548309343
5548316179
5548324846
5548334184
5548340715
5548349260
5548355730
5548363176
5548372820
5548380205
5548387651
5548394304
5548402971
5548411699
5548418779
5548427812
5548436113
5548442766
5548451311
5548458024
5548465166
5548475419
5548480790
5548492570
5548497880
5548508622
5548512956
5548522905
5548529435
5548538713
5548545121
5548553788
5548563188
5548570085
5548578752
5548584489
5548594438
5548599504
5548610185
5548617387
5548628007
5548633195
5548643815
5548650956
5548657670
5548666947
5548673539
5548682206
5548689164
5548698014
5548706193
5548714799
5548721696
5548728654
5548736283
5548746842
5548751908
5548764115
5548772904
5548779435
5548788895
5548797867
5548803544
5548814591
5548819657
5548829605
5548837601
5548846634
5548855728
5548866288
5548873734
5548882584
5548892227
5548900528
5548908646
5548916580
5548922867
5548932633
5548938858
5548947830
5548953873
5548961441
5548969620
5548977493
5548985367
5548991653
5548999710
5549007706
5549013687
5549020462
5549029861
5549037857
5549045730
5549050369
5549059463
5549066299
5549073562
5549082351
5549089798
5549096634
5549104385
5549113052
5549120620
5549126663
5549134414
5549141006
5549151565
5549161514
5549168838
5549178115
5549185073
5549191360
5549199600
5549205764
5549215530
5549222671
5549232620
5549238052
5549248916
5549253555
5549263564
5549270644
5549279922
5549289138
5549297439
5549306350
5549313979
5549323379
5549328750
5549337722
5549346023
5549351882
5549360366
5549367629
5549374587
5549383681
5549392653
5549401626
5549408950
5549416091
5549423964
5549431777
5549442275
5549449660
5549456984
5549466811
5549472975
5549481887
5549490248
5549497756
5549506972
5549512831
5549521559
5549531203
5549539565
5549547255
5549558608
5549566237
5549574782
5549582777
5549590102
5549598769
5549605116
5549615492
5549623976
5549631789
5549648268
5549655714
5549662245
5549670973
5549679579
5549689100
5549695204
5549703505
5549710524
5549717848
5549725416
5549732740
5549738905
5549747572
5549755506
5549762587
5549769728
5549778273
5549788160
5549795545
5549802809
5549809156
5549817640
5549824537
5549832288
5549841932
5549848036
5549853773
5549863783
5549869886
5549877332
5549886793
5549893751
5549900526
5549907117
5549915113
5549923475
5549931898
5549940076
5549947950
5549955396
5549963575
5549971692
5549978223
5549988416
5549995130
5550002637
5550009717
5550018750
5550024610
5550034192
5550043164
5550050977
5550059339
5550066968
5550074903
5550081616
5550090100
5550097363
5550109448
5550115369
5550123670
5550132214
5550139661
5550147961
5550156628
5550165295
5550173657
5550180981
5550192578
5550199841
5550207959
5550215954
5550221631
5550232007
5550237378
5550250073
5550258252
5550265942
5550275097
5550283398
5550290478
5550301220
5550307324
5550314709
5550322338
5550331799
5550336010
5550347790
5550353283
5550362500
5550369274
5550376538
5550383679
5550389233
5550394787
5550400524
5550407299
5550414074
5550421948
5550428112
5550435436
5550441601
5550448010
5550454540
5550461926
5550467907
5550473644
5550479870
5550486095
5550492321
5550498547
5550505688
5550512096
5550518017
5550525341
5550531200
5550536693
5550545177
5550552501
5550558300
5550564342
5550569530
5550575512
5550582775
5550589061
5550595165
5550601085
5550607067
5550613109
5550618114
5550625866
5550632396
5550638500
5550643932
5550648265
5550656078
5550660900
5550667186
5550673961
5550680126
5550685497
5550692272
5550697032
5550704662
5550712291
5550717418
5550724803
5550731334
5550738292
5550744457
5550750316
5550757518
5550763927
5550768443
5550775401
5550782787
5550790416
5550798961
5550805064
5550810313
5550818126
5550826304
5550834788
5550843394
5550851207
5550858409
5550864940
5550870433
5550877452
5550882701
5550890880
5550897593
5550905894
5550912425
5550918040
5550923411
5550930369
5550935923
5550944834
5550950389
5550957835
5550961863
5550970408
5550977183
5550983775
5550990367
5550996714
5551003428
5551009898
5551015757
5551022288
5551028513
5551035532
5551042429
5551049448
5551055125
5551062144
5551068125
5551075388
5551081492
5551088694
5551094675
5551100230
5551107798
5551113230
5551120859
5551126353
5551133860
5551139475
5551146738
5551152109
5551159311
5551165659
5551172007
5551178171
5551186228
5551192637
5551197458
5551205759
5551210459
5551218210
5551225168
5551231516
5551237192
5551244455
5551251047
5551257334
5551263620
5551269968
5551276316
5551283701
5551291513
5551296823
5551303659
5551308908
5551316965
5551320688
5551330393
5551337106
5551343576
5551349069
5551356210
5551363107
5551370004
5551375986
5551382211
5551390573
5551398386
5551403635
5551410532
5551419870
5551424509
5551434091
5551445566
5551450998
5551459848
5551468759
5551475900
5551481576
5551490854
5551496957
5551504709
5551510385
5551518319
5551522592
5551531320
5551538156
5551546517
5551552682
5551561593
5551567819
5551575997
5551582162
5551588754
5551594979
5551603463
5551609567
5551617379
5551623605
5551631722
5551637765
5551646188
5551652169
5551660226
5551666879
5551675545
5551681588
5551688302
5551694344
5551702401
5551708626
5551716073
5551724129
5551731454
5551738167
5551745492
5551751412
5551760811
5551766976
5551773934
5551782296
5551790413
5551798409
5551801094
5551812081
5551818428
5551827401
5551832283
5551842476
5551850350
5551856270
5551863350
5551872322
5551877205
5551885567
5551892525
5551900765
5551909859
5551917793
5551924629
5551932137
5551937996
5551947090
5551953072
5551961311
5551969246
5551975838
5551983711
5551991890
5551997871
5552006416
5552012276
5552020027
5552028145
5552032722
5552042793
5552050300
5552057625
5552066963
5552075203
5552082344
5552090645
5552097419
5552106453
5552112922
5552121528
5552130317
5552137275
5552145820
5552150886
5552162239
5552167549
5552179023
5552186469
5552196479
5552201850
5552213020
5552220710
5552230232
5552241096
5552249091
5552255988
5552265937
5552273505
5552281440
5552289619
5552295844
5552304511
5552310432
5552318488
5552328132
5552332892
5552341743
5552348456
5552358405
5552365302
5552374762
5552379401
5552389838
5552393805
5552402961
5552411689
5552419379
5552426337
5552435248
5552442145
5552448554
5552456427
5552463141
5552471076
5552479682
5552486029
5552494391
5552502265
5552509284
5552517218
5552524237
5552532660
5552538153
5552547064
5552551764
5552562750
5552567938
5552578253
5552585394
5552594122
5552601507
5552610174
5552617132
5552624945
5552633551
5552641485
5552648016
5552657049
5552665655
5552671881
5552681768
5552691046
5552697638
5552704840
5552714056
5552721258
5552730413
5552737616
5552746160
5552752691
5552761785
5552768255
5552775457
5552784124
5552789312
5552799871
5552808172
5552818792
5552830877
5552839422
5552849859
5552858465
5552863409
5552873540
5552881780
5552888311
5552899053
5552905706
5552914251
5552922429
5552929204
5552937505
5552943975
5552953252
5552962713
5552971319
5552978338
5552986943
5552993901
5553002996
5553008245
5553017888
5553030278
5553038823
5553046941
5553054998
5553065984
5553072759
5553081914
5553090642
5553098577
5553104497
5553112492
5553119512
5553126225
5553135320
5553140935
5553154301
5553159001
5553169072
5553177190
5553183354
5553190068
5553198979
5553205754
5553213689
5553220585
5553228398
5553237126
5553243413
5553252018
5553259526
5553265629
5553273625
5553281559
5553289128
5553295231
5553303349
5553311283
5553317753
5553325627
5553333500
5553340031
5553348698
5553357426
5553362492
5553373234
5553380436
5553388737
5553395878
5553404606
5553414311
5553422001
5553428593
5553437504
5553443974
5553452518
5553464970
5553474979
5553484013
5553490971
5553499515
5553506107
5553514713
5553522953
5553529667
5553536930
5553545170
5553552433
5553562687
5553570011
5553577640
5553589908
5553596256
5553602909
5553614505
5553621952
5553629581
5553636295
5553644718
5553653385
5553661807
5553668216
5553676944
5553683963
5553696658
5553703067
5553711429
5553718082
5553727237
5553733890
5553741153
5553750125
5553757571
5553766544
5553773990
5553782474
5553788943
5553797061
5553805850
5553814822
5553827395
5553836123
5553841495
5553852420
5553857791
5553867862
5553875735
5553883365
5553897097
5553903018
5553911929
5553918826
5553927371
5553935427
5553943057
5553949465
5553956179
5553964846
5553973757
5553983157
5553988101
5553997744
5554004580
5554013674
5554021609
5554027651
5554034304
5554044009
5554050723
5554058291
5554064822
5554074099
5554080996
5554088381
5554097231
5554103213
5554112002
5554119509
5554125429
5554133791
5554140078
5554149050
5554156923
5554163271
5554171267
5554178957
5554187075
5554194704
5554201174
5554208925
5554216677
5554224916
5554231569
5554238771
5554246828
5554254274
5554264345
5554271608
5554279848
5554286257
5554294801
5554303346
5554311586
5554318544
5554328005
5554335268
5554344728
5554353334
5554360780
5554367250
5554374635
5554382936
5554390382
5554400148
5554407472
5554415590
5554422243
5554430604
5554439271
5554447450
5554454103
5554463014
5554470033
5554478639
5554487306
5554492433
5554500978
5554508180
5554518312
5554525636
5554533631
5554540284
5554549562
5554556031
5554563661
5554572450
5554581605
5554588136
5554593568
5554605592
5554614564
5554621156
5554629823
5554636353
5554643861
5554654664
5554662049
5554668763
5554679017
5554685853
5554695923
5554704346
5554712098
5554720948
5554728150
5554737610
5554746522
5554755250
5554763123
5554770691
5554778809
5554783570
5554792420
5554801331
5554810059
5554817932
5554826050
5554830872
5554839356
5554846009
5554854553
5554861145
5554870667
5554877564
5554885498
5554892212
5554901611
5554908020
5554916138
5554923340
5554932373
5554940125
5554947571
5554955566
5554962402
5554968018
5554974487
5554982483
5554990662
5554997192
5555006714
5555012634
5555018616
5555027344
5555031921
5555041809
5555046509
5555058349
5555066284
5555072570
5555079101
5555088073
5555094787
5555102905
5555109497
5555117187
5555126342
5555133056
5555139160
5555147521
5555155395
5555162231
5555168212
5555176574
5555183959
5555192443
5555201049
5555211303
5555217834
5555226989
5555235900
5555244506
5555252441
5555260680
5555267638
5555275878
5555283691
5555293029
5555300536
5555307982
5555317565
5555325133
5555331847
5555339843
5555348571
5555357360
5555363952
5555369017
5555380614
5555390197
5555396788
5555406066
5555412474
5555421019
5555428466
5555435607
5555445250
5555457213
5555463988
5555473021
5555481871
5555488951
5555496214
5555503966
5555512877
5555525389
5555534483
5555543944
5555552550
5555559508
5555567503
5555574156
5555582152
5555586729
5555597227
5555605955
5555612669
5555619383
5555631407
5555639341
5555648131
5555652830
5555663023
5555670530
5555676634
5555683348
5555692747
5555699522
5555708189
5555715391
5555725584
5555733091
5555740904
5555747679
5555755552
5555761411
5555769834
5555778440
5555784361
5555792478
5555800718
5555806638
5555814329
5555822324
5555830564
5555836973
5555845090
5555852903
5555857542
5555867612
5555876157
5555882688
5555890134
5555899412
5555906614
5555915525
5555922910
5555929929
5555938535
5555946164
5555954892
5555961545
5555970517
5555979367
5555985776
5555994504
5556001218
5556008420
5556016477
5556023069
5556033139
5556042539
5556050778
5556058042
5556065793
5556072385
5556080014
5556088681
5556096494
5556105588
5556112546
5556121396
5556129758
5556136411
5556143674
5556151974
5556159238
5556170102
5556177060
5556186215
5556193173
5556201108
5556207394
5556215268
5556224240
5556232419
5556240170
5556249814
5556256649
5556264523
5556270810
5556280087
5556290097
5556297360
5556303952
5556312863
5556320553
5556328915
5556338436
5556347225
5556354611
5556363522
5556376522
5556383114
5556389217
5556399899
5556406551
5556413754
5556419674
5556429989
5556436886
5556445492
5556451412
5556460140
5556466122
5556475033
5556483089
5556489193
5556497188
5556505550
5556513668
5556520443
5556528560
5556535335
5556543331
5556551204
5556557491
5556564144
5556573543
5556578365
5556587703
5556594600
5556602596
5556611934
5556619869
5556629451
5556637325
5556644527
5556653682
5556660884
5556669429
5556675899
5556685359
5556691890
5556701717
5556708553
5556716731
5556725276
5556733089
5556739680
5556747493
5556755733
5556763179
5556771724
5556781062
5556788264
5556794734
5556802730
5556811336
5556819270
5556827937
5556835811
5556842280
5556851130
5556857600
5556864985
5556874324
5556881770
5556892817
5556897883
5556908686
5556915950
5556923213
5556932429
5556940303
5556947199
5556955622
5556963313
5556971186
5556977168
5556986018
5556995112
5557002009
5557008418
5557016779
5557027033
5557035639
5557042414
5557050532
5557057490
5557065546
5557072809
5557084101
5557097529
5557104853
5557111017
5557120722
5557127924
5557135492
5557144526
5557160578
5557168268
5557177851
5557184504
5557192316
5557200434
5557205316
5557216181
5557224604
5557230585
5557239374
5557246210
5557253168
5557262323
5557270075
5557277033
5557288873
5557294977
5557303583
5557309625
5557318292
5557324396
5557332635
5557340997
5557349847
5557355829
5557365045
5557371088
5557377801
5557387445
5557392084
5557401666
5557408563
5557417962
5557424737
5557432184
5557439019
5557446405
5557452508
5557462213
5557468316
5557476983
5557483026
5557491326
5557499383
5557507196
5557513665
5557522088
5557528802
5557537103
5557545770
5557551080
5557561456
5557568963
5557577203
5557583672
5557593194
5557600152
5557609124
5557617852
5557626092
5557632561
5557641351
5557647881
5557656304
5557664971
5557672356
5557681512
5557688897
5557697625
5557705132
5557711541
5557720452
5557729302
5557736260
5557745110
5557753838
5557761101
5557767754
5557774956
5557783196
5557790642
5557798943
5557808342
5557816704
5557824272
5557831169
5557840019
5557846672
5557855400
5557862663
5557871514
5557878410
5557887138
5557896233
5557902824
5557910820
5557920525
5557926201
5557937981
5557943535
5557953911
5557962395
5557969719
5557979851
5557986503
5557997001
5558005180
5558017753
5558023979
5558028862
5558038505
5558045097
5558053154
5558059868
5558070121
5558077324
5558085197
5558091850
5558100822
5558107597
5558116630
5558123222
5558130790
5558137016
5558145317
5558151481
5558160087
5558168205
5558175407
5558183585
5558190360
5558198356
5558206107
5558214286
5558222038
5558228141
5558236381
5558244498
5558252555
5558259086
5558265983
5558274650
5558282157
5558290702
5558298026
5558306754
5558313346
5558324454
5558331717
5558339896
5558346488
5558356192
5558362723
5558370597
5558379386
5558385245
5558395926
5558400992
5558411734
5558416190
5558426505
5558433036
5558443778
5558451102
5558457694
5558466605
5558475577
5558482108
5558491019
5558497672
5558506461
5558513052
5558520621
5558530692
5558539786
5558548514
5558553580
5558563956
5558571341
5558579825
5558587027
5558595511
5558601553
5558611868
5558618765
5558625845
5558631765
5558640921
5558650442
5558658377
5558668142
5558675894
5558682730
5558691580
5558698233
5558707205
5558713674
5558722158
5558731558
5558740042
5558747305
5558755239
5558762808
5558769949
5558780142
5558788198
5558795522
5558809621
5558818899
5558821767
5558833120
5558840627
5558849416
5558854177
5558863515
5558870290
5558880361
5558885244
5558895009
5558902395
5558910207
5558917104
5558927175
5558934011
5558942800
5558949880
5558959523
5558963674
5558972768
5558981557
5558988149
5558997182
5559004750
5559011525
5559019094
5559025197
5559033559
5559042104
5559051381
5559057851
5559067555
5559073720
5559081899
5559089772
5559096120
5559104054
5559111867
5559118336
5559125905
5559133961
5559138783
5559148610
5559155385
5559162953
5559169789
5559180409
5559187123
5559194935
5559202321
5559209889
5559216603
5559225392
5559234181
5559241627
5559250477
5559258595
5559265309
5559270436
5559282582
5559287648
5559296315
5559303883
5559314015
5559321217
5559329762
5559336537
5559344959
5559351734
5559360645
5559367176
5559375477
5559384510
5559393971
5559400562
5559409412
5559415943
5559423328
5559431873
5559439320
5559448109
5559455433
5559465992
5559473072
5559479603
5559488636
5559497059
5559503528
5559512195
5559521961
5559529163
5559538318
5559544788
5559553760
5559560291
5559567798
5559578601
5559586536
5559595142
5559604236
5559612598
5559621570
5559630725
5559637988
5559647327
5559655383
5559662891
5559671680
5559678638
5559686267
5559695117
5559700610
5559709460
5559717761
5559727161
5559733752
5559742541
5559749133
5559757739
5559765002
5559770984
5559781970
5559788928
5559797473
5559803637
5559812671
5559818652
5559827136
5559833423
5559842151
5559850268
5559857165
5559865161
5559871325
5559879382
5559885302
5559894335
5559902026
5559910876
5559915759
5559925463
5559930407
5559940783
5559947497
5559954821
5559961596
5559970995
5559978991
5559987719
5559997057
5560003832
5560010607
5560020129
5560026476
5560037157
5560044054
5560053332
5560059496
5560067614
5560073534
5560078112
5560088915
5560093615
5560102953
5560109728
5560119799
5560124437
5560132982
5560138842
5560148424
5560154528
5560161913
5560172167
5560179003
5560187120
5560194628
5560200487
5560205126
5560214464
5560218614
5560227953
5560234484
5560244432
5560252062
5560258470
5560267259
5560272569
5560278917
5560284288
5560292406
5560299120
5560305284
5560310960
5560317552
5560323717
5560328966
5560336351
5560342393
5560349229
5560354539
5560361497
5560369005
5560376329
5560380540
5560393358
5560399522
5560407029
5560412828
5560417711
5560426927
5560432420
5560439561
5560445176
5560452256
5560458909
5560464830
5560470384
5560476060
5560481919
5560487901
5560495225
5560499559
5560506394
5560512681
5560518296
5560523179
5560530381
5560535508
5560541978
5560548203
5560554002
5560560655
5560566941
5560572923
5560578782
5560584702
5560590379
5560595994
5560601670
5560608933
5560613999
5560620591
5560625413
5560631882
5560636582
5560643479
5560648240
5560655076
5560661118
5560669358
5560675034
5560681321
5560687546
5560694260
5560701035
5560708909
5560715012
5560722214
5560727097
5560734726
5560741501
5560747971
5560753159
5560760544
5560767014
5560772690
5560779404
5560784165
5560790940
5560798142
5560806137
5560811997
5560818344
5560825058
5560831284
5560836594
5560844711
5560850388
5560856613
5560864670
5560869980
5560877670
5560883041
5560890549
5560896652
5560903122
5560909958
5560916367
5560922470
5560927475
5560936752
5560945114
5560951034
5560956039
5560964950
5560970199
5560980514
5560986557
5560994491
5561003097
5561010421
5561014328
5561022873
5561030075
5561036605
5561043197
5561050766
5561057968
5561062912
5561069992
5561077011
5561083541
5561088974
5561097946
5561103500
5561111434
5561115524
5561123947
5561127914
5561136459
5561142562
5561150680
5561157455
5561164413
5561171371
5561177963
5561184676
5561189498
5561197799
5561202682
5561209640
5561216293
5561223128
5561228316
5561234725
5561239974
5561248519
5561255233
5561261519
5561265060
5561272750
5561279342
5561285384
5561288863
5561299483
5561305587
5561311751
5561317733
5561323958
5561329329
5561335555
5561341719
5561349166
5561356002
5561362654
5561368392
5561375655
5561382247
5561387252
5561393538
5561401045
5561408919
5561416182
5561421858
5561429061
5561434554
5561441939
5561449446
5561455184
5561462142
5561469405
5561475508
5561480940
5561489180
5561494978
5561502303
5561508284
5561516585
5561522322
5561528303
5561536299
5561542647
5561548811
5561556135
5561565474
5561572554
5561578901
5561588118
5561594832
5561603315
5561609602
5561618757
5561625837
5561633589
5561641951
5561649275
5561657026
5561664412
5561671980
5561678083
5561685530
5561693525
5561701338
5561707502
5561714094
5561720991
5561728742
5561736189
5561742841
5561748090
5561754804
5561761396
5561768171
5561775251
5561783979
5561789899
5561797163
5561804304
5561811445
5561816877
5561826154
5561830488
5561839338
5561843610
5561853254
5561859540
5561865705
5561873456
5561880475
5561886701
5561893354
5561901777
5561908796
5561914350
5561921918
5561927594
5561936383
5561941755
5561950360
5561957502
5561965985
5561972638
5561980939
5561986615
5561993634
5562001264
5562009198
5562015241
5562023541
5562031720
5562035993
5562046063
5562050458
5562060407
5562064923
5562075604
5562083661
5562091229
5562097089
5562104901
5562113202
5562119550
5562128644
5562135052
5562141888
5562151898
5562156842
5562164776
5562173199
5562179120
5562187787
5562196148
5562203412
5562212262
5562218182
5562226910
5562234723
5562239544
5562248333
5562256085
5562263592
5562272015
5562278363
5562285870
5562294842
5562301983
5562312603
5562322674
5562332195
5562339703
5562347759
5562356304
5562364239
5562371197
5562380291
5562389751
5562399090
5562407330
5562414226
5562420940
5562428997
5562435345
5562440777
5562447735
5562456463
5562465130
5562470867
5562479107
5562486370
5562488811
5562499248
5562506145
5562515361
5562522442
5562529888
5562536052
5562543377
5562551433
5562556926
5562564128
5562572246
5562579753
5562587444
5562595500
5562603008
5562613017
5562619487
5562628826
5562635600
5562645671
5562652263
5562662029
5562669536
5562676128
5562684612
5562692119
5562698772
5562707500
5562713725
5562722148
5562728618
5562737773
5562746562
5562755107
5562761638
5562769755
5562778300
5562786784
5562793376
5562800578
5562808696
5562816081
5562824321
5562833720
5562841349
5562848002
5562857402
5562863688
5562872111
5562880717
5562888102
5562896891
5562902201
5562911723
5562916789
5562927592
5562934916
5562943522
5562950053
5562959147
5562969706
5562978007
5562984599
5562992045
5563000590
5563009623
5563016154
5563021159
5563032206
5563041117
5563047648
5563054972
5563062845
5563072489
5563080118
5563087504
5563095621
5563102640
5563110941
5563119730
5563129252
5563135904
5563145243
5563152018
5563160074
5563170511
5563184061
5563191080
5563199808
5563207132
5563215677
5563225076
5563232279
5563238992
5563248148
5563254984
5563261942
5563268350
5563279153
5563285074
5563293558
5563301614
5563307901
5563315774
5563323953
5563329935
5563337503
5563345682
5563353799
5563360086
5563367837
5563375833
5563383584
5563389627
5563396341
5563405435
5563412210
5563420083
5563428811
5563435891
5563442056
5563449929
5563457925
5563465737
5563472207
5563480691
5563489541
5563497048
5563505776
5563512918
5563519570
5563526772
5563536782
5563543984
5563552773
5563559976
5563568948
5563576394
5563585671
5563592934
5563600503
5563606972
5563615273
5563623940
5563631020
5563639626
5563644875
5563655678
5563660744
5563670693
5563678017
5563686806
5563694191
5563701943
5563708474
5563717141
5563725808
5563734475
5563741066
5563749794
5563756264
5563764138
5563772744
5563777931
5563788185
5563796913
5563803505
5563810524
5563820229
5563828530
5563835121
5563842507
5563850624
5563859657
5563868263
5563874794
5563883339
5563893043
5563900429
5563907021
5563915871
5563925209
5563933021
5563939491
5563944557
5563957313
5563965736
5563976661
5563984413
5563993690
5563998756
5564009926
5564015602
5564026405
5564036842
5564045021
5564052284
5564060096
5564068275
5564074256
5564082130
5564091102
5564100807
5564108497
5564114967
5564122962
5564131141
5564137306
5564145484
5564153846
5564161842
5564167884
5564176612
5564182655
5564190955
5564198829
5564203529
5564214210
5564220985
5564228858
5564235694
5564243995
5564250648
5564258887
5564265601
5564275977
5564285193
5564293189
5564299903
5564308387
5564314429
5564323767
5564329932
5564338172
5564346778
5564353675
5564362342
5564368323
5564378272
5564383460
5564392981
5564400244
5564409522
5564416968
5564425330
5564431860
5564441260
5564450537
5564458167
5564464758
5564476843
5564483801
5564493140
5564499670
5564508887
5564515600
5564524206
5564530676
5564540320
5564547095
5564554419
5564562292
5564569555
5564579260
5564586706
5564594885
5564601294
5564613134
5564620581
5564628820
5564635351
5564643652
5564652502
5564659277
5564668005
5564674719
5564683630
5564692419
5564698889
5564706091
5564714453
5564722021
5564730322
5564736791
5564747411
5564754369
5564763708
5564770177
5564779821
5564788976
5564796484
5564805151
5564811986
5564823644
5564830724
5564840978
5564848363
5564857519
5564866186
5564874547
5564879918
5564890294
5564898961
5564906835
5564911779
5564921178
5564929906
5564938146
5564945958
5564952672
5564959325
5564967870
5564974767
5564984471
5564991124
5564997655
5565006200
5565012853
5565021581
5565027501
5565036107
5565043858
5565049840
5565058080
5565066197
5565072789
5565080785
5565089268
5565095433
5565104039
5565112035
5565118443
5565126439
5565131322
5565140904
5565145604
5565156346
5565161046
5565170506
5565177342
5565185887
5565193150
5565201817
5565211338
5565217930
5565227330
5565235142
5565241673
5565250767
5565257237
5565266758
5565273472
5565282871
5565289341
5565298191
5565304661
5565312046
5565321262
5565328709
5565336765
5565346104
5565354343
5565361729
5565367893
5565376499
5565384678
5565391819
5565401279
5565410496
5565418552
5565425266
5565430271
5565441318
5565448765
5565456333
5565465854
5565474033
5565481357
5565489597
5565496067
5565504551
5565513279
5565520908
5565529514
5565537326
5565544162
5565552951
5565559604
5565567050
5565577548
5565586032
5565593295
5565598422
5565610202
5565620761
5565627414
5565634616
5565644016
5565651645
5565660251
5565667697
5565678806
5565686801
5565699313
5565704257
5565715121
5565720004
5565729159
5565736056
5565746737
5565755038
5565764071
5565770846
5565779757
5565786471
5565793429
5565802218
5565810092
5565816928
5565824069
5565832919
5565839877
5565846102
5565854708
5565860934
5565869113
5565877291
5565884982
5565892977
5565899630
5565907626
5565914401
5565922518
5565927218
5565937899
5565943087
5565954256
5565959261
5565968844
5565976290
5565983858
5565993319
5566001009
5566007845
5566017184
5566025912
5566032809
5566041475
5566048922
5566057589
5566064303
5566073031
5566078341
5566088839
5566096102
5566104097
5566111605
5566119783
5566126375
5566135653
5566145479
5566153841
5566160433
5566169832
5566176363
5566185579
5566192293
5566200777
5566207613
5566214876
5566224580
5566231966
5566239473
5566246004
5566255098
5566263887
5566271944
5566281343
5566289583
5566296358
5566305818
5566312410
5566320711
5566327486
5566334749
5566343843
5566351045
5566359224
5566368623
5566376741
5566383271
5566392000
5566398713
5566408113
5566416963
5566424043
5566432771
5566438935
5566448823
5566457429
5566465974
5566471040
5566484223
5566489839
5566504792
5566515290
5566521089
5566532563
5566537385
5566550202
5566557282
5566565156
5566571809
5566579804
5566589265
5566595490
5566603608
5566611848
5566616547
5566626252
5566631135
5566641083
5566647736
5566656220
5566662873
5566670929
5566677582
5566685517
5566694306
5566701691
5566707856
5566715363
5566723542
5566731354
5566738190
5566746918
5566756012
5566764618
5566771332
5566776337
5566787079
5566792389
5566804657
5566809723
5566819794
5566827057
5566834930
5566844269
5566850983
5566857574
5566868134
5566874603
5566883575
5566892120
5566899994
5566906525
5566915008
5566923736
5566929046
5566939911
5566944977
5566954925
5566962311
5566970001
5566979278
5566986175
5566992889
5567001800
5567010711
5567019195
5567025787
5567034881
5567041473
5567050750
5567057281
5567064483
5567073944
5567081207
5567089263
5567095855
5567104583
5567114044
5567120391
5567129058
5567137542
5567146453
5567153167
5567161773
5567169891
5567177215
5567186126
5567192657
5567199981
5567209441
5567216888
5567225005
5567231475
5567240325
5567249785
5567258330
5567264922
5567271758
5567283111
5567288054
5567300078
5567308379
5567318267
5567324370
5567334380
5567340544
5567351958
5567362029
5567373076
5567379485
5567388579
5567396330
5567402983
5567411955
5567425871
5567431975
5567441069
5567449614
5567457243
5567463286
5567472014
5567480681
5567488310
5567494353
5567502287
5567510405
5567518156
5567524138
5567532072
5567540495
5567548552
5567554716
5567563322
5567571257
5567577787
5567584745
5567589750
5567600065
5567606779
5567616789
5567625334
5567631681
5567638700
5567647978
5567655912
5567665922
5567673918
5567682157
5567690580
5567697904
5567705839
5567712858
5567718778
5567727445
5567733854
5567740629
5567751249
5567756498
5567767301
5567777982
5567785001
5567793973
5567803007
5567809720
5567818204
5567826261
5567834501
5567841398
5567849576
5567856656
5567865262
5567874173
5567882352
5567889249
5567897672
5567905912
5567912442
5567920560
5567929410
5567937711
5567946744
5567953946
5567960233
5567969754
5567975858
5567983853
5567992887
5567999356
5568008634
5568016263
5568024381
5568032559
5568038602
5568047574
5568056607
5568063260
5568072049
5568079617
5568089688
5568096097
5568106106
5568115567
5568124905
5568133206
5568142544
5568151272
5568159695
5568168057
5568173794
5568183133
5568191372
5568198330
5568207119
5568214383
5568220852
5568230496
5568237759
5568247402
5568253323
5568262417
5568266628
5568276211
5568284085
5568291287
5568297756
5568309719
5568318691
5568323208
5568331204
5568338345
5568345242
5568355618
5568365200
5568371426
5568379177
5568386745
5568394314
5568401638
5568410549
5568418484
5568424892
5568436184
5568443752
5568452175
5568461757
5568471523
5568478481
5568486965
5568493251
5568503200
5568512294
5568520351
5568529811
5568535976
5568543849
5568550197
5568558864
5568568080
5568573818
5568582546
5568590541
5568599758
5568606777
5568616847
5568624355
5568631130
5568641322
5568646022
5568656703
5568665370
5568673244
5568679835
5568688075
5568696864
5568704555
5568712428
5568719630
5568728175
5568735682
5568741786
5568755824
5568762172
5568770228
5568778346
5568786403
5568793605
5568803004
5568810878
5568817958
5568827418
5568836817
5568844691
5568853297
5568862269
5568870753
5568878749
5568886317
5568893641
5568901515
5568908289
5568919337
5568928004
5568936366
5568943140
5568950709
5568956568
5568962672
5568973292
5568980677
5568989283
5568996180
5569002405
5569011500
5569017298
5569026697
5569034510
5569041041
5569048853
5569056727
5569064661
5569074427
5569078882
5569090723
5569098230
5569106409
5569114466
5569119837
5569127771
5569137903
5569145716
5569153101
5569160852
5569168421
5569177698
5569185938
5569192102
5569203150
5569211023
5569219751
5569227625
5569233423
5569241663
5569249902
5569259851
5569267541
5569273218
5569282007
5569288293
5569298730
5569308191
5569315515
5569323999
5569330346
5569341272
5569347070
5569358178
5569365869
5569374841
5569382226
5569390100
5569398400
5569406945
5569413415
5569423547
5569431176
5569438806
5569446374
5569454125
5569460839
5569468591
5569478967
5569484948
5569494348
5569503625
5569510278
5569521142
5569530297
5569544518
5569552697
5569563378
5569570519
5569581567
5569588036
5569594689
5569602257
5569609032
5569618554
5569626061
5569633507
5569641564
5569647362
5569658410
5569663659
5569672936
5569679406
5569686364
5569695946
5569703270
5569710717
5569718895
5569724999
5569735009
5569742638
5569749840
5569756371
5569763329
5569771507
5569781029
5569790001
5569798851
5569806969
5569813255
5569819115
5569828453
5569837120
5569845482
5569853477
5569861473
5569867699
5569872948
5569879784
5569888145
5569894188
5569901451
5569906090
5569914757
5569920921
5569927086
5569934288
5569941246
5569947410
5569952965
5569960045
5569965660
5569973961
5569978660
5569987266
5569993003
5569998436
5570005760
5570010093
5570018455
5570025962
5570029808
5570036521
5570041343
5570049827
5570055198
5570061363
5570068199
5570074180
5570080345
5570087791
5570093101
5570100669
5570107627
5570114402
5570120078
5570124534
5570131431
5570137229
5570143516
5570149985
5570156516
5570162986
5570169395
5570174583
5570180930
5570186851
5570193809
5570199729
5570203696
5570210837
5570217856
5570224204
5570230857
5570235373
5570240928
5570247397
5570252890
5570258445
5570264975
5570270102
5570277304
5570282859
5570289695
5570295493
5570303122
5570309897
5570316855
5570321067
5570327780
5570334067
5570340415
5570344260
5570351767
5570358725
5570363425
5570373435
5570379660
5570385642
5570393698
5570400046
5570405234
5570412070
5570419821
5570427267
5570433310
5570437704
5570446555
5570451865
5570461813
5570469015
5570475302
5570480856
5570489035
5570495077
5570501425
5570510641
5570514975
5570523337
5570529989
5570536886
5570544088
5570551718
5570558310
5570566000
5570573141
5570578817
5570587118
5570591757
5570600363
5570607138
5570614706
5570620565
5570629171
5570636190
5570643026
5570647726
5570658102
5570665670
5570672811
5570679098
5570685568
5570692281
5570699178
5570704244
5570713705
5570719320
5570727255
5570733968
5570742269
5570748006
5570754598
5570760702
5570770467
5570779500
5570786581
5570791524
5570799459
5570805807
5570811971
5570820699
5570826253
5570831746
5570837606
5570844381
5570851705
5570858663
5570867330
5570872457
5570880025
5570886129
5570892110
5570898519
5570906087
5570914083
5570920674
5570928121
5570934651
5570942830
5570949361
5570956990
5570964620
5570969380
5570977803
5570983785
5570991902
5571130330
5571139729
5571147725
5571158406
5571168049
5571177754
5571186665
5571195942
5571203328
5571211506
5571220906
5571231526
5571240559
5571246662
5571257099
5571264668
5571273457
5571283833
5571290241
5571297871
5571304035
5571314533
5571322285
5571330280
5571339191
5571346088
5571352924
5571360798
5571368183
5571377155
5571385700
5571395588
5571399799
5571409015
5571417499
5571424762
5571432697
5571441852
5571452045
5571459858
5571466999
5571473713
5571481281
5571489826
5571499469
5571507953
5571514667
5571524127
5571531757
5571538532
5571544635
5571555438
5571564350
5571571674
5571579181
5571586139
5571593768
5571604022
5571612872
5571621112
5571627216
5571635028
5571643390
5571650287
5571658221
5571666705
5571675616
5571683307
5571689715
5571694720
5571704913
5571713214
5571721759
5571731158
5571736041
5571745440
5571753009
5571762652
5571768695
5571776141
5571787066
5571794329
5571800677
5571808429
5571817584
5571827349
5571834551
5571845660
5571852007
5571863116
5571869952
5571878130
5571884539
5571895342
5571904620
5571913165
5571922076
5571927874
5571942339
5571949236
5571957720
5571967181
5571974200
5571983355
5571991289
5571998858
5572007097
5572016070
5572024187
5572033037
5572040484
5572047869
5572058428
5572066484
5572074419
5572082415
5572089251
5572096514
5572104631
5572110979
5572118975
5572128496
5572135576
5572144060
5572151506
5572157732
5572165178
5572172807
5572182451
5572190202
5572198686
5572206987
5572212968
5572224748
5572232256
5572239580
5572246721
5572256120
5572263139
5572270341
5572279558
5572288652
5572296403
5572304399
5572313920
5572321489
5572327409
5572335405
5572345353
5572351274
5572361833
5572369279
5572376786
5572383256
5572391923
5572400163
5572409501
5572416642
5572424699
5572430192
5572439225
5572447892
5572455461
5572463761
5572471757
5572480180
5572486222
5572496720
5572507157
5572512956
5572525040
5572534623
5572542252
5572550919
5572559891
5572570267
5572575822
5572586442
5572590226
5572600358
5572607194
5572614762
5572625504
5572634659
5572641556
5572650712
5572657425
5572665360
5572674637
5572680252
5572690506
5572697586
5572702469
5572710221
5572717362
5572726578
5572733109
5572739762
5572747879
5572753433
5572765274
5572773697
5572782242
5572789627
5572795548
5572804886
5572813309
5572820328
5572827957
5572835281
5572844498
5572852127
5572858841
5572866653
5572876602
5572883987
5572890701
5572899917
5572909500
5572916519
5572922683
5572930862
5572940750
5572947403
5572957534
5572964737
5572971756
5572978530
5572987869
5572997024
5573001968
5573013198
5573020889
5573028579
5573036148
5573044082
5573052078
5573058059
5573067886
5573075576
5573083206
5573090408
5573100662
5573110427
5573116348
5573125381
5573135024
5573140517
5573151443
5573158584
5573167190
5573175307
5573184096
5573191176
5573199660
5573204848
5573215957
5573225173
5573233535
5573244521
5573252639
5573260573
5573266738
5573275893
5573286513
5573290602
5573301223
5573309523
5573317275
5573326735
5573335707
5573344313
5573350173
5573357192
5573364699
5573370375
5573380385
5573389479
5573396559
5573404799
5573412001
5573419447
5573426894
5573433974
5573441603
5573448927
5573457045
5573465040
5573472182
5573480971
5573486281
5573495436
5573502333
5573509352
5573518080
5573525709
5573533949
5573540541
5573551649
5573560072
5573566969
5573573500
5573581068
5573589308
5573595838
5573607008
5573613783
5573621839
5573628309
5573636610
5573646253
5573656507
5573664076
5573669935
5573678480
5573687452
5573695692
5573704054
5573709730
5573719862
5573727125
5573734144
5573741773
5573749647
5573757581
5573768018
5573776990
5573784986
5573792615
5573799940
5573808179
5573815626
5573821729
5573833936
5573840162
5573847608
5573860059
5573866651
5573879346
5573884961
5573896497
5573901868
5573913648
5573918592
5573932874
5573940625
5573952039
5573961072
5573970288
5573979382
5573985730
5573995557
5574001538
5574008679
5574017834
5574025830
5574034070
5574041394
5574049329
5574054028
5574064892
5574069531
5574080578
5574088513
5574096692
5574106152
5574112683
5574122082
5574130932
5574139538
5574148266
5574156994
5574163037
5574172619
5574178479
5574186108
5574194226
5574204418
5574210705
5574219006
5574227612
5574235424
5574242077
5574250073
5574256848
5574265392
5574272106
5574281506
5574287670
5574294750
5574302868
5574307507
5574317760
5574322399
5574334179
5574339428
5574349193
5574356884
5574363109
5574369762
5574379101
5574385753
5574392345
5574401562
5574410228
5574417309
5574422802
5574430736
5574438549
5574444530
5574453014
5574461681
5574468456
5574476390
5574484020
5574507091
5574514720
5574524486
5574531566
5574539256
5574547862
5574553661
5574562267
5574569957
5574576000
5574583324
5574591747
5574599254
5574607249
5574613658
5574621654
5574626231
5574634593
5574641429
5574650889
5574657970
5574667918
5574673228
5574685069
5574690684
5574704356
5574709849
5574723460
5574729197
5574741099
5574745921
5574756846
5574764903
5574772166
5574779002
5574790660
5574798167
5574806834
5574813731
5574822642
5574829295
5574835276
5574843699
5574852183
5574860423
5574868174
5574874339
5574883006
5574889842
5574898508
5574904673
5574913462
5574920420
5574929758
5574935923
5574942332
5574950266
5574957163
5574963999
5574972483
5574980784
5574988596
5574994883
5575002085
5575007822
5575015391
5575021067
5575029062
5575037668
5575045359
5575052683
5575059702
5575065134
5575072702
5575079966
5575087595
5575097238
5575103891
5575112497
5575119333
5575126596
5575133737
5575139902
5575146555
5575156626
5575166330
5575172922
5575181711
5575187204
5575193552
5575201303
5575207407
5575216806
5575223703
5575233774
5575238473
5575246591
5575255197
5575261606
5575267465
5575275766
5575284982
5575293222
5575301339
5575308542
5575314401
5575322702
5575329049
5575337777
5575346688
5575352060
5575362924
5575367685
5575376657
5575383432
5575390939
5575397653
5575405770
5575414987
5575423043
5575429696
5575437692
5575443673
5575451241
5575459237
5575468148
5575475289
5575484933
5575493172
5575500192
5575508065
5575514474
5575523019
5575527962
5575541207
5575550545
5575556649
5575564950
5575573372
5575580819
5575586251
5575592415
5575603646
5575611153
5575616707
5575625130
5575632637
5575640084
5575645577
5575653634
5575662056
5575669503
5575674996
5575679451
5575689705
5575696785
5575704232
5575708504
5575719429
5575727120
5575732735
5575741402
5575747017
5575755074
5575760628
5575766609
5575776253
5575785042
5575791512
5575801094
5575809700
5575817390
5575826790
5575835823
5575843269
5575852791
5575860664
5575867073
5575874946
5575881294
5575889351
5575894050
5575905342
5575910286
5575920112
5575924934
5575933235
5575939216
5575947883
5575956611
5575963935
5575973396
5575981636
5575987556
5575995124
5576001655
5576009407
5576017280
5576023933
5576032722
5576041145
5576047309
5576056037
5576061897
5576068610
5576078254
5576083015
5576092719
5576099860
5576111274
5576116462
5576127814
5576137763
5576144843
5576150275
5576164008
5576169379
5576178290
5576185004
5576194343
5576200934
5576208991
5576215766
5576221991
5576232734
5576238898
5576247260
5576255561
5576264472
5576270941
5576280463
5576287421
5576297492
5576306037
5576312506
5576321478
5576330268
5576337226
5576345038
5576352179
5576360907
5576370856
5576377142
5576385016
5576391058
5576398871
5576404303
5576413947
5576422430
5576429266
5576437506
5576443243
5576451117
5576457525
5576463141
5576471686
5576480841
5576486639
5576494696
5576500250
5576507635
5576513739
5576521185
5576527411
5576536261
5576544683
5576552008
5576559088
5576564703
5576573004
5576578741
5576587408
5576596441
5576603826
5576611151
5576618292
5576626348
5576629339
5576640508
5576648321
5576657171
5576662359
5576672674
5576681585
5576688299
5576696844
5576703924
5576711675
5576721746
5576730657
5576738897
5576744939
5576754278
5576759893
5576770818
5576776250
5576786870
5576795049
5576801824
5576811223
5576817632
5576826543
5576833196
5576841619
5576848211
5576857305
5576864751
5576873296
5576881841
5576888616
5576896672
5576903569
5576912786
5576920842
5576927983
5576936650
5576941716
5576952519
5576962041
5576971257
5576977788
5576986333
5576993657
5577002507
5577008000
5577018071
5577023198
5577033940
5577041386
5577049687
5577059636
5577067570
5577074345
5577083256
5577090397
5577099919
5577110295
5577119572
5577127507
5577138249
5577145512
5577154911
5577161442
5577170903
5577179753
5577187016
5577195072
5577202397
5577211186
5577219364
5577225773
5577235172
5577244633
5577250004
5577259098
5577266911
5577272953
5577279667
5577287663
5577296207
5577302311
5577311588
5577318180
5577326115
5577331730
5577339664
5577345585
5577353763
5577362308
5577368656
5577378116
5577384098
5577392460
5577400943
5577409000
5577415043
5577419620
5577430851
5577439212
5577447574
5577452457
5577461368
5577468021
5577475406
5577482242
5577490604
5577496891
5577506473
5577514896
5577520938
5577526798
5577535037
5577543094
5577550784
5577560062
5577567203
5577575137
5577580753
5577588870
5577596378
5577603397
5577609988
5577620975
5577626102
5577634158
5577640811
5577649234
5577655337
5577663638
5577669497
5577678164
5577687625
5577696536
5577706851
5577715762
5577724368
5577731326
5577739871
5577746768
5577755679
5577765139
5577771853
5577780337
5577786380
5577795718
5577801394
5577817935
5577825015
5577833437
5577842898
5577848330
5577855715
5577865908
5577873843
5577882510
5577888857
5577899050
5577906252
5577913515
5577924685
5577928896
5577939638
5577948305
5577953615
5577962404
5577969362
5577977419
5577987856
5577995791
5578001955
5578008608
5578017824
5578023500
5578031496
5578035402
