183991675281
183991679675
183991684741
183991688281
183991692981
183991697620
183991702747
183991709399
183991713916
183991717944
183991721851
183991725757
183991730518
183991734363
183991738147
183991743091
183991747180
183991751575
183991755237
183991760486
183991764514
183991767627
183991772693
183991776904
183991781848
183991786181
183991791980
183991796802
183991801379
183991805102
183991809009
183991814197
183991818957
183991823535
183991827990
183991833117
183991837390
183991840930
183991845752
183991848986
183991852954
183991858813
183991862841
183991866870
183991871142
183991875232
183991879687
183991883654
183991889758
183991893603
183991898303
183991901965
183991906909
183991910693
183991915881
183991921374
183991925524
183991929614
183991934497
183991938586
183991943347
183991947314
183991951281
183991955615
183991961169
183991965807
183991970019
183991974535
183991978625
183991982104
183991987963
183991991930
183991996630
183992001757
183992005846
183992009448
183992013842
183992017931
183992022204
183992027331
183992031481
183992035143
183992039782
183992044543
183992048571
183992053026
183992056750
183992061510
183992066088
183992072191
183992077196
183992080736
183992085131
183992091295
183992095263
183992099779
183992103991
183992107714
183992112719
183992117785
183992122728
183992126818
183992131212
183992135790
183992140246
183992145189
183992149340
183992153490
183992158434
183992162951
183992167650
183992172716
183992177172
183992181200
183992185289
183992189745
183992195482
183992199205
183992204210
183992208605
183992212328
183992218981
183992221971
183992227281
183992231554
183992235704
183992240160
183992244188
183992248705
183992252916
183992256395
183992261766
183992265856
183992270006
183992274095
183992278246
183992282823
183992287157
183992291795
183992296251
183992300340
183992305711
183992310289
183992314317
183992319261
183992323595
183992327074
183992332384
183992336351
183992341905
183992346178
183992350450
183992354845
183992360948
183992364732
183992371751
183992375841
183992380784
183992385850
183992390733
183992394822
183992400743
183992405443
183992410570
183992415880
183992420579
183992425218
183992430101
183992434495
183992439622
183992444688
183992450303
183992455796
183992460618
183992463365
183992469529
183992475328
183992480210
183992484117
183992488572
183992494859
183992499559
183992503526
183992508103
183992513597
183992518235
183992522691
183992528245
183992533128
183992538255
183992542832
183992547105
183992553208
183992557176
183992563157
183992567063
183992572190
183992576890
183992582993
183992586655
183992592698
183992596604
183992601426
183992606309
183992611253
183992616380
183992621262
183992625779
183992630784
183992634812
183992639756
183992646104
183992651231
183992655259
183992659897
183992664353
183992669846
183992675522
183992679490
183992685044
183992689622
183992694443
183992698350
183992704331
183992708970
183992713486
183992718613
183992723374
183992727524
183992734482
183992738266
183992743332
183992747849
183992752854
183992757553
183992762497
183992766282
183992773484
183992776230
183992782639
183992788132
183992792832
183992797226
183992802109
183992806076
183992810654
183992816574
183992820969
183992826523
183992830918
183992835434
183992840683
183992845444
183992850876
183992855942
183992862290
183992866745
183992871140
183992877121
183992882614
183992887558
183992892258
183992897385
183992901840
183992907211
183992912766
183992918198
183992922958
183992928085
183992932297
183992937668
183992943466
183992948044
183992953537
183992959762
183992965866
183992971237
183992974533
183992980942
183992988083
183992992294
183992999985
183993004928
183993009445
183993014389
183993018783
183993024276
183993029342
183993034958
183993040512
183993046066
183993051376
183993056381
183993059616
183993067001
183993071823
183993077011
183993082199
183993087265
183993092819
183993098373
183993101669
183993108566
183993112960
183993119613
183993124435
183993129196
183993133163
183993138900
183993142806
183993149154
183993154586
183993159774
183993164535
183993169235
183993174178
183993179000
183993182967
183993187362
183993195052
183993200362
183993204208
183993210677
183993215865
183993220870
183993224654
183993229049
183993235397
183993240218
183993246688
183993251693
183993255782
183993261275
183993265060
183993269454
183993275741
183993281783
183993285689
183993290389
183993296004
183993301192
183993305709
183993311080
183993315841
183993320662
183993326522
183993330855
183993336837
183993341109
183993345687
183993350325
183993356734
183993361556
183993366072
183993371260
183993375716
183993381209
183993385604
183993389876
183993396407
183993400862
183993407515
183993411238
183993417281
183993421797
183993426253
183993431746
183993436507
183993441145
183993446578
183993452498
183993457015
183993461958
183993466780
183993470931
183993477034
183993482832
183993487959
183993492659
183993498213
183993503157
183993508223
183993513289
183993519026
183993524092
183993529280
183993534346
183993542280
183993550215
183993557295
183993564863
183993575667
183993583967
183993592756
183993599165
183993607405
183993614119
183993620039
183993629561
183993636213
183993645063
183993652266
183993658857
183993668684
183993677229
183993683027
183993693037
183993701216
183993706526
183993714338
183993720442
183993728620
183993737104
183993744734
183993754438
183993760236
183993764448
183993769026
183993773969
183993777448
183993783125
183993787397
183993791853
183993796674
183993800581
183993804182
183993808454
183993814436
183993819440
183993824262
183993827741
183993832807
183993835859
183993840925
183993845624
183993850934
183993855024
183993859479
183993863019
183993867841
183993874006
183993878034
183993883283
183993887433
183993891462
183993896100
183993900556
183993905011
183993908796
183993913862
183993918439
183993923261
183993927106
183993931684
183993936322
183993941816
183993946637
183993950238
183993954633
183993959027
183993961957
183993970441
183993974530
183993979535
183993983991
183993988874
183993992780
183993996869
183994002484
183994007001
183994011518
183994016950
183994020062
183994025189
183994029584
183994035687
183994040021
183994046002
183994050702
183994056317
183994061688
183994066998
183994072308
183994077618
183994082074
183994087262
183994091473
183994096478
183994101666
183994108807
183994116254
183994119366
183994125653
183994131207
183994137006
183994141888
183994146466
183994151593
183994156109
183994162091
183994166669
183994172162
183994176007
183994180462
183994185406
183994191083
183994196087
183994202130
183994205670
183994211285
183994215191
183994219525
183994224041
183994229168
183994233807
183994239666
183994243451
183994247662
183994251812
183994257367
183994261212
183994267376
183994273419
183994277996
183994283245
183994287518
183994291912
183994297406
183994301190
183994308514
183994313092
183994318218
183994322430
183994326641
183994330548
183994336041
183994339764
183994346356
183994350750
183994355755
183994359844
183994365399
183994368755
183994373760
183994377972
183994385052
183994389324
183994393414
183994397686
183994402691
183994407024
183994412212
183994416119
183994422039
183994426372
183994430462
183994434734
183994439861
183994444012
183994449322
183994453716
183994458599
183994462932
183994468242
183994472149
183994477215
183994481426
183994486614
183994490642
183994496197
183994500896
183994505657
183994509990
183994513653
183994517925
183994523113
183994526897
183994534710
183994539226
183994542583
183994548626
183994553814
183994558391
183994562175
183994566021
183994573589
183994577068
183994582012
183994586589
183994591228
183994595745
183994600383
183994605144
183994610515
183994616558
183994620952
183994625591
183994629253
183994634868
183994639018
183994645488
183994650432
183994655193
183994659892
183994664287
183994669231
183994673747
183994677898
183994682719
183994687480
183994692302
183994696941
183994701457
183994706218
183994710735
183994714641
183994720256
183994726298
183994731242
183994735210
183994739665
183994744731
183994749126
183994754741
183994758281
183994762919
183994767741
183994772807
183994777141
183994781779
183994786296
183994790080
183994796061
183994800395
183994806254
183994810710
183994814738
183994819743
183994823893
183994827739
183994833720
183994838298
183994843608
183994847575
183994852702
183994856608
183994861857
183994866069
183994871806
183994874858
183994880107
183994884013
183994889140
183994893229
183994898417
183994902201
183994908305
183994912516
183994917704
183994921916
183994926066
183994930827
183994935893
183994939982
183994946940
183994951701
183994956278
183994960795
183994965617
183994970011
183994973734
183994977702
183994985270
183994989603
183994994913
183994999003
183995004191
183995007914
183995012064
183995016276
183995023173
183995026530
183995031840
183995035868
183995040995
183995045206
183995049723
183995054178
183995060587
183995065226
183995068705
183995075052
183995078654
183995082499
183995087687
183995093180
183995098002
183995102701
183995106974
183995111551
183995115030
183995120462
183995124003
183995129862
183995133463
183995139383
183995142862
183995148111
183995151651
183995156473
183995161600
183995167398
183995172342
183995176920
183995181497
183995185892
183995190348
183995194742
183995199137
183995203714
183995208780
183995213724
183995217691
183995222940
183995227640
183995233194
183995237467
183995242288
183995247843
183995252542
183995257059
183995261514
183995266031
183995270609
183995274820
183995279520
183995284830
183995289590
183995293863
183995298318
183995303445
183995308572
183995313089
183995318277
183995323404
183995328165
183995332498
183995337015
183995341836
183995346414
183995350564
183995355142
183995360208
183995365152
183995370218
183995374307
183995381265
183995385537
183995390359
183995395242
183995400552
183995404153
183995409036
183995413553
183995417825
183995422281
183995426858
183995431619
183995436746
183995441629
183995445779
183995450174
183995455667
183995460122
183995464883
183995468423
183995473794
183995478616
183995483132
183995487649
183995491738
183995496255
183995501382
183995506143
183995511819
183995516274
183995521523
183995525552
183995530557
183995534707
183995539834
183995544412
183995549783
183995553933
183995558938
183995562966
183995567971
183995572060
183995575845
183995582314
183995586831
183995592690
183995599282
183995608865
183995616067
183995624306
183995632058
183995639809
183995650674
183995657693
183995668007
183995676735
183995683693
183995690896
183995700905
183995709084
183995719460
183995726174
183995735268
183995742287
183995746621
183995751076
183995755349
183995760659
183995764504
183995769142
183995773293
183995780251
183995784889
183995789467
183995794228
183995798928
183995803993
183995808571
183995812721
183995816750
183995821633
183995825905
183995831703
183995835915
183995839455
183995845680
183995849892
183995854469
183995859474
183995863136
183995868141
183995872353
183995876381
183995881142
183995886024
183995890907
183995894569
183995899086
183995904579
183995908485
183995914162
183995918373
183995922340
183995928078
183995933144
183995938393
183995943031
183995948891
183995952736
183995958534
183995964088
183995968483
183995974220
183995979652
183995984474
183995989845
183995996010
183996000770
183996006447
183996012001
183996016639
183996022743
183996026405
183996032753
183996036842
183996042884
183996045692
183996053138
183996058021
183996063575
183996068397
183996073097
183996077308
183996082496
183996087501
183996092994
183996097999
183996102394
183996106544
183996110816
183996115394
183996119666
183996124549
183996128822
183996134681
183996140601
183996145728
183996151283
183996156959
183996162452
183996167518
183996171790
183996177772
183996183570
183996188331
183996193519
183996198951
183996204078
183996208411
183996214088
183996219398
183996224341
183996227088
183996233497
183996238868
183996243751
183996248755
183996254859
183996260596
183996262977
183996269202
183996275245
183996279761
183996283790
183996289832
183996294837
183996299354
183996306556
183996311133
183996317237
183996322181
183996326697
183996331824
183996335852
183996340125
183996347327
183996351661
183996356848
183996361548
183996365515
183996371192
183996376441
183996381690
183996387488
183996392249
183996396521
183996401282
183996405554
183996409522
183996416785
183996421301
183996427283
183996431311
183996436926
183996441382
183996445838
183996452185
183996458228
183996463355
183996468298
183996473669
183996478247
183996482397
183996486914
183996493201
183996498083
183996504126
183996508581
183996512671
183996517187
183996522681
183996527991
183996532446
183996538245
183996543616
183996547888
183996552527
183996556250
183996562659
183996567541
183996573950
183996577551
183996583288
183996587378
183996592932
183996597815
183996604345
183996611731
183996616858
183996621435
183996625952
183996630468
183996635473
183996641150
183996645300
183996651403
183996655554
183996660925
183996666235
183996670080
183996675634
183996681860
183996686743
183996692480
183996697180
183996702612
183996706884
183996711218
183996718969
183996724828
183996727880
183996734167
183996739843
183996744299
183996746496
183996753881
183996759985
183996764623
183996769384
183996774816
183996779272
183996784521
183996788244
183996796178
183996801244
183996806005
183996811925
183996815527
183996821447
183996824926
183996831518
183996835424
183996841527
183996847204
183996851049
183996855565
183996860143
183996865453
183996870824
183996875585
183996881200
183996886510
183996890416
183996895726
183996899022
183996904577
183996910253
183996916417
183996920995
183996924901
183996929601
183996935155
183996942846
183996948033
183996953038
183996958959
183996962804
183996968419
183996972753
183996978063
183996984227
183996989415
183996994969
183996999303
183997004064
183997009435
183997013280
183997020665
183997026280
183997032323
183997036839
183997041173
183997045812
183997050206
183997056798
183997062657
183997067113
183997073033
183997076634
183997082127
183997085912
183997091344
183997096654
183997103062
183997107152
183997112950
183997118138
183997122410
183997127171
183997132359
183997139012
183997143773
183997148350
183997153111
183997158909
183997162388
183997167454
183997172093
183997178135
183997183201
183997187474
183997192112
183997196263
183997201329
183997207432
183997213841
183997218052
183997223973
183997227330
183997233006
183997237400
183997243504
183997247837
183997253758
183997258213
183997263279
183997267918
183997272557
183997278538
183997284703
183997289402
183997294163
183997299656
183997305149
183997308872
183997314366
183997320469
183997325962
183997330357
183997335911
183997340305
183997344639
183997350559
183997355625
183997362156
183997367466
183997372044
183997376438
183997381138
183997385899
183997392307
183997397922
183997402439
183997408054
183997412327
183997418064
183997423069
183997425815
183997430637
183997438389
183997442173
183997447971
183997451816
183997457248
183997461155
183997467319
183997472019
183997477878
183997482517
183997487827
183997493320
183997496860
183997501743
183997506809
183997513279
183997518406
183997522556
183997527134
183997532505
183997536106
183997542514
183997547336
183997552829
183997557224
183997561252
183997567111
183997574253
183997583957
183997590915
183997598239
183997607273
183997616977
183997629001
183997636569
183997647556
183997655795
183997663303
183997674045
183997677524
183997688815
183997698032
183997705844
183997714328
183997719699
183997723910
183997728671
183997733188
183997736606
183997742282
183997747958
183997752231
183997756503
183997760653
183997764621
183997769870
183997774325
183997780307
183997784274
183997789401
183997792880
183997797030
183997801059
183997806125
183997810702
183997814669
183997818881
183997823825
183997827670
183997832431
183997837130
183997840487
183997844882
183997849704
183997855197
183997861178
183997865512
183997869845
183997874850
183997880648
183997885653
183997890658
183997895541
183997899874
183997905734
183997910250
183997913973
183997919772
183997923800
183997929476
183997932650
183997938204
183997942843
183997946932
183997950594
183997956393
183997961459
183997966708
183997971957
183997975924
183997981478
183997985690
183997989962
183997996188
183998000094
183998005343
183998010042
183998016207
183998019991
183998024874
183998030672
183998035555
183998039400
183998047152
183998051363
183998056917
183998062472
183998067660
183998072237
183998077364
183998082491
183998087801
183998092440
183998097445
183998101961
183998106905
183998112032
183998116854
183998121676
183998128878
183998133211
183998137667
183998142427
183998148043
183998152132
183998157625
183998161837
183998166231
183998172212
183998176607
183998182100
183998185884
183998191439
183998195345
183998199495
183998207430
183998212007
183998218538
183998222688
183998228365
183998233309
183998237947
183998243074
183998248323
183998253694
183998258882
183998263521
183998266206
183998272432
183998278596
183998281831
183998288667
183998294954
183998299226
183998304597
183998309419
183998315279
183998320039
183998324861
183998332918
183998337434
183998344087
183998347749
183998353181
183998358186
183998363679
183998369233
183998374849
183998381013
183998385469
183998391450
183998395356
183998399812
183998405305
183998411592
183998415864
183998423372
183998428498
183998433137
183998438386
183998443452
183998449372
183998454072
183998458772
183998465058
183998471406
183998476960
183998481782
183998487031
183998491365
183998496736
183998501130
183998507417
183998514253
183998518098
183998524751
183998529939
183998534272
183998540070
183998544892
183998549897
183998555451
183998561372
183998566254
183998570527
183998577241
183998581818
183998587250
183998592622
183998596955
183998603242
183998609040
183998614533
183998619965
183998624787
183998630158
183998634553
183998639863
183998645112
183998651215
183998656159
183998660187
183998666779
183998671174
183998676484
183998682160
183998686493
183998692231
183998698090
183998702912
183998708405
183998714264
183998719757
183998724579
183998727936
183998735627
183998741547
183998745941
183998750214
183998756745
183998762482
183998767487
183998772003
183998777680
183998784271
183998789459
183998795563
183998802521
183998807892
183998813446
183998819733
183998825104
183998830231
183998835053
183998840668
183998845490
183998850922
183998856171
183998860931
183998867096
183998873322
183998877655
183998883820
183998889191
183998891998
183998898651
183998904694
183998908050
183998915436
183998920990
183998925201
183998929962
183998936432
183998941925
183998947601
183998951690
183998959686
183998965240
183998970489
183998975006
183998980316
183998985321
183998990814
183998996795
183999002899
183999009002
183999013153
183999018951
183999024261
183999029693
183999032989
183999039886
183999043365
183999049957
183999055389
183999060211
183999065399
183999071807
183999076568
183999081329
183999086029
183999093231
183999098358
183999103362
183999108123
183999115020
183999119842
183999125091
183999130096
183999136382
183999141753
183999147735
183999153289
183999157195
183999162627
183999167999
183999172210
183999178497
183999185027
183999189178
183999193328
183999199920
183999205840
183999209380
183999215789
183999220122
183999228057
183999233306
183999238311
183999243743
183999248748
183999253325
183999258697
183999263946
183999270171
183999275725
183999281463
183999286773
183999290740
183999296599
183999301970
183999306792
183999312529
183999317717
183999324065
183999328337
183999334868
183999339324
183999345305
183999350249
183999354399
183999363372
183999367583
183999374236
183999378874
183999384307
183999389067
183999394377
183999399809
183999405486
183999411528
183999415984
183999420256
183999426299
183999431914
183999435393
183999441618
183999445769
183999452971
183999458098
183999462920
183999468474
183999473540
183999478178
183999483549
183999488615
183999494231
183999499724
183999505278
183999511015
183999515166
183999520842
183999526030
183999530363
183999535795
183999541899
183999547270
183999552214
183999557463
183999563688
183999568815
183999573820
183999577971
183999584807
183999589567
183999595244
183999601103
183999606596
183999610685
183999617277
183999621428
183999627775
183999634733
183999640409
183999644926
183999650480
183999655790
183999660978
183999665373
183999670683
183999678556
183999684294
183999688566
183999694120
183999698881
183999704862
183999709867
183999714201
183999721281
183999726530
183999731535
183999736112
183999741605
183999746488
183999751798
183999756681
183999764738
183999770780
183999776517
183999781217
183999786527
183999791166
183999796781
183999801481
183999807340
183999813993
183999818326
183999822599
183999828519
183999833463
183999838712
183999845060
183999849698
183999857633
183999862760
183999868192
183999876676
183999886258
183999893155
183999902738
183999909391
183999922391
183999930143
183999944303
183999953580
183999960294
183999970120
183999977384
183999985257
183999992887
184000002591
184000009427
184000020474
184000025662
184000030179
184000035001
184000041165
184000045987
184000050626
184000055753
184000061124
184000064908
184000070035
184000074185
184000080838
184000085355
184000088956
184000093228
184000098355
184000103360
184000106595
184000111050
184000118008
184000122952
184000126980
184000131131
184000135586
184000139920
184000144925
184000149746
184000154080
184000160122
184000163357
184000168423
184000172085
184000176419
184000181180
184000188443
184000193448
184000200039
184000203762
184000208462
184000213650
184000218838
184000223782
184000227566
184000233670
184000238980
184000243130
184000248013
184000254788
184000260403
184000264248
184000269253
184000275173
184000280972
184000286526
184000290249
184000294277
184000299893
184000303677
184000308926
184000313748
184000320583
184000325039
184000330776
184000334560
184000339443
184000344936
184000349453
184000355679
184000361477
184000365810
184000370022
184000374844
184000379543
184000384426
184000389370
184000394924
184000399868
184000405178
184000410610
184000415493
184000419460
184000424526
184000430019
184000432949
184000437649
184000445766
184000448879
184000455410
184000459987
184000464870
184000468837
184000473659
184000479702
184000485805
184000490444
184000495876
184000501430
184000506984
184000511806
184000516872
184000524684
184000528163
184000534755
184000538539
184000544521
184000549892
184000554531
184000559780
184000567470
184000573146
184000578273
184000583949
184000588588
184000592433
184000597560
184000602260
184000608180
184000613124
184000619289
184000624049
184000629848
184000635036
184000640102
184000644252
184000647731
184000655544
184000661037
184000665492
184000670680
184000676662
184000682948
184000685817
184000693263
184000697597
184000703700
184000707851
184000714625
184000718959
184000723781
184000730189
184000734157
184000741115
184000745021
184000751674
184000755885
184000761256
184000766505
184000771937
184000777003
184000783229
184000788844
184000794764
184000800258
184000805629
184000810206
184000815577
184000819850
184000824366
184000831080
184000836573
184000841456
184000846827
184000852992
184000857203
184000863429
184000868800
184000875270
184000880213
184000885645
184000890223
184000895594
184000901331
184000906825
184000912440
184000915797
184000923182
184000928553
184000933009
184000937159
184000943324
184000948084
184000953089
184000957728
184000966029
184000971644
184000976588
184000981470
184000986964
184000991480
184000996912
184001002894
184001008326
184001013514
184001019495
184001022913
184001029993
184001035975
184001039332
184001044092
184001049891
184001057398
184001062891
184001067408
184001072229
184001078577
184001083521
184001088648
184001092371
184001099451
184001105127
184001110010
184001115625
184001120569
184001125696
184001131067
184001136866
184001142481
184001147119
184001152857
184001157984
184001163416
184001169214
184001174707
184001178919
184001183679
184001189478
184001195398
184001200342
184001206201
184001212427
184001216882
184001221643
184001226892
184001234155
184001238855
184001244959
184001250024
184001255151
184001259668
184001264795
184001270959
184001275720
184001282495
184001288538
184001293848
184001299097
184001303491
184001308801
184001312952
184001318506
184001326196
184001331872
184001336389
184001340539
184001346826
184001352380
184001357263
184001362634
184001368493
184001374292
184001379480
184001384301
184001389795
184001395349
184001400842
184001405420
184001411035
184001417382
184001421838
184001427514
184001432763
184001437768
184001443078
184001447351
184001452844
184001458154
184001463891
184001468896
184001475366
184001480432
184001485803
184001490746
184001495507
184001501061
184001506066
184001511498
184001516564
184001522118
184001527062
184001532311
184001537133
184001542992
184001549767
184001554162
184001558495
184001563927
184001568871
184001574486
184001580834
184001585229
184001593224
184001597924
184001602990
184001606957
184001613976
184001618798
184001624230
184001629357
184001634972
184001641015
184001645470
184001650902
184001656395
184001661461
184001666710
184001671044
184001676537
184001684716
184001688317
184001694786
184001699608
184001704674
184001709557
184001714501
184001719200
184001726891
184001731285
184001736962
184001741905
184001747155
184001753197
184001757286
184001763634
184001767845
184001774986
184001780663
184001785668
184001791283
184001795738
184001801537
184001805870
184001810936
184001818810
184001823570
184001828514
184001833641
184001838524
184001842796
184001849632
184001854271
184001860130
184001865257
184001871178
184001876610
184001881859
184001886192
184001891868
184001896080
184001902550
184001909019
184001914757
184001919456
184001924888
184001929283
184001934166
184001940330
184001944237
184001950645
184001955894
184001960594
184001965843
184001970726
184001974937
184001981529
184001986290
184001992332
184001998008
184002003929
184002009178
184002013328
184002018943
184002024375
184002028709
184002033470
184002038963
184002045372
184002050498
184002055564
184002061668
184002066917
184002071922
184002076866
184002084251
184002090415
184002095176
184002099510
184002104637
184002110496
184002114707
184002119041
184002125816
184002132224
184002138023
184002141013
184002146873
184002151939
184002158164
184002163047
184002167319
184002175315
184002180076
184002186484
184002191306
184002196128
184002201194
184002210105
184002219565
184002228721
184002237205
184002247397
184002257041
184002266501
184002273948
184002283347
184002292991
184002304038
184002312644
184002320945
184002328147
184002337546
184002344321
184002353415
184002359824
184002366477
184002370261
184002375693
184002380271
184002385092
184002390769
184002395468
184002399680
184002407553
184002412558
184002417319
184002422690
184002426474
184002431784
184002436057
184002438864
184002446616
184002450461
184002454794
184002459006
184002462668
184002467062
184002472006
184002476889
184002479636
184002486166
184002490317
184002495871
184002500876
184002505942
184002511008
184002518027
184002521994
184002528280
184002531393
184002536947
184002540304
184002545981
184002550497
184002555807
184002560202
184002566916
184002570761
184002576437
184002580648
184002586752
184002590841
184002596395
184002601461
184002605978
184002610250
184002616964
184002621786
184002627462
184002633810
184002639120
184002644064
184002648825
184002654257
184002659811
184002665060
184002668417
184002675741
184002680258
184002687643
184002692526
184002698629
184002703268
184002708273
184002713522
184002716879
184002724569
184002728964
184002735372
184002739217
184002745016
184002751180
184002755514
184002760030
184002765829
184002770711
184002776937
184002782125
184002787008
184002791646
184002796407
184002803548
184002808553
184002812826
184002819112
184002824483
184002829732
184002835531
184002840413
184002845723
184002851949
184002858846
184002863057
184002869222
184002875203
184002880513
184002884908
184002889608
184002897420
184002901693
184002907796
184002911702
184002918355
184002922506
184002927755
184002933004
184002939412
184002944722
184002950398
184002953206
184002960042
184002964253
184002970479
184002974812
184002980062
184002985249
184002991475
184002996236
184003000264
184003006917
184003011311
184003016621
184003021260
184003027425
184003030537
184003037434
184003041707
184003047017
184003053181
184003058064
184003062825
184003068990
184003074116
184003078755
184003085103
184003089986
184003096028
184003100117
184003105183
184003110798
184003116170
184003121724
184003127583
184003132527
184003137410
184003141804
184003147114
184003150898
184003158101
184003162251
184003166218
184003172993
184003178486
184003183552
184003188862
184003193867
184003198323
184003203877
184003209675
184003216206
184003220661
184003226277
184003229328
184003236592
184003242878
184003246479
184003252095
184003258625
184003263386
184003268391
184003275166
184003280354
184003285481
184003289387
184003296345
184003300739
184003306660
184003312763
184003316914
184003322041
184003327900
184003333332
184003339558
184003344929
184003351154
184003357380
184003361530
184003367390
184003371052
184003376301
184003382404
184003388080
184003393940
184003401325
184003404804
184003411701
184003415363
184003421528
184003427387
184003434162
184003438862
184003444294
184003448810
184003453998
184003458576
184003463886
184003468525
184003474750
184003479206
184003484760
184003489948
184003495685
184003501789
184003507648
184003512775
184003517353
184003523578
184003527545
184003532306
184003537372
184003541767
184003547077
184003551837
184003557514
184003563068
184003568561
184003573505
184003578571
184003583209
184003588519
184003593768
184003599445
184003604938
184003610614
184003615558
184003621051
184003626178
184003631732
184003636798
184003643085
184003647968
184003654132
184003660968
184003666095
184003669818
184003676227
184003680804
184003686114
184003690570
184003697284
184003702045
184003706866
184003711139
184003715899
184003721393
184003729571
184003735797
184003741412
184003746844
184003752520
184003759967
184003765033
184003771075
184003776751
184003782916
184003788287
184003791644
184003797931
184003801593
184003807635
184003813494
184003818194
184003823443
184003829486
184003833514
184003839129
184003843951
184003849932
184003854266
184003860858
184003865191
184003870623
184003876116
184003880755
184003886187
184003891070
184003896990
184003901507
184003908343
184003912981
184003918169
184003922381
184003927569
184003932208
184003939288
184003944598
184003949358
184003954913
184003959917
184003964678
184003970110
184003974383
184003980974
184003986407
184003992022
184003997149
184004002215
184004008379
184004013201
184004018023
184004023638
184004028277
184004035723
184004040178
184004047625
184004053179
184004057268
184004063067
184004066118
184004072039
184004076921
184004082659
184004086870
184004092607
184004096941
184004103289
184004110002
184004115618
184004120806
184004126421
184004131182
184004136614
184004141985
184004147234
184004152300
184004157610
184004162309
184004167620
184004172014
184004178728
184004182390
184004187944
184004193804
184004198808
184004203935
184004208757
184004213396
184004218156
184004222185
184004230241
184004235490
184004240190
184004245195
184004250078
184004255022
184004260088
184004265153
184004271867
184004276018
184004281816
184004285417
184004291398
184004295427
184004301469
184004305620
184004310808
184004317094
184004321794
184004329240
184004334611
184004339982
184004345353
184004350725
184004355912
184004362138
184004367936
184004374040
184004379777
184004385881
184004389726
184004396196
184004401078
184004408891
184004413468
184004420426
184004426103
184004431352
184004437150
184004442399
184004447709
184004452348
184004456986
184004462907
184004468156
184004472550
184004478532
184004490128
184004499162
184004508012
184004516496
184004527787
