89681317412
89681324187
89681331572
89681337736
89681343596
89681349760
89681356718
89681365446
89681371916
89681379912
89681386687
89681394438
89681400786
89681406767
89681413115
89681419829
89681427153
89681434904
89681442656
89681449675
89681457365
89681464506
89681472258
89681477262
89681484831
89681489958
89681497099
89681503752
89681510099
89681516691
89681523588
89681529631
89681536650
89681542387
89681548124
89681557524
89681564481
89681571256
89681578459
89681585600
89681591337
89681597074
89681605619
89681610258
89681619535
89681626798
89681633634
89681639799
89681647855
89681654325
89681660429
89681667936
89681675321
89681681974
89681688322
89681694974
89681704862
89681709867
89681720487
89681725980
89681732206
89681739469
89681746488
89681752713
89681759244
89681766874
89681772000
89681779081
89681784452
89681792813
89681799100
89681807218
89681813565
89681820645
89681826627
89681833707
89681839688
89681846219
89681851956
89681859769
89681865750
89681872342
89681877774
89681885342
89681891873
89681898587
89681902798
89681911710
89681918362
89681925442
89681931119
89681937283
89681943570
89681949551
89681954617
89681961087
89681967251
89681973477
89681979764
89681984585
89681991788
89681996487
89682002530
89682009427
89682016507
89682022671
89682030484
89682036770
89682043667
89682049466
89682056790
89682062771
89682070340
89682074124
89682082608
89682086514
89682095791
89682103298
89682109036
89682117275
89682122647
89682129055
89682135952
89682143521
89682149868
89682158413
89682165981
89682174221
89682178249
89682186550
89682193752
89682200649
89682206448
89682213345
89682220242
89682225002
89682230984
89682237575
89682244289
89682248928
89682254848
89682261135
89682267910
89682273342
89682281948
89682287807
89682295498
89682301845
89682309597
89682315639
89682322353
89682329738
89682336574
89682344997
89682352321
89682360012
89682366237
89682373622
89682380397
89682387538
89682394008
89682402248
89682408718
89682417201
89682424831
89682431178
89682436794
89682448085
89682453212
89682462245
89682469753
89682478053
89682484523
89682491908
89682498012
89682507533
89682516200
89682523769
89682532130
89682540065
89682548793
89682551601
89682564174
89682569728
89682580104
89682584926
89682595912
89682602992
89682612513
89682619716
89682626674
89682633143
89682643458
89682649989
89682658168
89682666468
89682674830
89682681239
89682689845
89682696376
89682703334
89682712062
89682719752
89682727992
89682737025
89682744349
89682750269
89682760340
89682767115
89682775721
89682782374
89682791651
89682798365
89682803675
89682816492
89682824854
89682833582
89682841395
89682849757
89682856715
89682864466
89682874109
89682881922
89682888758
89682897059
89682905359
89682913355
89682920923
89682931238
89682940760
89682950342
89682958277
89682965235
89682973474
89682982691
89682990137
89682997278
89683005823
89683015528
89683020899
89683030969
89683039270
89683047876
89683056726
89683067285
89683075159
89683085962
89683092859
89683100916
89683110559
89683118860
89683126611
89683137781
89683147485
89683150537
89683162805
89683170434
89683179529
89683187890
89683194970
89683202112
89683212671
89683220178
89683229944
89683236963
89683246850
89683254052
89683261926
89683271814
89683279748
89683287988
89683294396
89683303979
89683310632
89683319787
89683328698
89683331567
89683343224
89683352624
89683359033
89683364160
89683376367
89683381249
89683391930
89683400414
89683407433
89683415185
89683423974
89683430444
89683439843
89683446496
89683454858
89683463402
89683471825
89683480370
89683486840
89683495507
89683503258
89683511742
89683516930
89683526696
89683532128
89683542565
89683549889
89683558800
89683565880
89683574242
89683580712
89683590477
89683596886
89683605553
89683614098
89683623497
89683629906
89683638756
89683645775
89683654747
89683661278
89683670494
89683677391
89683684593
89683694176
89683701256
89683710106
89683717491
89683724388
89683732872
89683741661
89683748192
89683754112
89683765953
89683770897
89683781273
89683789940
89683796776
89683803734
89683811973
89683818687
89683827659
89683834678
89683843040
89683850853
89683858848
89683865074
89683873680
89683881126
89683891014
89683897605
89683900413
89683913719
89683918846
89683929160
89683935020
89683943565
89683950889
89683959068
89683965965
89683974326
89683982078
89683990867
89683997215
89684004600
89684015037
89684021629
89684030173
89684039390
89684046592
89684055930
89684062461
89684067466
89684079062
89684084311
89684095359
89684100791
89684113059
89684121116
89684128013
89684138327
89684146201
89684153098
89684163230
89684172995
89684181235
89684188620
89684194052
89684206259
89684214072
89684221640
89684229270
89684237998
89684245139
89684251059
89684264304
89684269858
89684280173
89684288290
89684297934
89684306723
89684315085
89684321616
89684329062
89684338095
89684341086
89684353415
89684358237
89684368307
89684373800
89684385458
89684390524
89684401144
89684408285
89684416464
89684422873
89684432028
89684438559
89684447348
89684456076
89684462484
89684471151
89684476095
89684486166
89684493429
89684500997
89684511251
89684519552
89684527059
89684533712
89684542135
89684549642
89684557943
89684564047
89684573019
89684581686
89684587972
89684595113
89684605184
89684612508
89684620504
89684627889
89684635458
89684642049
89684650472
89684659200
89684666341
89684675374
89684680562
89684690755
89684695882
89684706014
89684713399
89684721517
89684730855
89684738607
89684745321
89684754049
89684760457
89684769002
89684777181
89684780294
89684792806
89684797994
89684808003
89684815572
89684822896
89684829305
89684838033
89684846700
89684855122
89684861531
89684866536
89684876607
89684883809
89684892964
89684900105
89684908833
89684916280
89684925374
89684931843
89684940571
89684947407
89684957051
89684963582
89684970601
89684979878
89684989033
89684995503
89685004048
89685010701
89685018147
89685028157
89685035176
89685043232
89685051167
89685060749
89685067707
89685076313
89685085652
89685088825
89685102986
89685108479
89685117695
89685126545
89685137531
89685145283
89685154316
89685162434
89685168964
89685178730
89685186909
89685196247
89685199421
89685212971
89685218403
89685230122
89685237141
89685245136
89685253437
89685263752
89685271259
89685279072
89685285602
89685296039
89685303608
89685311786
89685321064
89685330463
89685337726
89685343341
89685354328
89685362690
89685371784
89685379657
89685387897
89685395038
89685403278
89685412494
89685418292
89685429157
89685434589
89685445392
89685450519
89685460895
89685468219
89685477008
89685484271
89685492511
89685499286
89685508685
89685515155
89685520099
89685531390
89685536639
89685547626
89685557086
89685563373
89685570514
89685579059
89685586871
89685596515
89685603595
89685611590
89685618731
89685627642
89685633990
89685643145
89685652118
89685658587
89685667071
89685672503
89685683490
89685688677
89685698992
89685704486
89685714190
89685721392
89685729632
89685736712
89685745501
89685753924
89685763262
89685769671
89685777728
89685786578
89685795306
89685801714
89685806597
89685818682
89685824786
89685835467
89685842913
89685851275
89685858416
89685867266
89685874041
89685883562
89685890154
89685899675
89685906756
89685915361
89685921831
89685926836
89685938921
89685943926
89685953142
89685960344
89685969927
89685977129
89685985063
89685991716
89686001360
89686007768
89686016496
89686025469
89686032793
89686041277
89686049516
89686056596
89686061540
89686071550
89686078691
89686088396
89686096574
89686106096
89686113176
89686121110
89686128740
89686135210
89686141496
89686149248
89686159013
89686166215
89686174760
89686182206
89686190690
89686197221
89686206437
89686211503
89686222123
89686227922
89686237626
89686242875
89686253190
89686260575
89686268876
89686278215
89686284928
89686291337
89686301896
89686308793
89686317826
89686324174
89686331986
89686340836
89686346024
89686354936
89686362748
89686372758
89686379899
89686387467
89686393937
89686403336
89686410233
89686419327
89686425797
89686434281
89686440995
89686449235
89686457657
89686463029
89686472611
89686479630
89686488114
89686494828
89686504044
89686510453
89686519303
89686528641
89686535538
89686544632
89686551957
89686560379
89686566056
89686577042
89686582657
89686591812
89686599076
89686608536
89686616898
89686625321
89686632462
89686643082
89686650528
89686660416
89686667435
89686672806
89686684830
89686690506
89686701187
89686709854
89686718582
89686724991
89686734329
89686740738
89686750137
89686756851
89686765579
89686774124
89686781997
89686790542
89686798599
89686805130
89686814224
89686820755
89686828262
89686838272
89686845718
89686854507
89686861953
89686870376
89686876968
89686884719
89686893569
89686901626
89686908035
89686917373
89686924209
89686929031
89686940078
89686947341
89686956985
89686964309
89686972488
89686979934
89686988357
89686994826
89687004165
89687011245
89687020888
89687027358
89687035049
89687044082
89687053542
89687060561
89687069716
89687076247
89687081313
89687092910
89687100539
89687108901
89687116286
89687125136
89687132094
89687142165
89687149733
89687158034
89687167311
89687176345
89687183364
89687189345
89687200820
89687207961
89687215895
89687223647
89687231947
89687238417
89687247694
89687254652
89687262770
89687271376
89687279066
89687285597
89687292860
89687301649
89687308729
89687316725
89687327894
89687334913
89687341200
89687349806
89687358900
89687366102
89687374586
89687382460
89687389540
89687394667
89687405287
89687413038
89687420790
89687427748
89687437147
89687443495
89687451368
89687460401
89687469679
89687476148
89687481214
89687493543
89687498365
89687508436
89687515760
89687524183
89687531202
89687537672
89687546888
89687554701
89687563184
89687566236
89687578443
89687583509
89687594739
89687600355
89687610425
89687617506
89687627515
89687632764
89687642896
89687650159
89687659131
89687666822
89687674390
89687684156
89687692151
89687699109
89687708326
89687716748
89687723523
89687732618
89687741407
89687748243
89687753247
89687764356
89687772168
89687779492
89687786023
89687794873
89687801831
89687811963
89687820569
89687828015
89687835217
89687844006
89687850537
89687855542
89687867017
89687875745
89687882764
89687890515
89687899243
89687906628
89687915173
89687921948
89687930798
89687937451
89687946972
89687953869
89687958996
89687970288
89687975476
89687986218
89687993359
89688002148
89688009777
89688018811
89688026623
89688033825
89688040356
89688049023
89688058056
89688065075
89688073559
89688079174
89688089428
89688098705
89688105175
89688112377
89688120373
89688126965
89688136547
89688143017
89688151684
89688160290
89688167187
89688176220
89688183727
89688192150
89688197399
89688207958
89688216137
89688222607
89688229870
89688238170
89688244518
89688252697
89688259044
89688269298
89688275890
89688284435
89688292003
89688301037
89688309520
89688312511
89688325573
89688330761
89688340831
89688348156
89688357555
89688364696
89688373973
89688381725
89688388561
89688397777
89688404674
89688411449
89688422313
89688428722
89688437022
89688445506
89688453014
89688462901
89688468578
89688477916
89688485789
89688495921
89688503490
89688510142
89688519298
89688526317
89688532664
89688542674
89688550181
89688560801
89688567332
89688575999
89688583201
89688590403
89688599742
89688606822
89688614756
89688622020
89688631297
89688637645
89688646678
89688653269
89688661875
89688668284
89688677317
89688684336
89688691599
89688699900
89688706370
89688715037
89688724497
89688731699
89688740183
89688743296
89688755808
89688763499
89688769968
89688777659
89688787241
89688794504
89688801829
89688808665
89688818552
89688825083
89688833750
89688840708
89688849741
89688856272
89688865488
89688872019
89688880015
89688888315
89688896006
89688904795
89688912668
89688920725
89688927134
89688936289
89688945139
89688952890
89688959360
89688968881
89688975473
89688982675
89688992258
89689000009
89689007272
89689013681
89689022531
89689029001
89689038156
89689046823
89689053720
89689060312
89689070383
89689076730
89689083810
89689092355
89689099924
89689108285
89689114694
89689123727
89689131113
89689139779
89689146249
89689154184
89689162790
89689171274
89689179818
89689188241
89689194894
89689199899
89689211557
89689216562
89689227182
89689235116
89689243966
89689251535
89689260324
89689267282
89689275949
89689285348
89689292733
89689299874
89689309762
89689319100
89689322396
89689334237
89689339547
89689352486
89689358163
89689368783
89689374764
89689384774
89689391915
89689401681
89689408944
89689418526
89689425912
89689434029
89689440621
89689450020
89689456978
89689464608
89689473702
89689478707
89689488228
89689495552
89689505684
89689511238
89689521187
89689528389
89689537484
89689544014
89689552193
89689560555
89689568428
89689577278
89689585213
89689593697
89689601692
89689608223
89689616097
89689625130
89689632393
89689640328
89689648628
89689657173
89689663582
89689672676
89689679329
89689688850
89689695259
89689703621
89689712654
89689721443
89689727791
89689735054
89689744087
89689751045
89689759163
89689766060
89689775947
89689782600
89689791938
89689799202
89689807747
89689814277
89689819343
89689830879
89689835762
89689846015
89689853889
89689862129
89689869148
89689877082
89689883796
89689894660
89689901618
89689910652
89689916999
89689925605
89689934333
89689942085
89689948432
89689955756
89689966010
89689971564
89689981635
89689989082
89689998664
89690005866
89690014777
89690021369
89690030219
89690036689
89690045112
89690053657
89690056586
89690069281
89690074286
89690084540
89690093207
89690100104
89690107062
89690114631
89690125312
89690133734
89690140448
89690149115
89690156256
89690164435
89690172858
89690180670
89690187079
89690194892
89690203253
89690210455
89690219428
89690226447
89690235358
89690241705
89690251105
89690257941
89690268072
89690274542
89690282904
89690289740
89690296820
89690304877
89690312750
89690321722
89690328375
89690337774
89690346991
89690353705
89690362249
89690370550
89690379644
89690387213
89690393621
89690398809
89690411566
89690416876
89690425604
89690432806
89690442022
89690449224
89690457464
89690463873
89690474554
89690481146
89690489935
89690498968
89690505926
89690512396
89690521856
89690528936
89690537908
89690544500
89690551702
89690561407
89690568792
89690577398
89690583868
89690593267
89690599920
89690609319
89690616094
89690625249
89690631841
89690641912
89690650518
89690659246
89690668950
89690676275
89690683782
89690688665
89690700322
89690705510
89690715581
89690722783
89690733037
89690740605
89690748845
89690755498
89690764470
89690771428
89690779973
89690788457
89690796208
89690805303
89690810491
89690820744
89690825993
89690836919
89690844487
89690852361
89690859624
89690868718
89690875676
89690884953
89690891606
89690901372
89690908391
89690915715
89690924809
89690929814
89690940678
89690946110
89690955571
89690962834
89690973149
89690980351
89690988713
89690995549
89691003666
89691010014
89691020085
89691027104
89691037052
89691043400
89691048405
89691059513
89691064762
89691075199
89691080631
89691092899
89691098454
89691108463
89691115543
89691122562
89691132267
89691138432
89691144840
89691154057
89691162846
89691170536
89691177006
89691185734
89691194218
89691199283
89691208683
89691215946
89691223636
89691233402
89691239750
89691246280
89691256839
89691263492
89691271549
89691280033
89691288211
89691294803
89691299930
89691310550
89691315860
89691321659
89691326480
89691331607
89691336612
89691343387
89691348148
89691354679
89691359073
89691364810
89691369388
89691372684
89691380557
89691384586
89691391361
89691396427
89691402591
89691407230
89691412235
89691418948
89691423160
89691427554
89691436038
89691440860
89691445926
89691451663
89691457645
89691462466
89691468082
89691472476
89691478580
89691484561
89691490237
89691495364
89691500125
89691506106
89691512454
89691517459
89691522220
89691529544
89691536075
89691541202
89691546084
89691551394
89691555667
89691561099
89691568728
89691575808
89691580569
89691584903
89691593509
89691597781
89691606875
89691611026
89691621707
89691625918
89691632937
89691639773
89691646121
89691655032
89691659365
89691667727
89691673953
89691679812
89691685610
89691693667
89691700564
89691705569
89691712710
89691718325
89691723391
89691729372
89691734988
89691741763
89691747683
89691754092
89691758730
89691764223
89691770388
89691777041
89691781985
89691786684
89691795229
89691803957
89691809817
89691816958
89691822573
89691829409
89691837465
89691845400
89691852236
89691865481
89691873354
89691880617
89691887270
89691890261
89691903383
89691911074
89691916689
89691924684
89691933596
89691941347
89691946657
89691956667
89691963625
89691966554
89691979189
89691984438
89691993532
89692002260
89692010500
89692018129
89692025270
89692032655
89692040163
89692047792
89692055055
89692060365
89692068971
89692077699
89692085634
89692093873
89692101442
89692108217
89692114137
89692122682
89692129701
89692138002
89692144960
89692151552
89692162843
89692171754
89692179261
89692186891
89692192384
89692200868
89692209657
89692216615
89692223207
89692232972
89692240419
89692249085
89692256105
89692262940
89692271241
89692278199
89692286134
89692292909
89692299867
89692312684
89692319947
89692326051
89692334107
89692340882
89692349305
89692356324
89692361512
89692371888
89692379090
89692387147
89692395203
89692400513
89692409608
89692416627
89692423768
89692430909
89692439332
89692446656
89692452942
89692464539
89692473206
89692480408
89692487732
89692494202
89692500550
89692508301
89692514649
89692521485
89692530152
89692537476
89692542969
89692552552
89692561096
89692568299
89692575073
89692581177
89692592102
89692597351
89692608276
89692616394
89692619751
89692629639
89692637939
89692645020
89692652527
89692659546
89692668640
89692675476
89692684082
89692692139
89692700317
89692707519
89692713135
89692723266
89692728271
89692738769
89692745727
89692752075
89692761596
89692770385
89692778503
89692785583
89692793518
89692800659
89692808654
89692815979
89692823242
89692832946
89692840332
89692846313
89692856201
89692863159
89692870910
89692878906
89692884643
89692893310
89692901122
89692910766
89692918395
89692921325
89692932128
89692939819
89692946716
89692954284
89692959716
89692970519
89692980407
89692988525
89692996276
89693005248
89693012389
89693017699
89693025634
89693033751
89693042052
89693048949
89693056090
89693066771
89693075866
89693082213
89693090026
89693095763
89693104857
89693112670
89693120543
89693127318
89693134032
89693145201
89693153319
89693160765
89693168944
89693176756
89693183714
89693189940
89693198912
89693206053
89693217284
89693224913
89693230467
89693239012
89693246031
89693255553
89693262816
89693268065
89693277830
89693286192
89693295897
89693303343
89693306456
89693318114
89693326292
89693333006
89693339842
89693345396
89693355955
89693364866
89693371519
89693379332
89693387388
89693395445
89693401487
89693412779
89693417784
89693426084
89693433775
89693443479
89693451292
89693459287
89693466123
89693473020
89693478269
89693487669
89693495359
89693504514
89693511655
89693515928
89693527830
89693535764
89693543577
89693551450
89693554685
89693566343
89693573118
89693581419
89693589170
89693598997
89693606748
89693609800
89693620420
89693628293
89693637998
89693645261
89693648374
89693659665
89693669004
89693676450
89693684446
89693693540
89693701291
89693706784
89693714841
89693722959
89693729734
89693738950
89693747067
89693756406
89693764524
89693770200
89693780454
89693787839
89693793942
89693802182
89693809995
89693816892
89693827878
89693835995
89693844052
89693850400
89693857602
89693869443
89693876706
89693883115
89693892087
89693901120
89693909054
89693917294
89693923031
89693932736
89693941830
89693948971
89693956234
89693962033
89693971737
89693976742
89693987484
89693996151
89694004635
89694011959
89694017392
89694026547
89694033627
89694041378
89694049435
89694055844
89694065609
89694073300
89694083187
89694090145
89694096188
89694104855
89694113949
89694121395
89694128902
89694135006
89694144833
89694153316
89694161434
89694168331
89694176571
89694184627
89694192562
89694199947
89694208370
89694211971
89694223751
89694229061
89694239193
89694246395
89694254940
89694262020
89694267452
89694277095
89694284969
89694292965
89694300960
89694307003
89694316951
89694324581
89694332515
89694339717
89694346736
89694353755
89694362972
89694371028
89694379268
89694386836
89694394649
89694400264
89694409419
89694417415
89694420650
89694430721
89694440303
89694448238
89694456172
89694462276
89694472285
89694475520
89694486018
89694494197
89694502193
89694509273
89694517146
89694525447
89694533565
89694541621
89694549617
89694556453
89694563655
89694569392
89694579951
89694584956
89694596492
89694604914
89694610591
89694620661
89694628901
89694634761
89694642085
89694647944
89694656733
89694665705
89694674494
89694682429
89694691706
89694698725
89694704951
89694714411
89694721186
89694729914
89694737360
89694744135
89694754389
89694761896
89694770747
89694777949
89694783381
89694792292
89694799433
89694806818
89694814203
89694824640
89694832270
89694839594
89694846369
89694854181
89694862177
89694869501
89694874384
89694884272
89694891718
89694896051
89694909174
89694917169
89694925531
89694932062
89694938776
89694946222
89694951898
89694960871
89694968561
89694979730
89694987238
89694994806
89695002557
89695010492
89695016107
89695023981
89695029718
89695040033
89695045892
89695057001
89695065240
89695073175
89695080560
89695085748
89695095148
89695102289
89695109796
89695117669
89695127801
89695135980
89695140619
89695150934
89695158136
89695165826
89695172784
89695181085
89695187310
89695194268
89695201043
89695212457
89695218804
89695226678
89695234002
89695241632
89695248773
89695255059
89695264886
89695269463
89695281915
89695290093
89695295770
89695302483
89695309563
89695318291
89695325372
89695330804
89695340264
89695348626
89695358330
89695365960
89695369073
89695380486
89695388421
89695397637
89695404778
89695407891
89695417656
89695426873
89695436760
89695444268
89695447381
89695458550
89695463433
89695476067
89695480889
89695491204
89695498589
89695509392
89695517021
89695522820
89695532097
89695538872
89695546440
89695553765
89695561394
89695570305
89695577934
89695586784
89695594475
89695600151
89695609489
89695616386
89695624992
89695632133
89695637444
89695647697
89695658440
89695667045
89695675285
89695678276
89695691093
89695696220
89695704643
89695712272
89695720207
89695727531
89695737785
89695745536
89695750175
89695758415
89695767814
89695770805
89695781181
89695788078
89695798698
89695805839
89695814445
89695822685
89695828361
89695836112
89695842887
89695852165
89695860099
89695865836
89695875297
89695880180
89695890556
89695898917
89695904227
89695914603
89695919486
89695928703
89695936637
89695942313
89695952628
89695957694
89695968436
89695976859
89695984061
89695991080
89695999991
89696007682
89696015006
89696023917
89696031180
89696037406
89696046683
89696055045
89696062369
89696069266
89696075125
89696084647
89696091910
89696099723
89696106681
89696118460
89696126395
89696134696
89696141593
89696148551
89696154105
89696163687
89696171378
89696181204
89696188651
89696197012
89696204703
89696210196
89696219962
89696226797
89696234427
89696241751
89696249380
89696256705
89696263907
89696275809
89696284231
89696287283
89696299368
89696304495
89696312735
89696319571
89696327200
89696334463
89696345083
89696354300
89696362173
89696370169
89696376333
89696382193
89696390188
89696397879
89696406790
89696413687
89696423574
89696431204
89696436392
89696444326
89696450796
89696458303
89696465200
89696471609
89696480581
89696489126
89696497793
89696506216
89696511892
89696521474
89696528799
89696535268
89696543325
89696551931
89696559499
89696565542
89696575979
89696581289
89696589345
89696597951
89696605214
89696612172
89696620412
89696627004
89696634816
89696643361
89696651845
89696659658
89696665334
89696675832
89696682668
89696689992
89696698110
89696704579
89696712392
89696722096
89696730580
89696736318
89696743947
89696751515
89696759328
89696766835
89696772756
89696782155
89696789662
89696801442
89696809010
89696814687
89696824086
89696832265
89696840382
89696848195
89696851369
89696863087
89696870534
89696878346
89696886708
89696895253
89696901967
89696907216
89696914906
89696922719
89696931141
89696940907
89696949208
89696956105
89696961171
89696970509
89696977406
89696987049
89696993580
89696998829
89697007191
89697013478
89697022328
89697031239
89697036854
89697045338
89697051624
89697058155
89697064747
89697074452
89697081043
89697089222
89697096180
89697102650
89697111012
89697117725
89697125355
89697131458
89697137806
89697147571
89697154163
89697162769
89697170093
89697177906
89697185413
89697192737
89697200306
89697208057
89697215015
89697223499
89697232166
89697235401
89697246265
89697254261
89697260059
89697266407
89697274524
89697283130
89697288929
89697297901
89697302478
89697312183
89697320056
89697322925
89697333850
89697341358
89697350208
89697357288
89697360401
89697372974
89697379138
89697388171
89697395435
89697401599
89697408435
89697413867
89697422900
89697430835
89697436938
89697443347
89697453052
89697460681
89697465869
89697473437
89697480273
89697488452
89697496325
89697502124
89697510913
89697519702
89697529162
89697536364
89697539538
89697552295
89697557116
89697566211
89697573596
89697581347
89697587817
89697594470
89697603625
89697611010
89697619128
89697626574
89697631701
89697641406
89697645861
89697653613
89697662829
89697670336
89697677660
89697686083
89697692736
89697699755
89697707629
89697716235
89697724841
89697731249
89697739184
89697750231
89697758410
89697761828
89697771349
89697778918
89697786242
89697796618
89697799791
89697810351
89697820299
89697830431
89697837572
89697845873
89697852221
89697857836
89697867418
89697875841
89697882982
89697889818
89697897020
89697904772
89697913439
89697920091
89697927049
89697934801
89697942308
89697949999
89697959764
89697964647
89697976915
89697984178
89697990282
89697998033
89698004564
89698013719
89698020799
89698026537
89698035387
89698045152
89698054246
89698061937
89698064989
89698077135
89698082628
89698090989
89698097825
89698105699
89698112962
89698123521
89698131273
89698139268
89698145555
89698153306
89698161058
89698167955
89698176805
89698184739
89698191941
89698200791
89698210008
89698213182
89698223313
89698230088
89698237596
89698244431
89698254624
89698261887
89698268113
89698277818
89698285935
89698293687
89698300645
89698305833
89698316575
89698321397
89698331467
89698339707
89698348130
89698356248
89698365403
89698372056
89698379258
89698385056
89698394639
89698403245
89698410386
89698417283
89698427536
89698435166
89698440354
89698447800
89698454514
89698463608
89698471726
89698475022
89698484360
89698492417
89698502426
89698510544
89698516037
89698524582
89698532883
89698540695
89698548508
89698555222
89698561203
89698570297
89698580063
89698587387
89698595261
89698601791
89698609421
89698616440
89698621811
89698630966
89698638168
89698649277
89698657638
89698663803
89698672592
89698679367
89698688339
89698695785
89698701767
89698713363
89698719467
89698730209
89698739669
89698745529
89698755172
89698763351
89698771164
89698777206
89698786850
89698795639
89698804916
89698813034
89698816268
89698827804
89698835555
89698843185
89698852035
89698859115
89698867172
89698877853
89698885726
89698892074
89698900985
89698909469
89698917037
89698925094
89698928451
89698938460
89698944747
89698954879
89698963607
89698970138
89698976913
89698984725
89698991317
89698998397
89699006514
89699014998
89699023055
89699031234
89699034224
89699046859
89699052047
89699060164
89699067366
89699076216
89699083480
89699089888
89699100020
89699108931
89699116805
89699124129
89699131514
89699138411
89699144026
89699154097
89699161543
89699170271
89699178267
89699183699
89699192610
89699199629
89699209822
89699217024
89699223860
89699231978
89699236983
89699248762
89699256392
89699259505
89699269819
89699277327
89699283980
89699290816
89699294111
89699308821
89699314924
89699323530
89699331221
89699339216
89699345869
89699352217
89699359297
89699366926
89699376142
89699383772
89699394941
89699402571
89699408186
89699417524
89699424848
89699434431
89699441389
89699447370
89699455915
89699463056
89699476667
89699488081
89699498762
89699510297
89699522565
89699532880
89699543989
89699552350
89699570722
89699579816
89699594892
89699606305
89699616742
89699626203
89699638227
89699649457
89699659528
89699668134
89699674298
89699685285
89699689069
89699696271
89699701154
89699706891
89699711713
89699717755
89699724530
89699730390
89699736127
89699742963
89699747785
89699755841
89699760602
89699767621
89699774030
89699779462
89699784222
89699789838
89699796552
89699801190
89699808575
89699815228
89699819623
89699826947
89699832013
89699837811
89699843304
89699848553
89699854901
89699858197
89699864606
89699868268
89699876324
89699882855
89699887494
89699892254
89699898724
89699903424
89699909039
89699914471
89699920269
89699926007
89699931134
89699936871
89699942425
89699948468
89699952862
89699958599
89699962933
89699970990
89699975567
89699980694
89699988568
89699997967
89700006451
89700016155
89700023724
89700031719
89700036236
89700043621
89700047283
89700054363
89700058086
89700064434
89700070599
89700077435
89700080975
89700088238
89700093243
89700099590
89700104412
89700109539
89700115887
89700123882
89700128094
89700134563
89700138714
89700146160
89700149578
89700156475
89700160992
89700169048
89700172344
89700180095
89700183086
89700190593
89700196392
89700201153
89700208172
89700214153
89700218181
89700224712
89700230693
89700236126
89700241924
89700246318
89700254070
89700259990
89700264629
89700269939
89700276958
89700282634
89700288860
89700294109
89700300579
89700304485
89700311382
89700314495
89700320476
89700323711
89700330242
89700333904
89700341899
89700345195
89700351970
89700355022
89700361003
89700364299
89700371013
89700374797
89700382243
89700385967
89700394939
89700398662
89700405925
89700409953
89700417827
89700423930
89700430339
89700437236
89700445415
89700452373
89700459575
89700465861
89700468425
89700479716
89700487529
89700499431
89700508769
89700515483
89700522868
89700532451
89700542582
89700551860
89700558268
89700569133
89700576091
89700584758
89700591899
89700599528
89700606181
89700613200
89700619792
89700627177
89700637675
89700645731
89700648722
89700658610
89700667948
89700675089
89700682108
89700688334
89700695475
89700706461
89700713175
89700718363
89700727335
89700733805
89700741923
89700748636
89700756083
89700762003
89700767435
89700776529
89700785135
89700797648
89700806559
89700814493
89700822550
89700830973
89700838663
89700842997
89700854593
89700860636
89700873270
89700879862
89700889078
89700893473
89700903665
89700910318
89700915994
89700925150
89700931741
89700942911
89700951456
89700960428
89700967935
89700971658
89700983682
89700990030
89700998514
89701005777
89701015176
89701022928
89701028970
89701038431
89701046365
89701050027
89701062234
89701068765
89701078775
89701091836
89701101114
89701114908
89701119363
89701136148
89701147988
89701162027
89701169351
89701184121
89701194131
89701205056
89701221292
89701233010
89701242776
89701254311
89701264565
89701278054
89701287087
89701295205
89701307351
89701316750
89701327004
89701338051
89701347817
89701359536
89701368935
89701378090
89701385720
89701394936
89701403115
89701411599
89701417092
89701426369
89701436806
89701443825
89701453591
89701464821
89701473244
89701484047
89701492409
89701500771
89701511208
89701519325
89701528053
89701535988
89701545815
89701553566
89701564430
89701572609
89701582497
89701591103
89701600624
89701610451
89701618507
89701625954
89701635719
89701643410
89701653053
89701660866
89701671058
89701681312
89701688331
89701698463
89701707191
89701715004
89701724464
89701732399
89701739845
89701749000
89701757423
89701765174
89701775489
89701783912
89701793922
89701801551
89701810279
89701816932
89701825477
89701833961
89701841102
89701850257
89701859779
89701871131
89701877357
89701884071
89701891090
89701898719
89701907020
89701919166
89701930457
89701948524
89701968665
89701987220
89702006446
89702026526
89702045630
89702062232
89702084632
89702103858
89702115820
89702125403
89702133704
89702144812
89702159338
89702171301
89702185034
89702192175
89702199683
89702207556
89702214453
89702221838
89702227942
89702235998
89702243872
89702250708
89702257483
89702264258
89702271094
89702277929
89702285010
89702292639
89702298681
89702305700
89702312780
89702319738
89702327490
89702336035
89702341589
89702347204
89702351538
89702356359
89702360876
89702365759
89702370214
89702375646
89702380346
89702384191
89702389135
89702392858
89702397497
89702402258
89702406591
89702410864
89702415258
89702417700
89702423437
89702427221
89702432409
89702437048
89702441442
89702446264
89702450353
89702455114
89702458471
89702463354
89702467870
89702470739
89702477331
89702482214
89702487096
89702491369
89702496069
89702498693
89702505834
89702509374
89702513830
89702520910
89702524755
89702529394
89702533849
89702537816
89702542516
89702546972
89702550390
89702555761
89702560521
89702564428
89702569921
89702575353
89702580724
89702585180
89702590429
89702594335
89702601720
89702604772
89702611058
89702615880
89702620397
89702626012
89702631200
89702636754
89702642369
89702646459
89702651464
89702656652
89702662023
89702667577
89702671605
89702676854
89702683568
89702687535
89702693700
89702697850
89702702245
89702709386
89702712743
89702719457
89702725804
89702730931
89702735265
89702741795
89702746739
89702752477
89702756871
89702760350
89702768468
89702774266
89702778600
89702783360
89702789098
89702795262
89702800328
89702804600
89702810338
89702814671
89702822056
89702827794
89702829869
89702837926
89702841649
89702849217
89702852757
89702859044
89702864659
89702870579
89702875462
89702881077
89702886082
89702892064
89702896397
89702902623
89702906773
89702912877
89702918553
89702924107
89702928868
89702933689
89702940037
89702945469
89702950901
89702956395
89702961827
89702966709
89702972508
89702976841
89702983372
89702988438
89702994908
89702999973
89703006993
89703014683
89703020420
89703029026
89703034763
89703042332
89703048740
89703056675
89703064304
89703072117
89703075901
89703086582
89703092075
89703100193
89703109592
89703112583
89703124485
89703129917
89703138157
89703145176
89703156223
89703163303
89703168979
89703177280
89703184971
89703193088
89703199924
89703205967
89703213596
89703220310
89703231174
89703238193
89703246067
89703254489
89703261325
89703264255
89703274875
89703282566
89703289279
89703296726
89703306064
89703314060
89703319797
89703328525
89703335422
89703338657
89703349277
89703357150
89703366122
89703371005
89703382053
89703389194
89703394626
89703402866
89703410251
89703417270
89703427585
89703433139
89703441073
89703449679
89703459018
89703466464
89703472018
89703479220
89703487033
89703497287
89703504489
89703510165
89703518771
89703526400
89703536837
89703544039
89703549350
89703558871
89703566012
89703572543
89703580294
89703588473
89703597445
89703602389
89703611727
89703619296
89703625033
89703632235
89703639254
89703648531
89703656771
89703664706
89703670321
89703678378
89703687472
89703695284
89703700960
89703709627
89703717562
89703724215
89703731112
89703739962
89703747164
89703754244
89703758333
89703769808
89703777742
89703786287
89703793184
89703801241
89703808626
89703816195
89703823030
89703833712
89703839815
89703849398
89703856417
89703864473
89703872469
89703878816
89703886202
89703891878
89703900850
89703910555
89703918611
89703927522
89703933138
89703942171
89703947237
89703957430
89703964265
89703970247
89703979829
89703988557
89703994478
89704002534
89704008211
89704018648
89704024080
89704033479
89704040437
89704046724
89704056001
89704063020
89704072664
89704080598
89704089509
89704096040
89704100923
89704108674
89704116182
89704126008
89704133393
89704141999
89704149873
89704157441
89704166719
89704173921
89704176972
89704187165
89704195222
89704203034
89704211274
89704219758
89704227876
89704233491
89704243928
89704250886
89704258088
89704266022
89704271455
89704279877
89704288178
89704296479
89704304963
89704311066
89704319428
89704326386
89704336335
89704343476
89704348725
89704357514
89704364899
89704372590
89704380585
89704385834
89704396454
89704404450
89704412323
89704419648
89704425385
89704433075
89704444367
89704451813
89704459626
89704469574
89704477570
89704483307
89704490814
89704499115
89704508209
89704515289
89704522614
89704531952
89704537506
89704547333
89704554718
89704560516
89704569733
89704577179
89704580292
89704590485
89704599579
89704609161
89704613861
89704624786
89704631744
89704637115
89704645965
89704653717
89704657196
89704667633
89704673980
89704683441
89704691497
89704694671
89704706024
89704711944
89704721160
89704728912
89704737213
89704743988
89704751434
89704763092
89704771453
89704778533
89704785919
89704791778
89704800628
89704808685
89704817108
89704824432
89704835540
89704842925
89704849090
89704858978
89704865813
89704874908
89704882110
89704887481
89704896331
89704903777
89704915252
89704921233
89704926421
89704937774
89704942718
89704950957
89704958526
89704966521
89704975127
89704979644
89704992522
89705000518
89705003753
89705014190
89705023040
89705030669
89705037627
89705043792
89705052520
89705060576
89705070159
89705077666
89705080840
89705092681
89705100798
89705108672
89705115874
89705118926
89705129729
89705139983
89705148467
89705156889
89705160063
89705171477
89705179777
89705186552
89705193877
89705199553
89705209135
89705218291
89705228178
89705235991
89705260161
89705267851
89705275602
89705284025
89705290739
89705297148
89705308561
89705313566
89705321135
89705329496
89705337675
89705345671
89705353666
89705361174
89705368498
89705375273
89705383756
89705390959
89705398100
89705405241
89705413603
89705421476
89705428434
89705436247
89705443571
89705453092
89705461149
89705468595
89705471830
89705482877
89705491178
89705498991
89705506986
89705514493
89705521390
89705528593
89705537504
89705544340
89705553190
89705560331
89705568021
89705575406
89705582792
89705585843
89705598172
89705607755
89705614286
89705621915
89705629911
89705637174
89705645291
89705651822
89705661283
89705664456
89705675626
89705681302
89705692533
89705699918
89705705411
89705715299
89705723477
89705729398
89705737149
89705743069
89705752469
89705761868
89705771329
89705779629
89705787564
89705794156
89705797269
89705808438
89705813138
89705821011
89705828580
89705835843
89705846768
89705851834
89705861172
89705868374
89705875271
89705883572
89705889126
89705898220
89705906826
89705915799
89705924343
89705930081
89705938748
89705945706
89705952053
89705958889
89705964749
89705974148
89705984707
89705992031
89706000210
89706003445
89706017788
89706023464
89706032436
89706040249
89706047817
89706055386
89706061733
89706071865
89706077419
89706080959
89706095486
89706101223
89706109524
89706116360
89706123928
89706132107
89706138332
89706146023
89706153896
89706161648
89706169155
89706174953
89706183986
89706191555
89706200344
89706207912
89706214504
89706225490
89706230434
89706239833
89706248012
89706251064
89706261501
89706269313
89706276821
89706284145
89706290492
89706300807
89706308498
89706316432
89706323573
89706329067
89706337184
89706344814
89706353236
89706360561
89706368190
89706379420
89706384303
89706393703
89706401881
89706407435
89706416408
89706425502
89706431300
89706438136
89706444972
89706455348
89706463038
89706471034
89706478236
89706483729
89706493617
89706501551
89706508509
89706516566
89706527369
89706535121
89706540614
89706550929
89706556056
89706565943
89706573390
89706579188
89706587733
89706595606
89706603541
89706610987
89706617152
89706626124
89706633387
89706641200
89706648707
89706656336
89706665064
89706672755
89706680140
89706688013
89706693384
89706703394
89706710718
89706713770
89706725611
89706733851
89706740320
89706748133
89706758509
89706766626
89706772303
89706781214
89706785852
89706796961
89706804224
89706810999
89706822351
89706831629
89706841333
89706846887
89706855738
89706864160
89706869837
89706879114
89706887415
89706890650
89706900659
89706910791
89706921594
89706926538
89706935083
89706942285
89706948450
89706958948
89706963525
89706973596
89706980859
89706986963
89706997034
89707001550
89707011682
89707019006
89707024377
89707035730
89707040613
89707048364
89707056482
89707064294
89707074609
89707083154
89707090356
89707098352
89707104211
89707113916
89707121545
89707128503
89707135705
89707146874
89707154687
89707160668
89707171166
89707178185
89707181359
89707192468
89707200219
89707206811
89707214501
89707221887
89707231408
89707240014
89707247704
89707255761
89707263940
89707270837
89707278222
89707285180
89707292016
89707300255
89707306908
89707314049
89707322472
89707329247
89707331994
89707343651
89707348656
89707358361
89707366173
89707373436
89707379906
89707385399
89707394371
89707402001
89707407982
89707417015
89707424340
89707431786
89707441429
89707447655
89707454674
89707457482
89707469506
89707477013
89707484520
89707491539
89707500816
89707508019
89707514488
89707525414
89707534264
89707541771
89707548668
89707555504
89707562279
89707570885
89707578514
89707586082
89707590111
89707602012
89707607323
89707616295
89707623436
89707631798
89707639183
89707644798
89707655357
89707660789
89707670128
89707677879
89707683433
89707693199
89707700401
89707706871
89707713829
89707723106
89707730308
89707736595
89707745811
89707753990
89707759666
89707768211
89707777671
89707784873
89707791770
89707797752
89707809287
89707815574
89707826072
89707830894
89707840781
89707847434
89707854575
89707861838
89707869529
89707876670
89707883994
89707888145
89707899863
89707908347
89707915977
89707922324
89707930015
89707936973
89707944663
89707950766
89707957175
89707967185
89707973960
89707979514
89707989096
89707993430
89708002890
89708009482
89708014914
89708023886
89708031577
89708038535
89708044943
89708050315
89708060019
89708067465
89708073386
89708082297
89708088828
89708096396
89708103415
89708112143
89708118918
89708126242
89708133688
89708141013
89708149008
89708155783
89708161887
89708169333
89708174826
89708185751
89708194845
89708201071
89708210837
89708213949
89708225729
89708234274
89708243063
89708251791
89708260885
89708268515
89708275534
89708284140
89708290854
89708297811
89708305441
89708310751
89708321371
89708329245
89708337667
89708344259
89708349203
89708357321
89708364096
89708373739
89708380270
89708386984
89708393514
89708401998
89708408651
89708415670
89708423177
89708429647
89708437826
89708443319
89708449667
89708454977
89708463644
89708472066
89708480184
89708487142
89708493673
89708500081
89708505514
89708514364
89708520711
89708527852
89708535421
89708541280
89708550802
89708557576
89708565572
89708572103
89708577108
89708586629
89708593099
89708599996
89708606832
89708615987
89708623555
89708628133
89708637349
89708644002
89708651082
89708658772
89708666158
89708673848
89708680684
89708687947
89708694356
89708700276
89708709432
89708716023
89708719014
89708728719
89708736775
89708745076
89708749348
89708759907
89708766560
89708774495
89708781331
89708787556
89708796345
89708802876
89708808003
89708816914
89708823628
89708832112
89708839863
89708845234
89708854146
89708861653
89708867695
89708875203
89708880330
89708888447
89708896809
89708905659
89708912129
89708919392
89708928242
89708931050
89708940388
89708946797
89708954792
89708961811
89708972553
89708979450
89708984516
89708992756
89708999470
89709007893
89709015095
89709022846
89709030781
89709038288
89709049763
89709058063
89709061176
89709074116
89709081989
89709088764
89709096454
89709104023
89709111652
89709118183
89709127826
89709135883
89709143879
89709151264
89709157123
89709164142
89709171711
89709177509
89709188190
89709194599
89709203022
89709210407
89709213520
89709222980
89709230548
89709238300
89709243183
89709251178
89709260150
89709266132
89709276080
89709283710
89709290546
89709297321
89709304157
89709310931
89709320026
89709327960
89709335590
89709339252
89709349017
89709357013
89709364825
89709372211
89709377521
89709386981
89709394794
89709403216
89709409808
89709418597
89709425250
89709432391
89709438861
89709445514
89709452411
89709459674
89709467364
89709473773
89709480975
89709490252
89709496722
89709502398
89709511187
89709515704
89709524981
89709531268
89709537005
89709545062
89709552203
89709559893
89709568560
89709571551
89709582354
89709589922
89709596453
89709603289
89709608172
89709617022
89709625628
89709634173
89709640826
89709649004
89709655596
89709660601
89709669695
89709676287
89709683001
89709690081
89709698321
89709706988
89709711504
89709718523
89709728350
89709733721
89709741716
89709748430
89709755388
89709761736
89709768694
89709779558
89709786821
89709794390
89709801348
89709808611
89709816790
89709824785
89709832292
89709837602
89709844194
89709854570
89709859697
89709869097
89709876055
89709881792
89709892656
89709900285
89709908464
89709915666
89709924944
89709933061
89709938799
89709946184
89709956621
89709960039
89709969377
89709978227
89709986528
89709991105
89710000871
89710007524
89710013078
89710020707
89710027360
89710035600
89710042436
89710048356
89710058793
89710062944
89710073442
89710080400
89710086259
89710094865
89710102250
89710111344
89710119218
89710124894
89710132951
89710141252
89710147904
89710154496
89710160111
89710169023
89710176042
89710185746
89710192216
89710197770
89710206010
89710214616
89710222001
89710229203
89710234757
89710244584
89710248795
89710259110
89710266495
89710274674
89710282792
89710288468
89710297379
89710305009
89710310624
89710320817
89710328995
89710336930
89710344437
89710350968
89710358170
89710366776
89710373307
89710382462
89710385392
89710396805
89710402848
89710411576
89710417984
89710425370
89710432022
89710439286
89710448136
89710454727
89710463089
89710469925
89710476151
89710484024
89710490982
89710501358
89710508133
89710511307
89710521988
89710528397
89710538101
89710545181
89710553177
89710561111
89710569046
89710575699
89710583572
89710594681
89710602249
89710608230
89710618301
89710626236
89710632644
89710639602
89710645767
89710654922
89710663101
89710670669
89710677993
89710683303
89710693985
89710698867
89710708572
89710715225
89710723037
89710730117
89710736282
89710746292
89710753677
89710761611
89710767959
89710772781
89710781387
89710790603
89710798843
89710805557
89710811904
89710821365
89710827468
89710837539
89710844192
89710849685
89710857192
89710864760
89710873733
89710881911
89710888259
89710897780
89710902419
89710910537
89710918105
89710923415
89710933913
89710938491
89710946181
89710953505
89710959609
89710969191
89710977004
89710982863
89710992629
89710995620
89711007216
89711014662
89711022292
89711026869
89711033156
89711042250
89711050368
89711058608
89711065566
89711069045
89711081130
89711086623
89711094374
89711100966
89711112013
89711118910
89711124159
89711133070
89711139479
89711147597
89711154311
89711159315
89711167555
89711174269
89711183424
89711191054
89711196730
89711207350
89711215956
89711222059
89711229017
89711234938
89711245070
89711253431
89711260206
89711267836
89711273329
89711285170
89711290602
89711297743
89711305189
89711312208
89711319044
89711327528
89711335157
89711342665
89711345594
89711356214
89711361646
89711370374
89711376844
89711386060
89711392652
89711398328
89711407484
89711414320
89711424207
89711431470
89711436781
89711446790
89711453931
89711460462
89711467237
89711472913
89711484449
89711489088
89711498609
89711505323
89711508314
89711518506
89711526868
89711533704
89711540784
89711549390
89711556226
89711561353
89711569043
89711576856
89711585950
89711593213
89711599256
89711611035
89711619214
89711626172
89711638379
89711641065
89711652112
89711659558
89711665906
89711674268
89711679883
89711689526
89711698010
89711704358
89711711011
89711719922
89711726392
89711732068
89711740552
89711747082
89711755078
89711761914
89711769055
89711779858
89711784436
89711793713
89711801220
89711808911
89711814953
89711821484
89711828747
89711836010
89711845654
89711853894
89711861889
89711868786
89711876904
89711880078
89711890148
89711898022
89711906262
89711912609
89711919262
89711927563
89711936047
89711942211
89711951306
89711958325
89711964855
89711969433
89711978588
89711985241
89711996410
89712003796
89712009228
89712017223
89712027050
89712034252
89712042370
89712048107
89712055553
89712063549
89712071789
89712078441
89712086071
89712094127
89712101696
89712108043
89712114818
89712122326
89712128368
89712138988
89712148082
89712155285
89712158092
89712168163
89712175426
89712183422
89712190746
89712198925
89712206981
89712213024
89712220409
89712228465
89712236217
89712242992
89712252208
89712258556
89712265453
89712271251
89712282115
89712290416
89712298167
89712306285
89712313670
89712320201
89712328563
89712334788
89712341746
89712348399
89712357005
89712363597
89712373424
89712378673
89712387401
89712394237
89712399302
89712408702
89712416758
89712422496
89712430369
89712441478
89712448802
89712453807
89712464671
89712472056
89712475108
89712487010
89712494944
89712501231
89712507884
89712513560
89712523814
89712531504
89712538462
89712544871
89712552195
89712559336
89712567454
89712574229
89712581553
89712594004
89712600962
89712607005
89712616404
89712621592
89712631785
89712639048
89712644968
89712653391
89712661326
89712669077
89712676035
89712681895
89712691477
89712696116
89712705149
89712711558
89712717173
89712727671
89712732431
89712744577
89712752451
89712759653
89712767710
89712773447
89712783945
89712791147
89712799082
89712806589
89712813913
89712823313
89712830637
89712839060
89712846994
89712852915
89712860300
89712868051
89712875681
89712882761
89712888376
89712895334
89712902536
89712910410
89712917123
89712924814
89712931161
89712937570
89712946176
89712952829
89712958871
89712969369
89712976510
89712984018
89712991342
89712996835
89713005990
89713012338
89713021249
89713028695
89713034616
89713044259
89713052377
89713059091
89713066171
89713071176
89713080514
89713087899
89713096749
89713103952
89713111947
89713119393
89713124398
89713134957
89713139657
89713148507
89713155770
89713161080
89713172921
89713178353
89713187569
89713195382
89713202889
89713210397
89713218392
89713224435
89713232064
89713237862
89713246102
89713255135
89713264596
89713273018
89713280526
89713287545
89713293892
89713303719
89713310555
89713318245
89713325509
89713335152
89713342537
89713350350
89713360482
89713367806
89713373177
89713383370
89713390511
89713398629
89713406563
89713413094
89713424019
89713430062
89713439888
89713447273
89713453255
89713462288
89713467537
89713477974
89713484932
89713492989
89713502876
89713512276
89713520027
89713527412
89713534920
89713542427
89713551704
89713557686
89713564583
89713570808
89713581978
89713590400
89713599006
89713606209
89713612800
89713621162
89713629158
89713636482
89713644477
89713649055
89713661018
89713669197
89713675361
89713683235
89713689094
89713699653
89713708991
89713715034
89713722358
89713732490
89713741279
89713746955
89713755012
89713761970
89713770271
89713777534
89713785346
89713794135
89713801826
89713809394
89713817329
89713822639
89713833259
89713841315
89713847419
89713854987
89713860786
89713870917
89713875861
89713886298
89713894294
89713899604
89713910834
89713915656
89713923285
89713932502
89713935981
89713946967
89713955573
89713964728
89713972724
89713980414
89713987677
89713993842
89714002509
89714009772
89714017096
89714024359
89714033087
89714042059
89714049811
89714053107
89714066535
89714072089
89714080084
89714087714
89714095892
89714102789
89714109747
89714119696
89714128424
89714131659
89714141547
89714150702
89714159613
89714166937
89714170294
89714181158
89714187506
89714199286
89714208563
89714216803
89714224127
89714227240
89714237799
89714245062
89714253119
89714261419
89714268011
89714278509
89714287115
89714294989
89714302313
89714308172
89714316351
89714324652
89714331365
89714338629
89714350713
89714359075
89714364690
89714372564
89714380438
89714387396
89714394415
89714403143
89714409917
89714416875
89714423162
89714434392
89714442083
89714448247
89714458013
89714461065
89714472906
89714480840
89714488042
89714496282
89714505193
89714513616
89714518926
89714530095
89714535100
89714545598
89714553655
89714559392
89714566045
89714573857
89714584539
89714593633
89714601506
89714608464
89714614018
89714624089
89714630925
89714634160
89714644719
89714652165
89714662846
89714670354
89714673528
89714685979
89714694096
89714706425
89714713628
89714716801
89714727360
89714735722
89714745976
89714751530
89714762211
89714769597
89714775151
89714785283
89714792546
89714795964
89714806523
89714815190
89714824162
89714832341
89714838200
89714845890
89714851750
89714861149
89714869145
89714877201
89714884159
89714891850
89714901432
89714910771
89714918095
89714925419
89714931095
89714941349
89714949345
89714955265
89714963383
89714969791
89714982304
89714989994
89714998661
89715005985
89715012882
89715020206
89715027836
89715036808
89715044315
89715054813
89715062443
89715068180
89715075748
89715082889
89715090458
89715097843
89715104007
89715113712
89715121647
89715132206
89715137943
89715143741
89715153263
89715161136
89715168705
89715175724
89715181400
89715190921
89715198123
89715208499
89715216739
89715222598
89715232486
89715241397
89715247440
89715254337
89715259830
89715269962
89715275211
89715287967
89715295963
89715299136
89715316775
89715329166
89715347354
89715356448
89715363528
89715371341
89715380801
89715389041
89715394412
89715403262
89715410891
89715418582
89715426944
89715432681
89715443789
89715448855
89715459414
89715467288
89715473025
89715483584
89715488833
89715497988
89715505007
89715511050
89715523257
89715529666
89715537600
89715544741
89715553896
89715560671
89715566164
89715575503
89715584048
89715592165
89715598757
89715604800
89715614809
89715623720
89715631594
89715638613
89715646487
89715653506
89715660158
89715668520
89715675417
89715686037
89715693850
89715699404
89715707949
89715716127
89715719240
89715730410
89715736147
89715746889
89715751589
89715762636
89715770388
89715776613
89715787355
89715791933
89715801576
89715808657
89715813967
89715825014
89715830324
89715843752
89715851137
89715858705
89715866029
89715871462
89715881532
89715888673
89715891664
89715903139
89715909120
89715919313
89715927980
89715936342
89715943666
89715949464
89715957887
89715965394
89715974122
89715981264
89715988832
89715999635
89716005311
89716014833
89716021669
89716027833
89716037599
89716042176
89716052186
89716059510
89716065919
89716077211
89716086183
89716091981
89716101563
89716108094
89716115663
89716120362
89716129273
89716137025
89716145326
89716156678
89716161622
89716171876
89716179993
89716183228
89716193421
89716202454
89716210023
89716217957
89716227967
89716236268
89716242066
89716249512
89716256653
89716266419
89716273499
89716278931
89716289002
89716296448
89716305359
89716312989
89716319092
89716329102
89716333802
89716342286
89716352051
89716355103
89716367005
89716371765
89716382508
89716390137
89716399048
89716406311
89716410950
89716420716
89716428284
89716431641
89716443543
89716450501
89716460632
89716468750
89716472168
89716481934
89716490295
89716497192
89716504517
89716513855
89716520752
89716527588
89716536682
89716545654
89716553222
89716560364
89716566101
89716576965
89716584167
89716591919
89716600036
89716606567
89716616455
89716624206
89716631591
89716638855
89716644226
89716655029
89716662902
89716669494
89716677734
89716687194
89716695312
89716703063
89716711913
89716719116
89716726196
89716734557
89716740722
89716748718
89716755798
89716766052
89716774474
89716780273
89716789672
89716794616
89716804748
89716811645
89716817809
89716827148
89716831786
89716843749
89716851012
89716856322
89716866942
89716873595
89716885375
89716892577
89716897948
89716905150
89716913451
89716924620
89716933104
89716939940
89716947325
89716955870
89716963195
89716970824
89716978453
89716985716
89716990843
89717002806
89717011290
89717014464
89717025206
89717034300
89717041502
89717048460
89717057677
89717065062
89717071898
89717078795
89717086851
89717092589
89717102354
89717111265
89717116759
89717123595
89717129576
89717139586
89717147032
89717156981
89717165281
89717173338
89717180296
89717186522
89717196043
89717202940
89717206175
89717217955
89717226622
89717237059
89717245298
89717253050
89717260679
89717267332
89717276976
89717281614
89717292784
89717300108
89717308164
89717316038
89717324156
89717330808
89717337644
89717345823
89717353513
89717361082
89717368406
89717375730
89717384214
89717394285
89717400022
89717407957
89717415830
89717419126
89717430112
89717438413
89717447263
89717452451
89717463315
89717471494
89717477292
89717486081
89717494932
89717502317
89717509885
89717515439
89717524839
89717530088
89717543332
89717551877
89717555295
89717565732
89717573423
89717581662
89717588925
89717594296
89717606320
89717611936
89717623166
89717630612
89717633664
89717645017
89717653073
89717661496
89717671445
89717680966
89717688046
89717702573
89717711728
89717717404
89717725644
89717732846
89717740536
89717747800
89717755490
89717765317
89717770321
89717777463
89717788388
89717796139
89717802670
89717810177
89717815670
89717827877
89717833554
89717841061
89717848690
89717858334
89717868099
89717877316
89717887203
89717895809
89717906185
89717913754
89717922665
89717929806
89717936947
89717947628
89717956295
89717963741
89717970821
89717977047
89717985775
89717992733
89718002438
89718009579
89718015621
89718026668
89718036068
89718042049
89718049007
89718055050
89718065365
89718073299
89718081783
89718089473
89718102413
89718110836
89718114132
89718124874
89718134029
89718141170
89718148372
89718155880
89718162593
89718172298
89718180416
89718188716
89718196407
89718203548
89718209346
89718218074
89718224849
89718232295
89718240474
89718249019
89718258907
89718264034
89718273799
89718280757
89718286067
89718296931
89718304927
89718312678
89718319881
89718327998
89718336055
89718343806
89718351375
89718358760
89718364009
89718374812
89718383052
89718389888
89718396907
89718405452
89718415339
89718421992
89718431208
89718438105
89718447139
89718456294
89718462153
89718470332
89718477778
89718488703
89718496089
89718502436
89718511408
89718519770
89718526789
89718534785
89718540644
89718549250
89718557490
89718565363
89718573969
89718583674
89718591486
89718597407
89718606379
89718614741
89718622858
89718631525
89718635432
89718646296
89718654963
89718662165
89718669611
89718676996
89718684687
89718693110
89718700922
89718709650
89718719172
89718727411
89718733271
89718744440
89718752375
89718759760
89718768183
89718774042
89718783991
89718789545
89718799188
89718809625
89718813165
89718823114
89718828119
89718837579
89718844721
89718854181
89718861505
89718867487
89718876825
89718885614
89718891229
89718901788
89718905084
89718915277
89718923517
89718930170
89718940668
89718950433
89718957818
89718964105
89718974908
89718983514
89718989740
89718996759
89719002191
89719013482
89719021783
89719028314
89719038629
89719042169
89719054071
89719059808
89719069879
89719077325
89719084710
89719092767
89719098992
89719106561
89719114861
89719123467
89719131463
89719137322
89719146844
89719154351
89719162896
89719171197
89719177727
89719189019
89719194512
89719202386
89719210747
89719219781
89719226800
89719233636
89719241509
89719248772
89719258843
89719267083
89719272759
89719281670
89719286919
89719296563
89719303948
89719310112
89719321648
89719326348
89719337334
89719345146
89719351006
89719361077
89719369133
89719376641
89719386467
89719395378
89719402519
89719408745
89719418388
89719424431
89719436272
89719444695
89719450432
89719459770
89719464958
89719473625
89719483147
89719492546
89719500420
89719508537
89719514885
89719522636
89719528984
89719539177
89719546989
89719555351
89719562614
89719567009
89719578972
89719586479
89719594902
89719602287
89719610954
89719618278
89719624199
89719634452
89719642936
89719650993
89719659111
89719664909
89719673515
89719682365
89719689628
89719696647
