89596402590
89596411501
89596420595
89596428896
89596437990
89596445864
89596453493
89596463320
89596470522
89596477968
89596486513
89596493837
89596505190
89596513491
89596523134
89596530947
89596539431
89596546267
89596553591
89596559389
89596569887
89596575197
89596583193
89596587709
89596593508
89596603151
89596609377
89596617616
89596625429
89596632631
89596639101
89596648012
89596653932
89596661256
89596667726
89596675050
89596683839
89596691103
89596699770
89596707338
89596714967
89596722169
89596731386
89596738649
89596747011
89596755189
89596763978
89596772218
89596779176
89596786378
89596792116
89596800172
89596806276
89596814759
89596821962
89596828187
89596835572
89596845765
89596853028
89596861085
89596867555
89596873475
89596880860
89596886842
89596894532
89596900636
89596907044
89596914430
89596920594
89596927552
89596934998
89596942628
89596948609
89596955201
89596961732
89596968201
89596974427
89596980347
89596986634
89596995118
89597000977
89597006654
89597013550
89597019898
89597026307
89597033875
89597040650
89597048340
89597056763
89597062623
89597069581
89597076233
89597082764
89597091248
89597098572
89597105774
89597112793
89597119934
89597128052
89597137085
89597144471
89597152222
89597159668
89597167359
89597172608
89597180115
89597187927
89597196655
89597203003
89597211731
89597217468
89597225891
89597232971
89597240723
89597247498
89597255066
89597263489
89597269959
89597278748
89597284607
89597292908
89597301331
89597305359
89597314026
89597321167
89597330200
89597337524
89597344971
89597353210
89597361328
89597368225
89597374878
89597383362
89597391357
89597398864
89597405883
89597414673
89597421447
89597429931
89597437622
89597442504
89597449585
89597458007
89597465087
89597471923
89597481323
89597488403
89597497131
89597505309
89597513549
89597520934
89597526428
89597537109
89597546020
89597550781
89597560058
89597567870
89597576659
89597584960
89597590514
89597598998
89597606506
89597615050
89597619933
89597630492
89597637023
89597644958
89597652831
89597661315
89597668700
89597678466
89597686034
89597693480
89597700927
89597707152
89597714660
89597722533
89597731200
89597738280
89597747924
89597756713
89597763304
89597769835
89597778075
89597785887
89597793151
89597801329
89597810729
89597818846
89597825438
89597831725
89597840514
89597848509
89597852660
89597862059
89597868895
89597877379
89597885191
89597892760
89597900328
89597907103
89597915343
89597921873
89597929869
89597937559
89597948912
89597955626
89597963377
89597970335
89597977598
89597985533
89597993406
89598000242
89598007811
89598013853
89598022154
89598028257
89598036558
89598045164
89598052061
89598059935
89598065489
89598076475
89598082273
89598091978
89598097776
89598105894
89598115171
89598122862
89598128233
89598136533
89598145994
89598154173
89598157835
89598167722
89598176267
89598184080
89598190427
89598199277
89598207151
89598215208
89598222410
89598231443
89598239255
89598245115
89598253049
89598262510
89598271299
89598279294
89598287351
89598294614
89598302366
89598309812
89598317380
89598323484
89598337583
89598346860
89598355832
89598365048
89598373899
89598381833
89598390378
89598398435
89598407895
89598415585
89598424375
89598432492
89598441098
89598448178
89598457150
89598464902
89598476132
89598483701
89598493771
89598503171
89598514401
89598523739
89598532467
89598542966
89598552121
89598565426
89598571713
89598587826
89598597775
89598609555
89598620907
89598630062
89598641842
89598648007
89598659848
89598671017
89598682430
89598693234
89598701840
89598713497
89598719723
89598732845
89598743954
89598754208
89598770565
89598779110
89598791134
89598797481
89598808407
89598819881
89598828914
89598840389
89598850216
89598860531
89598870418
89598880306
89598891048
89598901607
89598909969
89598920101
89598930904
89598941646
89598950801
89598964778
89598973262
89598985958
89598996089
89599006038
89599016780
89599019893
89599036617
89599046809
89599057368
89599070430
89599079768
89599089107
89599099422
89599111018
89599120906
89599131343
89599139766
89599151607
89599159236
89599170588
89599184016
89599191951
89599203608
89599212519
89599221492
89599232661
89599243464
89599251094
89599264460
89599271235
89599286982
89599296321
89599306819
89599314570
89599325190
89599334895
89599344233
89599355463
89599367793
89599376643
89599388666
89599394648
89599405390
89599416682
89599427912
89599436640
89599448603
89599457392
89599469050
89599481318
89599492060
89599501703
89599510553
89599519648
89599529840
89599540888
89599549677
89599563227
89599569879
89599584650
89599593622
89599602655
89599614557
89599624078
89599631647
89599642572
89599654596
89599667657
89599679559
89599688348
89599698724
89599706781
89599717767
89599728082
89599736932
89599746087
89599756952
89599770013
89599780328
89599792291
89599803277
89599812127
89599821160
89599832391
89599843316
89599851373
89599864678
89599876580
89599889886
89599899163
89599907159
89599919122
89599929681
89599937188
89599947808
89599960320
89599974053
89599983819
89599992669
89600002679
89600014519
89600022271
89600035760
89600045220
89600051385
89600063347
89600078911
89600088860
89600100396
89600110955
89600119622
89600130120
89600140740
89600152397
89600159844
89600174126
89600186089
89600194328
89600205681
89600215019
89600227837
89600235954
89600248039
89600257439
89600269157
89600280754
89600288933
89600301018
89600312736
89600320244
89600331413
89600341240
89600350944
89600362785
89600370903
89600384941
89600392814
89600402580
89600411735
89600422721
89600433952
89600441581
89600452445
89600460563
89600476676
89600485649
89600497001
89600502799
89600513175
89600528617
89600534599
89600546500
89600557243
89600565116
89600580253
89600588554
89600598685
89600608085
89600619376
89600625419
89600637565
89600648734
89600657767
89600670279
89600681327
89600689322
89600699332
89600711600
89600719352
89600730643
89600741385
89600750968
89600764151
89600775321
89600782645
89600793387
89600804373
89600811331
89600822501
89600835440
89600842581
89600852530
89600865958
89600876089
89600888663
89600900564
89600908377
89600920035
89600933951
89600945852
89600954947
89600970266
89600983145
89600992849
89601001944
89601010794
89601022512
89601032461
89601045889
89601052664
89601062795
89601078970
89601088247
89601098623
89601111562
89601119375
89601131338
89601141103
89601153493
89601164236
89601172720
89601185171
89601198110
89601209279
89601218984
89601227712
89601238027
89601247060
89601257741
89601267385
89601280568
89601287770
89601304616
89601312123
89601328725
89601340200
89601351125
89601364003
89601373830
89601387441
89601394155
89601409657
89601419728
89601428273
89601441396
89601449879
89601463368
89601473683
89601485707
89601497243
89601508473
89601518178
89601530385
89601538624
89601549305
89601560841
89601569447
89601579457
89601592762
89601603505
89601614796
89601625721
89601636586
89601645497
89601654652
89601666310
89601674305
89601685352
89601695423
89601705311
89601715443
89601729481
89601739368
89601748219
89601759205
89601766590
89601777576
89601786060
89601801197
89601812733
89601823902
89601833973
89601844043
89601853687
89601860584
89601876392
89601887256
89601892933
89601907886
89601918445
89601928150
89601940052
89601946033
89601959217
89601968494
89601981372
89601992420
89601998706
89602012500
89602022388
89602032336
89602039417
89602053271
89602061450
89602071826
89602080554
89602093005
89602106128
89602114856
89602125049
89602137378
89602147204
89602156360
89602165942
89602173144
89602185962
89602196643
89602204455
89602215625
89602225573
89602237048
89602245166
89602253649
89602266406
89602277758
89602287280
89602298632
89602314074
89602322314
89602335802
89602344469
89602353991
89602368212
89602374682
89602384753
89602396776
89602408251
89602416918
89602427599
89602437853
89602447130
89602456347
89602465807
89602477282
89602485460
89602497179
89602504747
89602518663
89602528734
89602538134
89602545091
89602559252
89602571520
89602580553
89602593614
89602606004
89602616563
89602627245
89602638109
89602650621
89602654039
89602671983
89602679002
89602692552
89602704149
89602714525
89602728319
89602738695
89602746507
89602762803
89602773362
89602781907
89602795152
89602803147
89602815782
89602825975
89602839219
89602850389
89602859849
89602870835
89602883103
89602891587
89602903794
89602914292
89602924912
89602938828
89602951035
89602963242
89602978318
89602989182
89602997056
89603009690
89603019517
89603033310
89603044114
89603057908
89603064805
89603079697
89603088791
89603100144
89603114060
89603120957
89603131333
89603143173
89603155014
89603168137
89603178879
89603187180
89603198898
89603208664
89603222092
89603233994
89603242233
89603254013
89603267685
89603279892
89603288437
89603300583
89603311813
89603319382
89603331283
89603342087
89603356186
89603363632
89603380355
89603390670
89603402328
89603410690
89603421554
89603433700
89603440231
89603451827
89603463729
89603473617
89603487533
89603499069
89603507552
89603519759
89603534042
89603542709
89603554427
89603563827
89603573287
89603585555
89603597945
89603606612
89603619002
89603625350
89603637252
89603648971
89603663131
89603675216
89603685836
89603695174
89603705367
89603716963
89603728743
89603737593
89603750350
89603756941
89603771651
89603781355
89603793379
89603801375
89603813216
89603822066
89603835738
89603843367
89603855391
89603865340
89603878157
89603888655
89603896651
89603908186
89603920637
89603931685
89603941389
89603953901
89603964521
89603976912
89603987349
89603995771
89604008345
89604018598
89604030867
89604037397
89604049421
89604060530
89604072126
89604081037
89604093916
89604102522
89604119001
89604126936
89604140119
89604153181
89604163129
89604177778
89604186079
89604198347
89604213056
89604225751
89604239789
89604252363
89604262738
89604272626
89604281598
89604296552
89604305341
89604317365
89604327191
89604338117
89604345929
89604355451
89604364667
89604373395
89604383099
89604393109
89604404462
89604412091
89604420514
89604429669
89604436200
89604442487
89604452313
89604461285
89604470502
89604476910
89604487042
89604493939
89604500470
89604509869
89604517621
89604525555
89604534771
89604542218
89604549664
89604557782
89604565594
89604574505
89604583844
89604592511
89604599713
89604608563
89604617047
89604623028
89604633160
89604638409
89604648907
89604654095
89604663555
89604674175
89604681194
89604688458
89604698040
89604706097
89604713421
89604722881
89604730572
89604738811
89604748516
89604755657
89604765240
89604779888
89604791424
89604799358
89604809246
89604817364
89604823711
89604833172
89604839336
89604852276
89604861065
89604878948
89604890911
89604903606
89604911846
89604920269
89604927165
89604935161
89604942363
89604949870
89604958049
89604966045
89604974346
89604980998
89604989482
89604996318
89605005656
89605013347
89605021342
89605029765
89605037761
89605045634
89605054301
89605062053
89605068645
89605076152
89605085246
89605093120
89605101298
89605109111
89605115703
89605125224
89605133281
89605140178
89605148295
89605157878
89605166179
89605173137
89605180949
89605188517
89605197795
89605205546
89605213237
89605222575
89605231608
89605237834
89605244303
89605253947
89605262614
89605270121
89605277812
89605285014
89605293559
89605301371
89605309428
89605318583
89605327067
89605335978
89605344462
89605350687
89605360087
89605368571
89605376627
89605385905
89605393046
89605399759
89605409037
89605416605
89605422953
89605430826
89605439798
89605451334
89605458719
89605466593
89605474466
89605480875
89605488138
89605496866
89605505533
89605512064
89605519510
89605527567
89605534281
89605541605
89605549417
89605559366
89605565714
89605572244
89605580850
89605589395
89605594644
89605603189
89605609232
89605619669
89605629007
89605634988
89605642496
89605648904
89605656839
89605666482
89605675577
89605682779
89605689859
89605696756
89605703958
89605711038
89605720315
89605727090
89605734231
89605744790
89605751504
89605758279
89605766824
89605774942
89605782449
89605789956
89605798562
89605807046
89605814309
89605822244
89605830789
89605838540
89605846047
89605853372
89605861733
89605869180
89605875649
89605882424
89605891580
89605902932
89605909341
89605916238
89605924233
89605931680
89605937905
89605948098
89605956032
89605962868
89605970864
89605979592
89605986672
89605994912
89606003213
89606010109
89606019265
89606027810
89606034401
89606042092
89606048256
89606056130
89606066750
89606074746
89606081704
89606090676
89606097817
89606105995
89606112526
89606121376
89606132057
89606139137
89606147988
89606153542
89606162636
89606170143
89606176552
89606186867
89606195107
89606202004
89606208778
89606215858
89606224464
89606232155
89606241493
89606248634
89606256508
89606263954
89606272499
89606278480
89606288246
89606296303
89606305336
89606311683
89606320045
89606327614
89606333168
89606342018
89606350135
89606357399
89606365333
89606374427
89606382118
89606388343
89606395240
89606404335
89606411781
89606420875
89606427955
89606435157
89606442603
89606449073
89606458228
89606465003
89606473975
89606481117
89606488868
89606495948
89606504432
89606512672
89606521339
89606530250
89606536597
89606542945
89606550452
89606558997
89606566688
89606575782
89606582984
89606590491
89606599158
89606606544
89606614234
89606620704
89606631080
89606640418
89606647742
89606656348
89606661780
89606670752
89606677710
89606686621
89606693518
89606703345
89606710120
89606718482
89606725623
89606731543
89606741553
89606747473
89606757239
89606763403
89606771277
89606779395
89606787512
89606794836
89606802771
89606810278
89606819128
89606826636
89606832068
89606840430
89606847449
89606856787
89606865881
89606872656
89606881811
89606888403
89606897009
89606907568
89606915503
89606925024
89606933569
89606942053
89606953650
89606963415
89606973425
89606983007
89606995153
89607008276
89607018713
89607026708
89607037878
89607045507
89607058935
89607069189
89607082617
89607092870
89607106237
89607117834
89607126195
89607138341
89607145055
89607155004
89607165868
89607176427
89607189672
89607198583
89607208410
89607221410
89607232274
89607241735
89607248388
89607262914
89607274816
89607284520
89607294164
89607303563
89607312841
89607323216
89607330907
89607344762
89607355382
89607365025
89607377538
89607387303
89607395177
89607405064
89607413853
89607426427
89607439183
89607448277
89607456334
89607469029
89607475377
89607486180
89607498265
89607508275
89607519261
89607531224
89607542088
89607550206
89607561009
89607571751
89607577549
89607591709
89607604405
89607615879
89607623631
89607633885
89607645237
89607652928
89607661717
89607669895
89607687656
89607699375
89607704868
89607718357
89607726780
89607734898
89607745151
89607754978
89607767368
89607776523
89607789219
89607796421
89607809177
89607815586
89607826084
89607836765
89607848545
89607858249
89607869236
89607878269
89607889133
89607898105
89607908542
89607918186
89607929660
89607942417
89607953586
89607964145
89607971652
89607981113
89607992465
89608001254
89608012912
89608023532
89608031894
89608042941
89608054111
89608065341
89608075107
89608083224
89608092074
89608101230
89608110568
89608119906
89608126254
89608133639
89608140963
89608145724
89608153292
89608161837
89608171664
89608181124
89608188143
89608196505
89608201937
89608210482
89608217379
89608226168
89608232272
89608238375
89608248080
89608259249
89608264193
89608274020
89608279940
89608287386
89608294772
89608299532
89608306979
89608318331
89608327731
89608335665
89608342684
89608349825
89608354098
89608365938
89608371187
89608378756
89608390902
89608397555
89608406954
89608414156
89608422884
89608427828
89608437899
89608446688
89608452547
89608461397
89608469942
89608475740
89608480257
89608491243
89608498384
89608503878
89608511812
89608519014
89608529085
89608534456
89608546480
89608553438
89608561556
89608567598
89608574556
89608584383
89608591707
89608601472
89608610628
89608616792
89608625642
89608632967
89608641756
89608648591
89608654085
89608662996
89608671602
89608679109
89608686555
89608694307
89608702791
89608710176
89608719148
89608727266
89608734590
89608741975
89608751741
89608760286
89608767183
89608776155
89608780549
89608787873
89608796907
89608805207
89608811982
89608819978
89608828889
89608836274
89608844270
89608852021
89608859162
89608866120
89608873017
89608882417
89608888154
89608895966
89608904023
89608912202
89608918305
89608928925
89608936860
89608942292
89608950043
89608956208
89608964753
89608974091
89608982697
89608990204
89608998749
89609005158
89609010651
89609021027
89609026703
89609035248
89609043244
89609050873
89609059601
89609067597
89609076203
89609083710
89609090729
89609098358
89609105744
89609113495
89609120941
89609130463
89609139496
89609145844
89609153961
89609161957
89609167816
89609172577
89609184418
89609192535
89609200653
89609212006
89609217255
89609227203
89609235077
89609242706
89609249786
89609255768
89609264984
89609272064
89609282440
89609291107
89609296356
89609305511
89609313812
89609320892
89609327667
89609337616
89609344940
89609353790
89609363128
89609369659
89609378204
89609383270
89609392181
89609400787
89609406341
89609414764
89609419280
89609430633
89609439849
89609448150
89609455962
89609463836
89609470733
89609478912
89609486114
89609493865
89609500457
89609509978
89609519439
89609525298
89609533843
89609543487
89609551665
89609557525
89609567046
89609571441
89609579314
89609592864
89609597197
89609606475
89609613433
89609622832
89609629790
89609634856
89609644194
89609652068
89609660125
89609667754
89609675139
89609685149
89609692168
89609698821
89609705718
89609713896
89609721831
89609729094
89609739348
89609746550
89609754118
89609761260
89609767241
89609776457
89609784941
89609792571
89609799528
89609804655
89609814360
89609822600
89609831572
89609836027
89609844694
89609853422
89609861296
89609869902
89609877714
89609883696
89609894499
89609903837
89609911467
89609919828
89609929167
89609936003
89609941496
89609950224
89609957243
89609967497
89609974760
89609984159
89609994413
89610001188
89610009184
89610017362
89610023039
89610032621
89610041288
89610050199
89610056364
89610065946
89610072538
89610081083
89610090238
89610097501
89610105863
89610111967
89610124662
89610130155
89610139005
89610146146
89610155179
89610161954
89610170499
89610176420
89610185209
89610192411
89610200467
89610209317
89610217801
89610226407
89610233121
89610242582
89610249356
89610256192
89610264859
89610275357
89610282376
89610287808
89610295865
89610305509
89610313748
89610322659
89610329495
89610337369
89610342862
89610351651
89610360440
89610369107
89610375882
89610383023
89610390775
89610401578
89610408841
89610415677
89610426663
89610434781
89610443204
89610448636
89610456265
89610463894
89610473050
89610479397
89610483914
89610493069
89610505032
89610510098
89610519864
89610526883
89610537198
89610541775
89610548977
89610557705
89610565396
89610575161
89610580471
89610588101
89610596951
89610606106
89610612271
89610621792
89610629116
89610636196
89610644619
89610654263
89610661404
89610668179
89610675503
89610685207
89610691921
89610697597
89610707912
89610712734
89610720791
89610729153
89610738674
89610745144
89610753383
89610762783
89610770412
89610775966
89610783657
89610790188
89610800991
89610810207
89610819973
89610825283
89610832912
89610841640
89610849330
89610856227
89610861232
89610872402
89610880641
89610887355
89610895839
89610898158
89610911281
89610919399
89610924892
89610933315
89610940700
89610951381
89610959621
89610965480
89610976527
89610981349
89610991237
89610999416
89611004665
89611013576
89611021937
89611031703
89611038905
89611044520
89611053004
89611061183
89611070094
89611078212
89611084498
89611089564
89611100856
89611110255
89611119471
89611125941
89611134303
89611141200
89611148036
89611157557
89611163356
89611167933
89611180140
89611189112
89611194972
89611203333
89611210169
89611218104
89611225428
89611232874
89611241725
89611247645
89611258265
89611266688
89611273096
89611281702
89611290553
89611298609
89611305445
89611313258
89611320216
89611327479
89611333887
89611345545
89611352320
89611357264
89611366968
89611375147
89611381800
89611388086
89611393030
89611404078
89611413172
89611419458
89611429834
89611437098
89611442408
89611450830
89611458948
89611468103
89611475000
89611482019
89611489160
89611498133
89611506922
89611513574
89611521997
89611527307
89611537317
89611544275
89611551111
89611560327
89611567285
89611572656
89611581323
89611588953
89611598108
89611604578
89611613550
89611618371
89611626306
89611636804
89611645410
89611651575
89611660791
89611666345
89611674524
89611681970
89611690515
89611697290
89611702783
89611711328
89611719506
89611729455
89611737024
89611743371
89611751062
89611759362
89611767785
89611774316
89611784265
89611789453
89611798181
89611806542
89611814233
89611820825
89611828576
89611837731
89611844567
89611850304
89611861535
89611870995
89611877648
89611885155
89611892785
89611902123
89611909997
89611916711
89611925988
89611932580
89611942589
89611952416
89611961022
89611969140
89611976830
89611984337
89611989892
89611998436
89612006493
89612017296
89612026635
89612032921
89612043236
89612051415
89612057457
89612065941
89612073448
89612080651
89612088036
89612097130
89612103844
89612112816
89612117211
89612126061
89612135033
89612141502
89612150780
89612159386
89612166405
89612175011
89612182335
89612191429
89612198387
89612207848
89612213097
89612223228
89612231346
89612237511
89612250938
89612258934
89612267418
89612274864
89612284996
89612293785
89612300499
89612306846
89612316856
89612322776
89612332237
89612339744
89612349937
89612356895
89612364402
89612371482
89612380088
89612388999
89612396079
89612403343
89612410606
89612418784
89612427207
89612435203
89612442100
89612446677
89612454612
89612468345
89612478355
89612484397
89612493980
89612504111
89612511802
89612519675
89612527671
89612537742
89612546287
89612554709
89612562339
89612570517
89612577781
89612586387
89612596274
89612601279
89612613120
89612618613
89612626303
89612635886
89612641318
89612650473
89612659690
89612668845
89612675864
89612684043
89612692282
89612700949
89612712607
89612718527
89612729819
89612736777
89612743491
89612752768
89612759848
89612766684
89612773093
89612781393
89612790060
89612798239
89612805136
89612812582
89612819418
89612826376
89612832419
89612841269
89612848532
89612860251
89612869589
89612876425
89612884115
89612892477
89612900717
89612907858
89612914572
89612923910
89612929831
89612939108
89612945089
89612954611
89612960775
89612970053
89612976950
89612983785
89612992819
89612998739
89613009603
89613014242
89613024435
89613033224
89613041219
89613048605
89613057943
89613063253
89613071981
89613081075
89613089925
89613097189
89613103902
89613109396
89613119894
89613126485
89613134298
89613143209
89613148092
89613160726
89613169210
89613174703
89613184163
89613191915
89613197347
89613206075
89613212484
89613222066
89613229818
89613236592
89613244283
89613252217
89613260579
89613267964
89613276876
89613282002
89613290792
89613299092
89613306966
89613314107
89613323445
89613329488
89613338765
89613346516
89613354451
89613360738
89613366353
89613377827
89613384785
89613395039
89613401387
89613411214
89613416768
89613427815
89613435078
89613441182
89613449971
89613456563
89613465901
89613473164
89613481831
89613488362
89613496113
89613504841
89613509968
89613519795
89613528584
89613536579
89613544697
89613554219
89613560749
89613569416
89613576069
89613584675
89613591023
89613599873
89613607502
89613612385
89613622151
89613630634
89613639973
89613645222
89613652790
89613662006
89613669331
89613677998
89613683430
89613693439
89613703205
89613710163
89613720356
89613725056
89613732807
89613740742
89613749470
89613758137
89613764728
89613770832
89613780109
89613787189
89613796711
89613804889
89613810444
89613821064
89613826374
89613839618
89613849689
89613860187
89613869403
89613877887
89613883136
89613892963
89613900653
89613907184
89613916522
89613921283
89613932636
89613942096
89613949847
89613957538
89613965961
89613972430
89613979266
89613987628
89613995746
89614008136
89614015826
89614023883
89614031329
89614040607
89614049273
89614058368
89614066668
89614075519
89614084369
89614092669
89614101214
89614110919
89614118670
89614124530
89614134295
89614142413
89614152056
89614157611
89614166583
89614176409
89614185320
89614193804
89614199175
89614208880
89614217974
89614224627
89614231768
89614238238
89614248492
89614258257
89614265765
89614275347
89614282549
89614290972
89614300188
89614307452
89614312151
89614320025
89614328936
89614339556
89614347674
89614354204
89614361101
89614369402
89614375017
89614385820
89614391497
89614401201
89614407976
89614415606
89614422808
89614430803
89614439348
89614448503
89614457537
89614465898
89614473894
89614481462
89614490068
89614495744
89614503679
89614512224
89614517351
89614527666
89614533281
89614541521
89614551897
89614559709
89614565508
89614573503
89614582292
89614588762
89614596269
89614605791
89614612932
89614619035
89614630388
89614638750
89614645402
89614652543
89614660295
89614668779
89614677202
89614683549
89614688188
89614704301
89614712663
89614719560
89614728166
89614738359
89614744157
89614749406
89614760270
89614768327
89614776567
89614786454
89614793900
89614803666
89614810685
89614816850
89614826249
89614836747
89614842912
89614853043
89614860062
89614869340
89614875687
89614884598
89614892777
89614901932
89614908707
89614917863
89614923356
89614934159
89614941849
89614948807
89614957779
89614965592
89614972123
89614981461
89614986954
89614995377
89615004471
89615011307
89615018875
89615027481
89615033036
89615039749
89615049393
89615058365
89615064469
89615072586
89615081558
89615089676
89615095474
89615102616
89615109696
89615118057
89615125259
89615132340
89615140579
89615146622
89615157791
89615163651
89615171890
89615178787
89615187698
89615193863
89615202957
89615207779
89615215530
89615225906
89615235550
89615241165
89615245926
89615257278
89615265213
89615271011
89615279617
89615287552
89615297744
89615306228
89615313125
89615322769
89615327835
89615336624
89615345413
89615351028
89615358901
89615366226
89615376052
89615383315
89615391921
89615396865
89615406265
89615416213
89615423171
89615429397
89615437576
89615445266
89615455459
89615462051
89615471511
89615476150
89615486465
89615493240
89615500930
89615508010
89615517043
89615523513
89615532119
89615540664
89615548537
89615556472
89615563247
89615570937
89615577773
89615585585
89615593642
89615605239
89615613112
89615619521
89615628371
89615636183
89615644789
89615651381
89615657118
89615665175
89615672133
89615682631
89615692397
89615699355
89615708449
89615714125
89615723097
89615730483
89615736830
89615744460
89615752577
89615761183
89615770705
89615777479
89615782423
89615793288
89615801649
89615806593
89615815138
89615823256
89615831495
89615838637
89615846388
89615854750
89615864088
89615870924
89615880201
89615885939
89615893873
89615900526
89615913221
89615919447
89615929396
89615938002
89615944105
89615951856
89615957594
89615966383
89615972975
89615979872
89615988844
89615999342
89616004896
89616014967
89616021619
89616028883
89616035108
89616043592
89616050428
89616060072
89616067701
89616073988
89616081983
89616088331
89616097486
89616106397
89616113050
89616119947
89616127271
89616138135
89616145887
89616153943
89616161084
89616168226
89616176404
89616182813
89616190381
89616197705
89616207532
89616216748
89616225843
89616235425
89616241590
89616250867
89616255689
89616263257
89616272107
89616279126
89616289685
89616298352
89616305249
89616313550
89616321484
89616327344
89616332166
89616344312
89616352673
89616357983
89616369092
89616376660
89616384228
89616393079
89616399243
89616407971
89616415051
89616424450
89616431103
89616437085
89616448437
89616456677
89616465283
89616471020
89616480481
89616488415
89616494458
89616502880
89616508679
89616519970
89616528271
89616535900
89616542736
89616550976
89616559277
89616565319
89616574597
89616579113
89616589184
89616598156
89616605724
89616613049
89616617931
89616628735
89616635998
89616642284
89616650036
89616657848
89616663097
89616672131
89616682018
89616688671
89616697277
89616705211
89616712169
89616719616
89616727794
89616733654
89616739818
89616748913
89616757457
89616766369
89616772533
89616779186
89616786632
89616794262
89616803295
89616809764
89616819774
89616825206
89616837535
89616844738
89616851329
89616860424
89616867076
89616872447
89616881359
89616890636
89616897289
89616907298
89616914867
89616919627
89616927684
89616939403
89616949840
89616956981
89616965221
89616972545
89616979686
89616987620
89616996226
89617004466
89617011302
89617019603
89617025767
89617034373
89617040782
89617052012
89617061229
89617067698
89617075328
89617083262
89617091075
89617097544
89617107371
89617112376
89617119151
89617131541
89617138072
89617146983
89617154368
89617159800
89617169932
89617176768
89617185679
89617192149
89617198435
89617209116
89617218394
89617226878
89617234202
89617241282
89617248057
89617257639
89617263682
89617273081
89617284251
89617292307
89617297861
89617305674
89617314768
89617320688
89617329661
89617336924
89617343821
89617352182
89617362253
89617370310
89617376596
89617384287
89617392832
89617401865
89617411264
89617417124
89617425730
89617432321
89617441721
89617450266
89617458078
89617466318
89617472788
89617480356
89617487436
89617495126
89617504404
89617511789
89617521555
89617527536
89617536691
89617543588
89617552866
89617557687
89617568430
89617576364
89617584970
89617595224
89617603158
89617609811
89617619211
89617624948
89617632821
89617640756
89617650461
89617655160
89617666452
89617674264
89617683603
89617691720
89617699105
89617705880
89617713998
89617720224
89617729562
89617735604
89617745248
89617751046
89617759591
89617770150
89617777230
89617784371
89617789071
89617799691
89617807443
89617814889
89617825143
89617833199
89617840524
89617845406
89617855782
89617863839
89617870858
89617878487
89617883370
89617893563
89617903756
89617912972
89617919198
89617926583
89617936593
89617941597
89617951180
89617957222
89617966317
89617974984
89617982857
89617989266
89618000191
89618008492
89618014229
89618023323
89618030159
89618037422
89618046456
89618057320
89618064156
89618073006
89618077828
89618085396
89618095955
89618103584
89618110298
89618118477
89618125435
89618135262
89618142586
89618150825
89618157234
89618165474
89618174568
89618180305
89618189216
89618196541
89618207283
89618214119
89618222969
89618228035
89618236763
89618246101
89618253547
89618261177
89618274360
89618281868
89618289070
89618298408
89618307136
89618314338
89618320625
89618325386
89618338020
89618345771
89618352363
89618362434
89618369392
89618376594
89618384162
89618391914
89618399726
89618407539
89618414314
89618421516
89618431098
89618440253
89618447211
89618453681
89618462287
89618467719
89618476691
89618484870
89618493659
89618501105
89618507209
89618519050
89618525092
89618533759
89618541877
89618548224
89618553229
89618563239
89618571174
89618579840
89618587104
89618596625
89618602546
89618611212
89618619513
89618625495
89618634589
89618641486
89618648932
89618656623
89618666815
89618674872
89618682440
89618687506
89618697028
89618705451
89618712836
89618719428
89618728827
89618734625
89618747198
89618752753
89618762457
89618769293
89618778693
89618783453
89618791083
89618799933
89618807013
89618817511
89618821844
89618833380
89618840216
89618846258
89618856756
89618863836
89618873602
89618881414
89618890020
89618898687
89618904486
89618911505
89618918585
89618926458
89618935003
89618942022
89618951666
89618956671
89618968145
89618976202
89618983099
89618990301
89618998846
89619005010
89619014227
89619019903
89619027898
89619036016
89619045110
89619054693
89619060247
89619068487
89619078863
89619085271
89619094121
89619100530
89619108831
89619116460
89619126714
89619133489
89619143743
89619146001
89619158025
89619165349
89619171880
89619181401
89619187993
89619194341
89619204656
89619213506
89619222417
89619229985
89619236699
89619243779
89619251409
89619260747
89619266789
89619273747
89619284673
89619292241
89619299382
89619306340
89619315739
89619323369
89619330205
89619337468
89619343083
89619354314
89619364140
89619371403
89619379765
89619385075
89619394292
89619401616
89619410649
89619415471
89619424626
89619434147
89619442753
89619449772
89619458500
89619464909
89619472660
89619478825
89619488774
89619496830
89619503971
89619511723
89619520329
89619528080
89619535465
89619542301
89619549809
89619557865
89619565922
89619574772
89619584477
89619591679
89619598087
89619605473
89619613163
89619621830
89619629276
89619635746
89619643925
89619652042
89619662174
89619668095
89619677494
89619682743
89619692203
89619700260
89619706486
89619715641
89619724735
89619730961
89619739750
89619748478
89619756961
89619763248
89619769718
89619777591
89619787113
89619792850
89619801212
89619808597
89619817386
89619826175
89619834842
89619842044
89619850345
89619859805
89619865543
89619873721
89619881046
89619891605
89619899600
89619909427
89619914005
89619921634
89619930118
89619936526
89619945804
89619953677
89619962161
89619970340
89619978885
89619986209
89619994571
89620002872
89620005130
89620018435
89620025271
89620035098
89620042544
89620052127
89620061343
89620066775
89620074038
89620082339
89620091006
89620097354
89620105044
89620114016
89620122500
89620131106
89620137759
89620142825
89620154605
89620162661
89620170657
89620176333
89620185305
89620196291
89620201540
89620213503
89620220217
89620225344
89620235232
89620243777
89620251101
89620258181
89620263491
89620274416
89620282961
89620289919
89620296938
89620304690
89620313479
89620320864
89620327395
89620335695
89620342897
89620353334
89620361513
89620371645
89620374025
89620387575
89620392397
89620402346
89620409365
89620417299
89620424929
89620432070
89620440920
89620449770
89620454469
89620464357
89620472231
89620477785
89620486391
89620492677
89620501955
89620507082
89620515993
89620527467
89620535097
89620541017
89620550233
89620556947
89620564943
89620572450
89620581483
89620588563
89620598268
89620603212
89620612489
89620621827
89620628236
89620634523
89620642152
89620651979
89620660218
89620665773
89620675416
89620683961
89620689637
89620697511
89620706910
89620712709
89620721620
89620727967
89620738282
89620748048
89620753602
89620762208
89620768983
89620777039
89620784791
89620792725
89620800477
89620810365
89620819093
89620825013
89620832886
89620842042
89620847962
89620855653
89620864991
89620871766
89620877076
89620888184
89620896485
89620903016
89620912598
89620918213
89620927186
89620937317
89620949646
89620962098
89620976075
89620987244
89620995423
89621008118
89621021607
89621030030
89621040650
89621050354
89621071350
89621080017
89621091248
89621100891
89621111145
89621121887
89621130127
89621139893
89621148498
89621158386
89621168335
89621177368
89621185791
89621196838
89621205566
89621214844
89621222900
89621231811
89621240722
89621248657
89621254821
89621264953
89621277160
89621285949
89621294921
89621303283
89621312255
89621321960
89621329467
89621337280
89621348693
89621357665
89621365295
89621376464
89621383605
89621393554
89621400329
89621411803
89621419860
89621429382
89621438476
89621446960
89621456298
89621464843
89621473876
89621485351
89621495299
89621503661
89621513671
89621522094
89621530761
89621539245
89621549498
89621558043
89621567260
89621576659
89621585936
89621597228
89621605956
89621614623
89621623961
89621632811
89621643004
89621655943
89621664488
89621671263
89621680541
89621689146
89621697691
89621705687
89621714171
89621725157
89621734068
89621740843
89621749144
89621756163
89621765379
89621773314
89621783018
89621790220
89621798277
89621806578
89621813780
89621820799
89621827940
89621836180
89621843748
89621850157
89621857786
89621866026
89621871336
89621875730
89621879515
89621886412
89621890806
89621894895
89621899839
89621903257
89621908750
89621912718
89621917662
89621922300
89621925962
89621930662
89621934751
89621939695
89621944090
89621949461
89621955381
89621960020
89621965452
89621969907
89621974729
89621980100
89621984922
89621989622
89621994932
89621998899
89622003782
89622010191
89622016477
89622021055
89622025999
89622031065
89622036253
89622040586
89622045225
89622050474
89622055112
89622059446
89622066587
89622072019
89622076353
89622081235
89622085691
89622091062
89622095395
89622101011
89622106687
89622111875
89622117551
89622120908
89622127256
89622132566
89622137632
89622143491
89622149289
89622154905
89622159482
89622164060
89622169858
89622174924
89622179624
89622184690
89622191404
89622196591
89622201902
89622206906
89622211667
89622216733
89622219480
89622228208
89622233884
89622239072
89622243894
89622248837
89622255002
89622260007
89622265256
89622270749
89622276120
89622281613
89622285947
89622292111
89622296445
89622301511
89622307492
89622313657
89622318234
89622323849
89622327756
89622333554
89622338742
89622343747
89622349972
89622355832
89622362118
89622368222
89622375119
89622381222
89622389096
89622395749
89622400570
89622409298
89622417965
89622423031
89622431820
89622438290
89622444699
89622453000
89622459591
89622467404
89622474911
89622480282
89622488583
89622492550
89622500790
89622508602
89622516598
89622523068
89622530697
89622539974
89622547543
89622553646
89622561825
89622569576
89622573971
89622583370
89622590389
89622596432
89622605465
89622613827
89622620541
89622628170
89622634212
89622640621
89622648678
89622655697
89622661739
89622670040
89622678707
89622685177
89622689083
89622699398
89622706844
89622715816
89622722896
89622729976
89622739742
89622748104
89622755550
89622762020
89622767635
89622775569
89622780696
89622788814
89622798152
89622805965
89622812801
89622826656
89622833125
89622840633
89622853694
89622861263
89622868648
89622877742
89622885005
89622894283
89622904353
89622906673
89622919978
89622924556
89622934932
89622944026
89622949031
89622959529
89622964656
89622973262
89622981380
89622988765
89622997432
89623006404
89623013179
89623018306
89623029902
89623037349
89623045832
89623052058
89623061946
89623068965
89623077876
89623083918
89623091853
89623096369
89623107356
89623112971
89623122187
89623126399
89623135981
89623142939
89623149104
89623155818
89623162409
89623171809
89623180048
89623185664
89623194331
89623200495
89623209223
89623213801
89623221369
89623230097
89623236262
89623246027
89623254877
89623261347
89623268183
89623274958
89623282770
89623289972
89623297724
89623304499
89623309626
89623318537
89623327875
89623336359
89623343378
89623349665
89623357294
89623364191
89623372858
89623379511
89623385675
89623395075
89623403498
89623411310
89623418939
89623427667
89623434442
89623440485
89623448725
89623455438
89623465692
89623474909
89623481439
89623488641
89623494623
89623503290
89623511041
89623517511
89623524164
89623533502
89623543024
89623549737
89623558465
89623562982
89623572565
89623580560
89623585992
89623595636
89623600458
89623607354
89623617242
89623624444
89623633783
89623638238
89623649469
89623656549
89623660882
89623670526
89623678338
89623683770
89623695184
89623701837
89623710443
89623718743
89623725396
89623732049
89623738397
89623747308
89623751763
89623764947
89623772759
89623779778
89623789117
89623797051
89623804009
89623808953
89623817986
89623826470
89623834283
89623841424
89623848992
89623857964
89623866509
89623871880
89623881829
89623886895
89623895196
89623904168
89623911309
89623921685
89623929985
89623937066
89623942070
89623952446
89623958367
89623968376
89623976311
89623983635
89623988396
89623999260
89624007073
89624014824
89624019707
89624029350
89624038628
89624044182
89624053581
89624059319
89624067803
89624079277
89624085014
89624095268
89624101311
89624107353
89624119011
89624157768
89624165214
89624172478
89624180351
89624187736
89624192924
89624203544
89624213432
89624219413
89624228630
89624234550
89624244072
89624253898
89624260551
89624270256
89624278129
89624284050
89624293571
89624300956
89624310539
89624318901
89624325309
89624335868
89624345023
89624354484
89624362479
89624369376
89624377799
89624387016
89624395621
89624403190
89624411491
89624419303
89624427482
89624436637
89624445304
89624453483
89624458793
89624469779
89624478690
89624485038
89624493155
89624501334
89624509147
89624519034
89624526542
89624536124
89624541556
89624551688
89624560599
89624567862
89624576102
89624581351
89624592642
89624601554
89624608328
89624616446
89624624503
89624632987
89624642264
89624650626
89624662161
89624670157
89624676199
89624686026
89624693716
89624701041
89624711050
89624716971
89624725516
89624733328
89624741995
89624750967
89624757620
89624766958
89624773855
89624784720
89624793692
89624799978
89624809256
89624816824
89624827627
89624834829
89624840750
89624850698
89624858328
89624868216
89624876028
89624882131
89624891104
89624897879
89624908804
89624917959
89624926321
89624934194
89624940725
89624951650
89624958975
89624964895
89624974538
89624984548
89624991750
89625001150
89625007253
89625016714
89625025381
89625035085
89625042409
89625049428
89625058034
89625067495
89625076040
89625084218
89625091604
89625099233
89625108327
89625117299
89625124746
89625134938
89625140126
89625150319
89625159291
89625166799
89625174977
89625184194
89625190297
89625199452
89625207936
89625215993
89625221364
89625232594
89625243398
89625250722
89625258168
89625265675
89625276173
89625285146
89625292531
89625300526
89625309071
89625318043
89625324574
89625334035
89625342335
89625347767
89625356129
89625365834
89625375416
89625383168
89625391408
89625402211
89625410206
89625420155
89625430043
89625437855
89625445240
89625453602
89625462391
89625468861
89625478138
89625486012
89625494984
89625504261
89625510426
89625521046
89625528431
89625536122
89625544666
89625553639
89625561512
89625569019
89625577381
89625583729
89625594715
89625602894
89625608936
89625618519
89625628834
89625635242
89625646046
89625653797
89625662159
89625670093
89625678699
89625687427
89625694874
89625702381
89625711353
89625720569
89625726307
89625737354
89625745716
89625752979
89625762134
89625770069
89625777515
89625785266
89625791980
89625801990
89625808948
89625819080
89625827747
89625837146
89625843311
89625852710
89625860278
89625867908
89625877795
89625886829
89625894763
89625902759
89625910632
89625918018
89625927539
89625936084
89625944140
89625952746
89625961413
89625967700
89625977282
89625984729
89625992541
89626002612
89626011645
89626018908
89626026416
89626034472
89626043383
89626052905
89626059863
89626070422
89626075427
89626084277
89626094103
89626101733
89626112353
89626117724
89626126086
89626134936
89626144152
89626153918
89626162951
89626169421
89626178027
89626187731
89626195177
89626202990
89626209643
89626219408
89626226916
89626236925
89626246264
89626253344
89626261156
89626270373
89626277025
89626285692
89626292101
89626302172
89626311632
89626320665
89626329454
89626337816
89626345751
89626354479
89626361437
89626369860
89626377245
89626385424
89626395250
89626403002
89626411180
89626421007
89626429918
89626436388
89626445299
89626455187
89626462267
89626467394
89626478014
89626485887
89626491441
89626500841
89626505724
89626516038
89626524889
89626530748
89626541002
89626549974
89626557054
89626566820
89626572557
89626582933
89626591173
89626597581
89626607286
89626616563
89626623643
89626632188
89626643052
89626650560
89626656846
89626666917
89626675523
89626683763
89626691697
89626699021
89626708726
89626715867
89626726365
89626734422
89626740281
89626748582
89626755296
89626764207
89626773240
89626779588
89626788621
89626797349
89626804490
89626813096
89626819810
89626828843
89626837144
89626847214
89626855027
89626863267
89626871323
89626877854
89626888657
89626895371
89626905991
89626913926
89626921067
89626931137
89626937302
89626947129
89626955735
89626963303
89626972702
89626980210
89626989121
89626994492
89627004135
89627012985
89627020554
89627029953
89627034775
89627044724
89627054001
89627062058
89627070541
89627077805
89627084579
89627093063
89627102035
89627111435
89627118698
89627126327
89627134323
89627142990
89627151535
89627158432
89627167648
89627175949
89627182724
89627191696
89627200546
89627208358
89627215927
89627222580
89627232101
89627239730
89627250717
89627256271
89627266220
89627273483
89627281600
89627293136
89627302108
89627308212
89627318405
89627324996
89627335006
89627340987
89627350753
89627358627
89627366134
89627376266
89627382858
89627391891
89627396896
89627407333
89627416305
89627422652
89627433028
89627438460
89627447005
89627456527
89627465682
89627471847
89627480391
89627486434
89627496444
89627503707
89627512557
89627520186
89627529769
89627538436
89627543990
89627553450
89627559920
89627570052
89627579390
89627585433
89627595259
89627602034
89627612105
89627620833
89627627852
89627635359
89627644454
89627650679
89627655989
89627668196
89627675337
89627681563
89627691267
89627699080
89627708296
89627713179
89627723250
89627732222
89627739119
89627749190
89627754378
89627767805
89627775557
89627780989
89627790571
89627797651
89627806685
89627814070
89627822615
89627831526
89627839888
89627848249
89627855513
89627864424
89627873396
89627879804
89627889997
89627894941
89627906050
89627914778
89627923689
89627930708
89627935468
89627945966
89627954511
89627960737
89627971540
89627981611
89627988874
89627996137
89628005537
89628011884
89628021039
89628030622
89628036237
89628046430
89628055219
89628061200
89628071576
89628076764
89628089948
89628098127
89628105573
89628114545
89628121076
89628129987
89628138410
89628144269
89628152936
89628160932
89628170880
89628175946
89628184247
89628193097
89628201703
89628211530
89628219403
89628226239
89628235577
89628243207
89628254681
89628264752
89628272321
89628279889
89628287518
89628296368
89628303570
89628313153
89628318646
89628329754
89628339337
89628346905
89628353558
89628360760
89628369305
89628375775
89628383709
89628389447
89628398846
89628408978
89628417462
89628423748
89628432293
89628438458
89628448040
89628452679
89628464520
89628471600
89628479473
89628486370
89628495709
89628502972
89628510174
89628517803
89628527142
89628533672
89628542767
89628547588
89628557415
89628566265
89628575359
89628581890
89628590374
89628597088
89628603985
89628614483
89628620708
89628629131
89628636700
89628645122
89628651287
89628659527
89628666851
89628676922
89628682903
89628691936
89628699321
89628706340
89628714092
89628723247
89628730877
89628737896
89628747051
89628755046
89628762981
89628769939
89628777996
89628784831
89628793804
89628803813
89628811931
89628819621
89628826457
89628833354
89628842204
89628850322
89628857463
89628864421
89628871562
89628881877
89628889079
89628894145
89628903117
89628913188
89628919963
89628927104
89628933147
89628943522
89628952067
89628962504
89628967997
89628976787
89628984843
89628992473
89629001323
89629006389
89629018718
89629027140
89629034953
89629041301
89629049235
89629057963
89629063456
89629072978
89629081339
89629083598
89629096781
89629102213
89629113322
89629121134
89629127665
89629136271
89629143168
89629152140
89629159892
89629168742
89629178812
89629184550
89629193705
89629198588
89629206217
89629217692
89629222330
89629231974
89629240275
89629246866
89629257303
89629263834
89629273295
89629282267
89629289164
89629296549
89629303812
89629312540
89629318399
89629328592
89629337992
89629344095
89629351786
89629357645
89629366800
89629374979
89629381632
89629391275
89629397623
89629406534
89629416116
89629422342
89629431497
89629436807
89629444742
89629452310
89629461160
89629467264
89629478006
89629486795
89629494852
89629503458
89629509927
89629519937
89629527627
89629533121
89629541971
89629547952
89629558755
89629567056
89629574685
89629582986
89629592141
89629600137
89629607278
89629617532
89629622476
89629629373
89629640054
89629650064
89629656777
89629665872
89629673684
89629680825
89629688272
89629696572
89629702493
89629709023
89629718362
89629728921
89629737038
89629742104
89629752114
89629756509
89629766763
89629776223
89629782693
89629790261
89629800393
89629808266
89629815468
89629823098
89629832131
89629839455
89629846657
89629853859
89629862710
89629873391
89629880593
89629889992
89629896950
89629902565
89629910439
89629920754
89629926735
89629934487
89629943947
89629951454
89629961464
89629970192
89629976601
89629985878
89629990395
89630000527
89630008522
89630015785
89630025551
89630032448
89630038796
89630047218
89630055946
89630064186
89630072060
89630078651
89630086220
89630096290
89630104164
89630113808
89630119850
89630124245
89630135963
89630140785
89630150306
89630158790
89630165138
89630176124
89630185707
89630192299
89630196754
89630205055
89630213966
89630222084
89630231605
89630236305
89630246559
89630253578
89630260780
89630270118
89630276893
89630286842
89630291969
89630298988
89630308143
89630316078
89630324683
89630334815
89630341407
89630349830
89630356116
89630365699
89630371925
89630381751
89630388892
89630394508
89630404761
89630413795
89630421180
89630426185
89630435157
89630444434
89630451148
89630457618
89630465613
89630473792
89630483985
89630493995
89630500830
89630509620
89630517493
89630524573
89630531287
89630539893
89630546241
89630556739
89630561621
89630570532
89630579444
89630586035
89630595618
89630603125
89630608557
89630617529
89630623877
89630633765
89630641699
89630649634
89630657019
89630665320
89630673743
89630681128
89630688757
89630693274
89630702429
89630711401
89630718725
89630726233
89630734595
89630739966
89630749182
89630755652
89630764380
89630769629
89630779394
89630788427
89630796728
89630805151
89630810827
89630820349
89630828100
89630834021
89630842749
89630850256
89630859411
89630867407
89630877722
89630884863
89630891088
89630900549
89630907629
89630916662
89630924963
89630931982
89630940344
89630947363
89630956701
89630964452
89630970068
89630980505
89630985326
89630994482
89631003210
89631010473
89631021032
89631031225
89631040746
89631046850
89631057531
89631065404
89631071264
89631079625
89631086766
89631096654
89631105993
89631113805
89631118505
89631126500
89631135350
89631144567
89631151769
89631156529
89631169225
89631177526
89631184911
89631193456
89631202855
89631209752
89631214208
89631224156
89631232701
89631240392
89631249974
89631256383
89631270909
89631278233
89631284337
89631298070
89631305760
89631316014
89631323094
89631329503
89631338109
89631346715
89631355443
89631363133
89631369786
89631374302
89631383458
89631392247
89631398899
89631409336
89631417759
89631424229
89631432713
89631439488
89631448765
89631456394
89631463658
89631470799
89631480747
89631486851
89631494541
89631504063
89631508946
89631517979
89631528660
89631533238
89631542149
89631546848
89631559788
89631567356
89631572666
89631581943
89631591099
89631597385
89631602085
89631614109
89631621067
89631628269
89631635410
89631643833
89631650181
89631661228
89631667820
89631675754
89631683323
89631688938
89631697178
89631706333
89631716587
89631723423
89631732456
89631736850
89631744480
89631754795
89631759738
89631768466
89631776584
89631782565
89631791049
89631801486
89631807468
89631815341
89631821872
89631829379
89631837497
89631846103
89631853793
89631863437
89631873691
89631880466
89631886630
89631892795
89631900912
89631908969
89631919040
89631923800
89631931369
89631942721
89631950290
89631959811
89631968112
89631974887
89631981601
89631990939
89631997042
89632006381
89632013644
89632020968
89632030978
89632038912
89632045870
89632053866
89632060031
89632069125
89632076022
89632084689
89632093783
89632102938
89632112643
89632117892
89632133212
89632144808
89632156405
89632169344
89632182101
89632197542
89632208163
89632221956
89632228548
89632245821
89632252718
89632266634
89632277803
89632288668
89632300570
89632310030
89632319429
89632330538
89632337435
89632343843
89632349825
89632355623
89632362093
89632366365
89632371492
89632376924
89632383333
89632389314
89632395174
89632400301
89632408357
89632412142
89632418306
89632424532
89632429414
89632436311
89632441011
89632445894
89632452974
89632459627
89632464510
89632469148
89632474031
89632480318
89632485811
89632491487
89632497224
89632504426
89632509431
89632514009
89632520845
89632525911
89632533418
89632536836
89632545076
89632550447
89632555696
89632561372
89632565645
89632572114
89632577119
89632582978
89632588289
89632594758
89632601167
89632606477
89632611665
89632617646
89632624055
89632639436
89632649873
89632659394
89632669465
89632676484
89632683991
89632688935
89632694795
89632702058
89632707490
89632712617
89632717011
89632722932
89632728486
89632733918
89632739472
89632747102
89632751618
89632757050
89632761079
89632766755
89632773225
89632778901
89632785065
89632789826
89632794160
89632799409
89632806611
89632812104
89632818513
89632825348
89632830231
89632836091
89632840302
89632845612
89632850251
89632857758
89632865143
89632870392
89632875641
89632880768
89632887482
89632893708
89632903351
89632910431
89632916657
89632921112
89632926911
89632931061
89632938385
89632944062
89632949799
89632956879
89632960541
89632967499
89632972992
89632979645
89632983490
89632989655
89632995941
89633002167
89633008209
89633013275
89633020050
89633026886
89633036530
89633043976
89633052338
89633059235
89633068390
89633073273
89633081573
89633088226
89633096039
89633104828
89633114288
89633122528
89633129059
89633135528
89633144073
89633150116
89633159088
89633164276
89633176361
89633187042
89633194610
89633200470
89633208709
89633215667
89633222747
89633230926
89633238311
89633246429
89633256683
89633261444
89633269378
89633279937
89633283782
89633291961
89633300201
89633307647
89633316558
89633325835
89633330535
89633338287
89633346282
89633356719
89633365508
89633373626
89633384124
89633390777
89633400054
89633408416
89633413970
89633422759
89633428496
89633437835
89633446196
89633454436
89633459502
89633468352
89633476958
89633485137
89633494658
89633501189
89633510833
89633517668
89633525481
89633535186
89633542571
89633550933
89633556548
89633564971
89633573088
89633580535
89633587004
89633597258
89633603423
89633612029
89633619780
89633628569
89633635710
89633641875
89633649565
89633656279
89633664946
89633671049
89633677519
89633686613
89633694914
89633703276
89633710173
89633717375
89633724699
89633732023
89633740507
89633747465
89633757780
89633762236
89633770292
89633779203
89633786528
89633795866
89633800810
89633809721
89633818022
89633825346
89633832426
89633841764
89633851286
89633857084
89633865263
89633874540
89633882169
89633888883
89633896330
89633904691
89633914823
89633921537
89633928922
89633937711
89633943143
89633954618
89633962675
89633968534
89633975797
89633981595
89633991361
89634001432
89634007596
89634016691
89634024198
89634029081
89634038297
89634047574
89634053251
89634066861
89634073514
89634081937
89634087674
89634096036
89634104764
89634113309
89634119657
89634127896
89634133329
89634144681
89634152616
89634160245
89634167874
89634175199
89634182462
89634188504
89634197354
89634205838
89634213651
89634221219
89634228604
89634239590
89634244473
89634252957
89634257718
89634266995
89634275296
89634282132
89634291653
89634300381
89634307095
89634314419
89634320645
89634329922
89634337246
89634346158
89634351101
89634361477
89634371609
89634378079
89634386868
89634394009
89634399807
89634408108
89634415493
89634424282
89634429165
89634438015
89634446743
89634453823
89634462979
89634471401
89634479214
89634486416
89634495388
89634501309
89634510037
89634518398
89634523281
89634532436
89634540920
89634547390
89634555019
89634562588
89634570888
89634579800
89634586574
89634594143
89634603359
89634609768
89634620388
89634625210
89634634487
89634642299
89634652309
89634657375
89634666774
89634675441
89634684780
89634690334
89634695156
89634708156
89634716457
89634724025
89634729885
89634739467
89634746974
89634757289
89634763149
89634771938
89634780361
89634789699
89634796779
89634802394
89634811488
89634821925
89634829128
89634837917
89634845241
89634852443
89634860072
89634866725
89634875880
89634882228
89634890163
89634898524
89634909450
89634916957
89634923305
89634933619
89634941676
89634949855
89634957301
89634965113
89634973414
89634985011
89634989894
89634999354
89635007045
89635015834
89635023951
89635031214
89635037806
89635047389
89635053614
89635062342
89635069850
89635078639
89635083338
89635091456
89635100245
89635108973
89635114527
89635124537
89635132838
89635142359
89635148463
89635156885
89635163538
89635169947
89635177698
89635189112
89635197779
89635205774
89635215113
89635221949
89635230799
89635238733
89635244227
89635252100
89635259974
89635269190
89635277857
89635283411
89635296045
89635301660
89635310999
89635315760
89635324549
89635333643
89635340174
89635348841
89635355921
89635365320
89635370874
89635380151
89635388635
89635396143
89635402673
89635410425
89635419214
89635424890
89635429651
89635443140
89635448206
89635457117
89635464136
89635472192
89635477869
89635486780
89635493677
89635502710
89635510034
89635516565
89635523462
89635531274
89635539819
89635547815
89635554712
89635562341
89635572473
89635579736
89635585656
89635596154
89635604821
89635612451
89635617456
89635627038
89635633691
89635641198
89635650292
89635655297
89635662560
89635673303
89635680566
89635687035
89635694848
89635702599
89635710778
89635718163
89635727074
89635731896
89635740685
89635750207
89635759118
89635764428
89635768944
89635781090
89635788842
89635794274
89635802941
89635810326
89635816430
89635826317
89635836571
89635844750
89635849694
89635858056
89635865990
89635871544
89635880455
89635887169
89635897179
89635904564
89635913170
89635918724
89635927941
89635935875
89635943505
89635950340
89635957543
89635965050
89635978783
89635984459
89635994042
89636001000
89636007103
89636015953
89636024010
89636030540
89636037010
89636050804
89636055687
89636065330
89636073265
89636079246
89636088890
89636093712
89636101463
89636110557
89636118431
89636125755
89636134544
89636139915
89636148887
89636157127
89636163536
89636172386
89636181480
89636188499
89636195396
89636205223
89636211875
89636217185
89636225852
89636235679
89636243858
89636249229
89636258872
89636263999
89636273460
89636282859
89636290611
89636297324
89636306052
89636312339
89636320701
89636328757
89636335288
89636342368
89636351524
89636360129
89636368552
89636374595
89636383445
89636390342
89636397422
89636403525
89636412803
89636422873
89636437766
89636444968
89636454551
89636463279
89636469687
89636479514
89636485434
89636491599
89636500510
89636508017
89636522971
89636529441
89636537131
89636546347
89636552268
89636561789
89636568747
89636576010
89636585227
89636594443
89636603903
89636612997
89636619955
89636627097
89636634238
89636642721
89636650412
89636659384
89636661703
89636674704
89636680441
89636688620
89636697958
89636706076
89636712912
89636717917
89636726645
89636734884
89636742209
89636751730
89636756369
89636764669
89636772482
89636780355
89636787497
89636792013
89636803060
89636809896
89636813925
89636825826
89636830709
89636842367
89636846945
89636852987
89636862997
89636869711
89636876791
89636883382
89636888387
89636899130
89636907674
89636914877
89636919637
89636930257
89636938314
89636944906
89636951375
89636956014
89636967672
89636976034
89636981710
89636991414
89636998617
89637003805
89637012166
89637020345
89637029134
89637036275
89637043294
89637052205
89637058370
89637066060
89637073262
89637079610
89637086934
89637094930
89637102620
89637109395
89637116536
89637123616
89637132344
89637140340
89637146443
89637155232
89637164143
89637171895
89637178914
89637185994
89637195210
89637202351
89637209187
89637216023
89637224019
89637232075
89637239705
89637247212
89637252095
89637261983
89637270528
89637276814
89637286030
89637293416
89637299397
89637307820
89637316365
89637322163
89637330159
89637336323
89637346821
89637356709
89637363606
89637371357
89637378071
89637385456
89637393696
89637402424
89637408833
89637415974
89637424336
89637433552
89637441853
89637446919
89637456562
89637461201
89637468586
89637477009
89637484394
89637496113
89637501240
89637508259
89637519428
89637524494
89637533527
89637542011
89637547565
89637555500
89637564655
89637574726
89637582233
89637589008
89637596149
89637602253
