89638564042
89638570817
89638577653
89638583268
89638588395
89638597978
89638604936
89638612077
89638618730
89638623857
89638633927
89638641679
89638649430
89638655778
89638664140
89638672685
89638677201
89638685136
89638694535
89638701432
89638710587
89638717789
89638723405
89638729752
89638738602
89638746598
89638753007
89638759720
89638766129
89638773881
89638780839
89638787064
89638792618
89638803422
89638809464
89638815140
89638823014
89638829850
89638836686
89638845108
89638850357
89638858292
89638865006
89638871659
89638878861
89638887711
89638896439
89638902420
89638909073
89638917008
89638924027
89638931107
89638938553
89638946427
89638953079
89638958939
89638964920
89638969437
89638977127
89638982742
89638989151
89638994339
89638999588
89639007156
89639012955
89639019241
89639024551
89639031448
89639037918
89639044205
89639049576
89639055740
89639061661
89639068435
89639075332
89639079849
89639086868
89639092788
89639100784
89639107132
89639114151
89639117874
89639127273
89639133987
89639140518
89639147049
89639152481
89639159072
89639165542
89639172378
89639178421
89639185134
89639190628
89639198318
89639204483
89639211990
89639218460
89639224929
89639230911
89639236648
89639243728
89639249954
89639255386
89639261184
89639268691
89639274429
89639282607
89639286880
89639293777
89639299453
89639306838
89639313613
89639320388
89639326125
89639333144
89639339980
89639349135
89639357314
89639363357
89639371779
89639375869
89639384109
89639391128
89639397841
89639404189
89639409377
89639416823
89639423049
89639430007
89639435622
89639443190
89639447585
89639457717
89639465224
89639472670
89639478957
89639486159
89639491774
89639499587
89639502638
89639511855
89639519118
89639524672
89639532179
89639542861
89639550734
89639558669
89639568190
89639575331
89639582533
89639589186
89639596877
89639602858
89639611403
89639619093
89639629530
89639636061
89639644362
89639648817
89639660719
89639668593
89639675001
89639679701
89639690199
89639696058
89639705031
89639712294
89639721449
89639726576
89639734510
89639741102
89639749464
89639756910
89639764479
89639771742
89639780287
89639787428
89639794813
89639802503
89639811842
89639818739
89639827650
89639835462
89639842909
89639849683
89639856886
89639863294
89639872389
89639879163
89639885145
89639891554
89639900770
89639907789
89639915052
89639922925
89639929151
89639937574
89639944105
89639951673
89639958143
89639966627
89639974866
89639981824
89639987439
89639997938
89640003980
89640014478
89640021924
89640030286
89640037549
89640046033
89640054273
89640063123
89640071424
89640078992
89640086011
89640095716
89640102918
89640111951
89640118665
89640127393
89640134778
89640140881
89640151380
89640158399
89640165112
89640174634
89640181531
89640187512
89640198132
89640203503
89640213635
89640219128
89640228467
89640235608
89640242688
89640250867
89640258984
89640266308
89640274670
89640282849
89640289807
89640299511
89640307446
89640313855
89640321179
89640329724
89640336377
89640345410
89640354565
89640361462
89640367199
89640377758
89640383435
89640394299
89640399914
89640409435
89640417248
89640426464
89640434094
89640441540
89640446423
89640456982
89640464916
89640473583
89640480785
89640488842
89640495556
89640500866
89640511364
89640514355
89640526073
89640531872
89640542797
89640548351
89640558788
89640564525
89640573131
89640580639
89640590587
89640600414
89640608288
89640615917
89640624157
89640631908
89640640514
89640647289
89640655834
89640662731
89640671886
89640679821
89640688365
89640695140
89640702220
89640711009
89640719737
89640729442
89640737682
89640744823
89640750133
89640759593
89640765331
89640775462
89640781444
89640792857
89640800609
89640809642
89640817882
89640824840
89640832408
89640841319
89640846629
89640857066
89640867320
89640874278
89640881114
89640890086
89640897471
89640906871
89640913524
89640922740
89640930247
89640936106
89640946116
89640952159
89640962901
89640969615
89640979197
89640986399
89640995188
89641003367
89641011546
89641019724
89641027415
89641034617
89641042429
89641051219
89641057871
89641067698
89641076304
89641083140
89641091624
89641097788
89641105357
89641112192
89641121104
89641128794
89641137522
89641146494
89641149912
89641160837
89641168650
89641176157
89641185862
89641193796
89641202952
89641212595
89641219309
89641229929
89641235666
89641243296
89641251352
89641260996
89641269174
89641278574
89641286081
89641292856
89641299631
89641308481
89641317087
89641323252
89641335764
89641344675
89641351816
89641359934
89641368967
89641376901
89641384531
89641392343
89641399972
89641409799
89641417551
89641427011
89641435251
89641440378
89641451608
89641457345
89641467660
89641473092
89641483102
89641488107
89641497690
89641503915
89641513803
89641519540
89641530709
89641536996
89641548043
89641555795
89641563974
89641571481
89641578256
89641585031
89641594186
89641601510
89641610970
89641618417
89641625680
89641635507
89641642220
89641648934
89641656930
89641664193
89641672555
89641682504
89641688058
89641698190
89641705758
89641713082
89641721139
89641730599
89641738412
89641744881
89641751351
89641760323
89641767342
89641776131
89641783700
89641792428
89641799447
89641804818
89641815682
89641821907
89641832405
89641838021
89641846321
89641854805
89641863777
89641871590
89641881539
89641888924
89641895333
89641905220
89641910408
89641916695
89641925911
89641932686
89641941475
89641949287
89641958504
89641965706
89641973213
89641979988
89641989510
89641996773
89642002388
89642013191
89642018623
89642027473
89642035530
89642044563
89642051765
89642060859
89642068977
89642077400
89642084541
89642090767
89642101143
89642108711
89642115364
89642123115
89642132270
89642140693
89642146919
89642153938
89642161506
89642169929
89642176765
89642185188
89642192390
89642201362
89642210334
89642217719
89642224250
89642232917
89642241523
89642247688
89642257697
89642268012
89642277595
89642284919
89642295783
89642307197
89642315070
89642324958
89642333198
89642346503
89642355292
89642364875
89642375251
89642379645
89642394904
89642403205
89642415107
89642427192
89642437995
89642449347
89642454352
89642469367
89642477790
89642490119
89642497138
89642511542
89642518622
89642526129
89642541266
89642548224
89642564581
89642574225
89642586615
89642596503
89642605048
89642615851
89642622870
89642633368
89642646979
89642651983
89642667059
89642678656
89642688116
89642699713
89642704535
89642719427
89642727118
89642739935
89642747808
89642761785
89642771978
89642781866
89642792913
89642801214
89642813726
89642823797
89642833685
89642844061
89642852117
89642862981
89642873724
89642883062
89642892889
89642901678
89642912542
89642923528
89642932989
89642942876
89642953313
89642963140
89642971380
89642983953
89642990667
89643001836
89643012090
89643020452
89643034795
89643046941
89643056523
89643067510
89643078862
89643089482
89643097844
89643109685
89643116948
89643127263
89643141789
89643146428
89643160832
89643172368
89643184880
89643192265
89643206547
89643216496
89643226567
89643234440
89643247014
89643256047
89643266118
89643278935
89643286198
89643294865
89643307316
89643319950
89643327519
89643342717
89643352299
89643361576
89643368840
89643381718
89643393437
89643402104
89643411198
89643421391
89643431706
89643438969
89643453068
89643460209
89643475590
89643485661
89643490665
89643504215
89643514835
89643524784
89643537906
89643549198
89643559513
89643572574
89643582462
89643590091
89643600101
89643610538
89643620548
89643632145
89643642215
89643651798
89643658878
89643669681
89643679264
89643688175
89643698551
89643707523
89643717960
89643725345
89643739017
89643750430
89643760623
89643767581
89643776309
89643789432
89643800906
89643811221
89643821231
89643830569
89643839847
89643851871
89643861270
89643869510
89643881656
89643888492
89643900088
89643911013
89643925051
89643934146
89643945681
89643955447
89643964053
89643973330
89643983401
89643993350
89644003909
89644013125
89644026003
89644036807
89644046450
89644056399
89644060976
89644074709
89644083376
89644097231
89644108645
89644116274
89644126589
89644138064
89644149904
89644158144
89644168642
89644180666
89644190371
89644201723
89644214174
89644223574
89644234438
89644244448
89644253481
89644264528
89644276125
89644280947
89644296144
89644304872
89644317812
89644329164
89644338930
89644349489
89644362489
89644372255
89644380006
89644389223
89644401063
89644414430
89644424501
89644429262
89644443056
89644454957
89644464357
89644474550
89644486512
89644498353
89644506593
89644518495
89644525697
89644538209
89644549073
89644558961
89644566651
89644578614
89644587159
89644597108
89644606935
89644617799
89644625123
89644638673
89644649415
89644659303
89644669190
89644678468
89644689271
89644697022
89644708680
89644715638
89644728821
89644738831
89644747742
89644758240
89644768738
89644777649
89644787354
89644791626
89644809998
89644819580
89644828797
89644841431
89644851685
89644863098
89644873047
89644884766
89644893250
89644905823
89644913391
89644927368
89644934326
89644942444
89644956299
89644968872
89644979675
89644991577
89645001648
89645012512
89645020874
89645036438
89645044311
89645059692
89645070373
89645075073
89645090759
89645098327
89645113586
89645125732
89645134887
89645146179
89645158630
89645168884
89645177062
89645189697
89645201660
89645214172
89645224853
89645233337
89645247009
89645257995
89645263000
89645279296
89645292358
89645303344
89645315002
89645326781
89645337401
89645347899
89645359496
89645371032
89645381591
89645392333
89645401854
89645415587
89645427489
89645438170
89645448790
89645458617
89645470091
89645482054
89645491454
89645502745
89645511046
89645526244
89645539122
89645552061
89645559691
89645571715
89645582091
89645594786
89645606810
89645617796
89645628966
89645639342
89645647825
89645663389
89645675413
89645686949
89645697325
89645706175
89645718809
89645730345
89645741514
89645754270
89645762327
89645778013
89645785215
89645799803
89645810301
89645820982
89645832578
89645844297
89645854978
89645865781
89645876340
89645889646
89645897214
89645908079
89645917783
89645932432
89645942441
89645954404
89645964353
89645975461
89645984922
89645994992
89646006833
89646016599
89646027341
89646039914
89646046506
89646059934
89646073422
89646077817
89646094235
89646102292
89646113278
89646124143
89646135617
89646146237
89646158444
89646169186
89646179196
89646190610
89646200436
89646213498
89646223202
89646234921
89646243954
89646254635
89646262448
89646279538
89646287350
89646297787
89646307736
89646319699
89646329769
89646337399
89646350277
89646360287
89646373593
89646384152
89646395687
89646405514
89646416500
89646426205
89646436031
89646448055
89646458309
89646466000
89646480038
89646490963
89646500667
89646513607
89646517940
89646534969
89646542721
89646555843
89646565548
89646575802
89646589229
89646600032
89646610530
89646621212
89646631588
89646642208
89646653255
89646664058
89646671871
89646685665
89646697322
89646708736
89646718746
89646728145
89646738338
89646749080
89646761348
89646771175
89646784480
89646794673
89646802608
89646815486
89646826655
89646835872
89646849116
89646858272
89646868037
89646879207
89646891780
89646901789
89646911067
89646920832
89646933955
89646943965
89646955928
89646967402
89646977961
89646982356
89647000178
89647007685
89647020869
89647031184
89647040583
89647052912
89647056940
89647071223
89647083002
89647094233
89647105829
89647115595
89647125483
89647135431
89647145380
89647155390
89647167963
89647178949
89647189569
89647199518
89647207026
89647220209
89647231317
89647240656
89647253717
89647258112
89647275629
89647283258
89647295221
89647305109
89647317377
89647327142
89647334955
89647350580
89647362543
89647371454
89647384576
89647388971
89647405633
89647413324
89647423822
89647433160
89647443475
89647452874
89647464715
89647473748
89647484674
89647494806
89647504876
89647516473
89647526727
89647534295
89647547357
89647557427
89647568902
89647582269
89647593011
89647603509
89647614678
89647623406
89647633050
89647644830
89647654717
89647666436
89647679131
89647690789
89647698846
89647711846
89647722039
89647731988
89647743584
89647755120
89647765069
89647775750
89647785515
89647798699
89647806267
89647817009
89647829460
89647842034
89647846184
89647859673
89647869682
89647880547
89647890251
89647903679
89647913567
89647921257
89647934258
89647945061
89647957939
89647967888
89647972160
89647986992
89647997795
89648011162
89648022331
89648032402
89648041313
89648054191
89648064933
89648072746
89648084587
89648093986
89648104423
89648116874
89648125602
89648135734
89648145927
89648156181
89648165336
89648176750
89648188835
89648196769
89648208488
89648220634
89648230094
89648240165
89648247672
89648261771
89648273429
89648283988
89648294120
89648301993
89648314445
89648325126
89648334342
89648344596
89648353995
89648363150
89648376883
89648386039
89648393729
89648408194
89648415396
89648428580
89648438651
89648448722
89648458792
89648466605
89648479483
89648490408
89648502738
89648512686
89648522391
89648531424
89648543204
89648552481
89648563162
89648573721
89648583365
89648593680
89648603445
89648614615
89648624563
89648634695
89648645010
89648654165
89648661184
89648675711
89648687490
89648698355
89648708731
89648719656
89648729299
89648736379
89648748831
89648759329
89648769155
89648779409
89648791494
89648805471
89648816824
89648825491
89648833120
89648847219
89648853933
89648866567
89648876455
89648883901
89648897512
89648908010
89648917714
89648926992
89648940420
89648950124
89648957876
89648971730
89648982595
89648993215
89649004323
89649018056
89649027333
89649035146
89649047841
89649058766
89649070302
89649080800
89649088674
89649103627
89649110707
89649123402
89649132314
89649143239
89649152211
89649159169
89649171742
89649181691
89649193959
89649203297
89649213246
89649222401
89649234059
89649243458
89649253529
89649262745
89649271717
89649281849
89649294117
89649301380
89649313526
89649324208
89649334522
89649344410
89649353321
89649366993
89649375904
89649388844
89649400013
89649408131
89649421742
89649426075
89649443470
89649451466
89649464710
89649474598
89649484852
89649496998
89649506519
89649516285
89649527271
89649539051
89649549732
89649559070
89649569629
89649577747
89649594226
89649605213
89649615772
89649626270
89649635486
89649645069
89649654956
89649665943
89649675891
89649687000
89649696033
89649708179
89649717395
89649724658
89649735706
89649745166
89649755786
89649768176
89649777392
89649786609
89649796496
89649807727
89649817737
89649829577
89649838672
89649849414
89649858447
89649869250
89649877978
89649887561
89649898608
89649908557
89649916003
89649929919
89649940661
89649952807
89649962695
89649974230
89649983996
89649991198
89650007922
89650014636
89650028002
89650036913
89650049425
89650058581
89650071154
89650082140
89650088488
89650101793
89650110949
89650120348
89650131212
89650136644
89650145495
89650153185
89650158983
89650168932
89650171862
89650183641
89650188585
89650197557
89650204271
89650212206
89650222338
89650230333
89650239122
89650243822
89650253954
89650259142
89650268053
89650274645
89650277574
89650288439
89650295091
89650304308
89650313646
89650319444
89650327440
89650334581
89650346117
89650352037
89650361681
89650369127
89650372545
89650384630
89650391405
89650401353
89650408922
89650417100
89650424302
89650429979
89650438768
89650446031
89650449022
89650461045
89650466050
89650476365
89650484666
89650491502
89650499253
89650506394
89650514451
89650522019
89650530442
89650535569
89650543382
89650550828
89650556077
89650566697
89650574571
89650580430
89650587632
89650592820
89650602952
89650611375
89650617722
89650624619
89650634324
89650642075
89650647691
89650656907
89650663865
89650671067
89650678818
89650684250
89650692795
89650699753
89650707627
89650714829
89650720078
89650730576
89650737961
89650746140
89650754990
89650762375
89650769333
89650774948
89650782395
89650789597
89650797898
89650805222
89650813645
89650821091
89650827011
89650837204
89650844650
89650852036
89650858627
89650867905
89650874924
89650880844
89650892136
89650901413
89650908310
89650916611
89650922958
89650934128
89650939926
89650951706
89650958969
89650965134
89650976913
89650985641
89650993393
89651001144
89651008529
89651018722
89651027023
89651036300
89651044113
89651047348
89651060287
89651067550
89651079086
89651086776
89651090133
89651101913
89651110763
89651119186
89651127181
89651130844
89651143295
89651152999
89651162521
89651167587
89651179122
89651186935
89651193343
89651201827
89651209457
89651220443
89651228316
89651234298
89651244430
89651252181
89651255538
89651269637
89651275497
89651285140
89651293197
89651301375
89651309249
89651316329
89651330001
89651339461
89651347884
89651357528
89651367171
89651375777
89651382125
89651391768
89651400862
89651408492
89651417037
89651423262
89651434676
89651440474
89651449812
89651457625
89651466841
89651475020
89651484053
89651493880
89651501143
89651507124
89651517683
89651525557
89651532759
89651540327
89651546919
89651558272
89651567061
89651574080
89651581160
89651589888
89651596907
89651603071
89651612898
89651621260
89651631453
89651639753
89651646223
89651655012
89651662825
89651671003
89651678328
89651684065
89651694990
89651703779
89651711470
89651720137
89651730757
89651738630
89651744367
89651753462
89651760847
89651769880
89651778486
89651786298
89651794233
89651803022
89651811018
89651818647
89651827253
89651834821
89651840559
89651851240
89651859907
89651866621
89651875410
89651881025
89651893476
89651899335
89651907575
89651915082
89651920392
89651931318
89651939985
89651949872
89651958783
89651965558
89651973127
89651979169
89651988507
89651996320
89652004377
89652011823
89652019879
89652030988
89652036908
89652046552
89652051129
89652060162
89652067426
89652072919
89652085004
89652089642
89652099530
89652106610
89652112469
89652122113
89652131024
89652138654
89652145856
89652154156
89652161420
89652169171
89652177167
89652185162
89652195599
89652202984
89652208844
89652217389
89652224957
89652236126
89652243329
89652250775
89652258160
89652266644
89652275250
89652283062
89652291851
89652299542
89652309124
89652316876
89652324749
89652332257
89652340862
89652349590
89652357525
89652366314
89652374371
89652382366
89652391094
89652398968
89652407513
89652416485
89652424175
89652434002
89652441143
89652449932
89652453411
89652465191
89652471477
89652481975
89652490154
89652499187
89652507488
89652513530
89652523052
89652531109
89652540142
89652548931
89652555156
89652566692
89652572124
89652582622
89652592144
89652598369
89652605876
89652614238
89652623210
89652630718
89652641704
89652649577
89652654643
89652664897
89652676006
89652701762
89652710979
89652718608
89652721904
89652737407
89652750102
89652761516
89652772624
89652785747
89652799540
89652804057
89652822978
89652830912
89652843547
89652853495
89652866435
89652879130
89652889811
89652897990
89652904704
89652918681
89652925028
89652936198
89652942240
89652948588
89652954020
89652962382
89652965922
89652972758
89652977641
89652983805
89652989237
89652995097
89652999735
89653006998
89653010661
89653018839
89653022562
89653029765
89653033060
89653041239
89653045389
89653053324
89653059489
89653064921
89653069071
89653074686
89653080668
89653090983
89653097269
89653102518
89653108133
89653113993
89653118448
89653124918
89653129435
89653135233
89653140970
89653145914
89653150492
89653155313
89653160868
89653166666
89653171305
89653177347
89653182230
89653186685
89653191812
89653198892
89653204935
89653210733
89653218302
89653224832
89653230020
89653240701
89653251566
89653255899
89653264749
89653270120
89653275125
89653280191
89653285257
89653291361
89653296793
89653301126
89653306131
89653311624
89653317545
89653322671
89653328592
89653333902
89653340616
89653343668
89653352029
89653355508
89653362588
89653368814
89653374917
89653378274
89653384866
89653389810
89653395975
89653402810
89653408182
89653412698
89653418252
89653423135
89653428628
89653433572
89653439798
89653444009
89653449990
89653455178
89653460733
89653466287
89653469827
89653475686
89653484353
89653489236
89653493692
89653498880
89653504800
89653510476
89653514871
89653519326
89653526528
89653532022
89653535562
89653542947
89653548196
89653552224
89653558022
89653564980
89653570535
89653576211
89653582009
89653588540
89653593118
89653598794
89653604958
89653609902
89653617104
89653622597
89653629555
89653633157
89653640298
89653646096
89653653847
89653659402
89653667092
89653671364
89653681130
89653687539
89653692971
89653700417
89653707985
89653714516
89653723488
89653730629
89653737099
89653744362
89653752236
89653758889
89653766579
89653775246
89653781655
89653792458
89653801613
89653808998
89653816200
89653819191
89653831520
89653834755
89653845436
89653853310
89653861855
89653869179
89653877297
89653881874
89653892128
89653899025
89653901833
89653914772
89653917824
89653931557
89653938148
89653946083
89653953224
89653959877
89653967323
89653971901
89653984474
89653990455
89654001320
89654007545
89654015114
89654021705
89654030800
89654037330
89654042701
89654052528
89654058326
89654069496
89654074623
89654084510
89654091163
89654099403
89654105934
89654111854
89654120216
89654131080
89654138954
89654147010
89654156471
89654162940
89654170142
89654177650
89654182533
89654191444
89654200294
89654208961
89654216773
89654219703
89654232581
89654238929
89654246497
89654253638
89654259803
89654267249
89654277137
89654284095
89654293555
89654299903
89654309180
89654315284
89654320655
89654327430
89654338233
89654346106
89654354041
89654357154
89654369971
89654372779
89654383582
89654388648
89654398963
89654405860
89654414099
89654421118
89654429053
89654436011
89654443701
89654450049
89654455237
89654466223
89654474707
89654482092
89654489661
89654492957
89654507849
89654512854
89654524939
89654529455
89654538611
89654547217
89654554602
89654563208
89654571692
89654579321
89654587561
89654595068
89654600256
89654607885
89654616552
89654626562
89654631811
89654639929
89654647131
89654652014
89654662634
89654667639
89654678015
89654682897
89654693884
89654699438
89654708471
89654716223
89654721227
89654731603
89654739538
89654747106
89654758825
89654767858
89654772802
89654783300
89654789953
89654796239
89654803808
89654811315
89654819006
89654828161
89654836462
89654845739
89654849340
89654861791
89654865087
89654877050
89654881750
89654889684
89654899083
89654908056
89654914769
89654922399
89654930944
89654933934
89654944127
89654951451
89654959630
89654967015
89654975499
89654984288
89654991002
89654997716
89655004796
89655011388
89655016759
89655027928
89655034276
89655045934
89655051915
89655062718
89655069493
89655076634
89655083043
89655086095
89655096532
89655106786
89655113805
89655122166
89655129307
89655136449
89655139195
89655151768
89655154698
89655167027
89655172764
89655183995
89655190404
89655198826
89655206822
89655215367
89655223057
89655228123
89655239354
89655244175
89655253880
89655261753
89655268711
89655277439
89655285069
89655291783
89655297886
89655309239
89655316990
89655324803
89655333042
89655341221
89655348911
89655354527
89655364231
89655372288
89655378819
89655387852
89655394566
89655405186
89655412815
89655418858
89655428257
89655431492
89655443027
89655449436
89655457004
89655464939
89655475193
89655482822
89655488315
89655496738
89655505527
89655512668
89655519321
89655525486
89655536106
89655542392
89655553440
89655561801
89655564914
89655575412
89655583530
89655593784
89655600864
89655603977
89655616001
89655624912
89655632907
89655639804
89655649692
89655656528
89655662753
89655670871
89655677768
89655687167
89655694797
89655700839
89655712741
89655721347
89655728549
89655736178
89655739352
89655752292
89655757724
89655766452
89655775729
89655784823
89655791598
89655797152
89655808627
89655816317
89655824191
89655831332
89655836764
89655845675
89655853915
89655862399
89655869113
89655878024
89655884127
89655892550
89655899264
89655906466
89655915560
89655923434
89655929110
89655937411
89655944003
89655953463
89655960726
89655966525
89655976412
89655984103
89655992342
89656000826
89656010043
89656017062
89656024813
89656032809
89656039950
89656047762
89656055147
89656062899
89656069063
89656077669
89656085848
89656093660
89656101595
89656110567
89656115572
89656125093
89656133211
89656138887
89656150179
89656159090
89656166719
89656173860
89656179171
89656190706
89656195650
89656205293
89656212557
89656215730
89656227449
89656236543
89656245638
89656250276
89656257845
89656266939
89656273592
89656281648
89656289705
89656295442
89656306856
89656317171
89656324556
89656330781
89656339448
89656348176
89656355745
89656362520
89656368501
89656379182
89656384614
89656396089
89656403657
89656406770
89656416291
89656423799
89656432466
89656439302
89656448091
89656456758
89656462617
89656473298
89656482392
89656488252
89656497712
89656500642
89656511140
89656519441
89656526765
89656534577
89656543610
89656551423
89656556977
89656565339
89656573457
89656582856
89656590974
89656598237
89656608308
89656616852
89656625703
89656630646
89656640412
89656647736
89656653229
89656662263
89656669648
89656678620
89656686432
89656691987
89656701508
89656709443
89656718171
89656722809
89656729157
89656739533
89656748322
89656756256
89656764374
89656771759
89656778473
89656784394
89656795136
89656803436
89656808808
89656818024
89656821137
89656833893
89656839508
89656848236
89656855133
89656864105
89656870758
89656876312
89656886383
89656894440
89656902191
89656910431
89656919342
89656927582
89656933136
89656941009
89656949127
89656957855
89656964996
89656970672
89656979339
89656988800
89656998382
89657006500
89657012115
89657021331
89657029571
89657036529
89657043731
89657048980
89657059478
89657067108
89657076568
89657081756
89657089874
89657096466
89657105194
89657111419
89657119354
89657127838
89657136688
89657142547
89657153533
89657161163
89657170928
89657178069
89657181121
89657191802
89657199920
89657207610
89657216949
89657226043
89657232268
89657240935
89657247344
89657253081
89657262542
89657267486
89657278106
89657286956
89657290374
89657301482
89657306731
89657317962
89657323211
89657330291
89657341765
89657346465
89657356108
89657362639
89657367644
89657377471
89657385161
89657393767
89657400542
89657403533
89657414702
89657420012
89657428801
89657436247
89657445036
89657451994
89657457793
89657466765
89657475554
89657481902
89657488982
89657492522
89657505095
89657514250
89657522124
89657529143
89657537260
89657544035
89657549833
89657558989
89657565825
89657573942
89657581022
89657586577
89657597380
89657602140
89657612700
89657619658
89657622892
89657633451
89657641996
89657648161
89657656645
89657664518
89657672270
89657678251
89657686552
89657693266
89657701689
89657708647
89657714384
89657725614
89657733976
89657740751
89657747831
89657756315
89657763212
89657769254
89657778898
89657783781
89657793973
89657802274
89657808683
89657817594
89657822599
89657831937
89657838773
89657844388
89657854947
89657859769
89657871000
89657880033
89657883329
89657895719
89657901578
89657911710
89657916593
89657925687
89657933194
89657938504
89657949674
89657956266
89657965970
89657974271
89657983609
89657991300
89657997281
89658008023
89658013638
89658023770
89658031644
89658038419
89658050198
89658055936
89658060147
89658075345
89658078763
89658089505
89658098843
89658107510
89658115262
89658118558
89658129849
89658137356
89658146512
89658154446
89658160122
89658168667
89658175992
89658184720
89658194119
89658197415
89658208767
89658216702
89658224453
89658232083
89658235257
89658245632
89658253811
89658260342
89658268643
89658278836
89658286770
89658292324
89658300137
89658306912
89658315945
89658322964
89658328274
89658338162
89658347683
89658355862
89658362759
89658368496
89658377895
89658384609
89658392605
89658402126
89658405178
89658415981
89658424221
89658433071
89658439846
89658442959
89658454799
89658462429
89658470180
89658478237
89658485622
89658493313
89658501491
89658510830
89658515712
89658525600
89658533535
89658539272
89658548183
89658553005
89658562953
89658571132
89658576808
89658586635
89658594570
89658602748
89658610011
89658617519
89658625453
89658630214
89658639735
89658647548
89658656032
89658662746
89658671291
89658679042
89658686488
89658694423
89658701259
89658707118
89658717006
89658725856
89658733424
89658740199
89658746303
89658755702
89658760402
89658770900
89658777614
89658783595
89658792506
89658801112
89658810817
89658817775
89658820765
89658831874
89658839564
89658847682
89658854701
89658857753
89658868739
89658878382
89658888148
89658895350
89658902857
89658909876
89658915309
89658922755
89658932581
89658935694
89658947169
89658957117
89658962061
89658969752
89658978297
89658985133
89658991053
89659000086
89659007105
89659016932
89659026148
89659036890
89659043848
89659049280
89659058130
89659065210
89659073328
89659080652
89659086023
89659097254
89659105555
89659111536
89659119471
89659125025
89659135279
89659141199
89659151758
89659161890
89659168665
89659176966
89659185205
89659196619
89659201990
89659211572
89659221094
89659228113
89659236353
89659241357
89659250085
89659260645
89659264185
89659277307
89659282678
89659291467
89659298242
89659305505
89659312646
89659320215
89659329126
89659337610
89659345971
89659352746
89659360193
89659368554
89659376062
89659384118
89659391259
89659399255
89659407251
89659413171
89659423242
89659429956
89659433068
89659444116
89659449609
89659459252
89659467065
89659470361
89659481042
89659490502
89659497827
89659504724
89659511743
89659519433
89659524987
89659534142
89659542870
89659550500
89659556115
89659566735
89659574364
89659582238
89659589684
89659596398
89659604088
89659611169
89659615807
89659626183
89659634301
89659644555
89659652001
89659657616
89659665551
89659676110
89659683800
89659692101
89659697777
89659707116
89659717614
89659726158
89659733178
89659736412
89659746239
89659754540
89659763085
89659770287
89659778099
89659786339
89659792137
89659803246
89659808190
89659818932
89659829002
89659838829
89659844200
89659853661
89659860619
89659868126
89659878441
89659885521
89659890648
89659900169
89659907555
89659919090
89659926475
89659932213
89659939903
89659952965
89659960472
89659968284
89659976524
89659984947
89659996544
89660009300
89660022422
89660036338
89660048606
89660059043
89660068443
89660075157
89660082786
89660089683
89660095847
89660103660
89660109825
89660118553
89660125510
89660131736
89660138877
89660145774
89660150962
89660160423
89660165183
89660173057
89660182212
89660185447
89660196067
89660201438
89660208884
89660215964
89660225303
89660232200
89660237327
89660245688
89660252830
89660259421
89660266013
89660271384
89660280539
89660288108
89660293906
89660303122
89660310935
89660318564
89660324485
89660334800
89660339133
89660348777
89660356101
89660359336
89660369650
89660377158
89660385275
89660395102
89660402731
89660410483
89660418112
89660425620
89660432700
89660437949
89660448630
89660456564
89660463950
89660472556
89660482443
89660489523
89660494833
89660504660
89660511923
89660519980
89660527304
89660533041
89660540060
89660548422
89660554831
89660563986
89660572531
89660579062
89660585836
89660594503
89660601767
89660609823
89660617575
89660628439
89660638693
89660645956
89660649313
89660659445
89660667562
89660675558
89660683554
89660690450
89660697775
89660706991
89660714681
89660722250
89660730673
89660737936
89660746236
89660753255
89660760274
89660768392
89660779012
89660788045
89660795492
89660804342
89660810018
89660819417
89660822530
89660832357
89660840536
89660848836
89660856466
89660860006
89660872884
89660878927
89660888814
89660895894
89660898885
89660910543
89660918355
89660925740
89660934346
89660944051
89660951009
89660956502
89660966451
89660971272
89660981587
89660988729
89660994039
89661004476
89661012837
89661021626
89661028706
89661036641
89661043599
89661051717
89661058247
89661065755
89661074239
89661081441
89661087483
89661097798
89661104939
89661113606
89661120869
89661126729
89661136738
89661141377
89661149495
89661158284
89661164265
89661174153
89661182454
89661189106
89661196675
89661202290
89661212727
89661220662
89661228047
89661235737
89661244221
89661251057
89661257344
89661265705
89661272419
89661280476
89661289875
89661295674
89661304096
89661313801
89661322895
89661329792
89661336140
89661343708
89661350422
89661358662
89661365986
89661374958
89661382587
89661388081
89661397236
89661404987
89661410480
89661418903
89661426838
89661433674
89661442890
89661449482
89661458637
89661464496
89661474628
89661481769
89661487384
89661496540
89661503376
89661510639
89661518268
89661526874
89661536090
89661545368
89661553485
89661560687
89661567523
89661575031
89661583026
89661591388
89661598590
89661605182
89661613544
89661621784
89661628131
89661636493
89661643268
89661650226
89661658710
89661667499
89661675250
89661682025
89661689471
89661695575
89661709186
89661722369
89661735553
89661747088
89661760089
89661771258
89661780169
89661796161
89661804095
89661814349
89661834552
89661848162
89661858904
89661869891
89661882464
89661891985
89661902239
89661911822
89661920672
89661931109
89661939776
89661950030
89661963457
89661973284
89661982622
89661990374
89662000933
89662010943
89662019304
89662027910
89662038958
89662050676
89662069658
89662090166
89662110552
89662126543
89662147844
89662166460
89662184709
89662201921
89662216875
89662224077
89662232195
89662242693
89662256853
89662272050
89662288530
89662299150
89662309343
89662318193
89662329484
89662338029
89662346147
89662355058
89662363420
89662371537
89662378923
89662386918
89662394487
89662402421
89662410051
89662418290
89662425676
89662433610
89662442094
89662451188
89662458695
89662467240
89662474381
89662483109
89662492021
89662500565
89662509232
89662515763
89662524796
89662533463
89662542313
89662549027
89662559342
89662565995
89662574296
89662583756
89662591324
89662600785
89662608170
89662614091
89662622391
89662630570
89662638199
89662645463
89662654068
89662661576
89662672318
89662679459
89662686539
89662694535
89662703812
89662712723
89662720780
89662727982
89662736771
89662744339
89662750809
89662758194
89662765824
89662772659
89662779556
89662787186
89662794754
89662803665
89662813248
89662819656
89662824234
89662828751
89662832962
89662838699
89662843338
89662849136
89662853653
89662859024
89662863724
89662868057
89662873856
89662877884
89662882339
89662886673
89662892471
89662896927
89662902054
89662906082
89662912735
89662918899
89662924331
89662929214
89662935867
89662940933
89662945755
89662950760
89662956436
89662961929
89662967361
89662972549
89662978653
89662983596
89662989273
89662993484
89662999221
89663004898
89663009536
89663015579
89663021011
89663026748
89663032119
89663036270
89663039688
89663046951
89663049941
89663057144
89663062759
89663069351
89663074478
89663079299
89663084243
89663090774
89663098647
89663103408
89663108169
89663115127
89663120132
89663125259
89663131606
89663133682
89663143142
89663146743
89663153579
89663157485
89663163955
89663169570
89663175979
89663180556
89663186111
89663192763
89663197158
89663201674
89663208938
89663214187
89663220717
89663225295
89663230300
89663235610
89663242873
89663247573
89663254592
89663259780
89663265151
89663271438
89663276015
89663282363
89663288283
89663293227
89663296767
89663304213
89663307875
89663316054
89663319899
89663326064
89663332473
89663339858
89663344130
89663351760
89663357924
89663364211
89663370314
89663378432
89663385573
89663392592
89663400160
89663405592
89663415053
89663422926
89663428847
89663437819
89663443678
89663453505
89663463332
89663469435
89663478163
89663484511
89663495802
89663501295
89663511305
89663518507
89663524244
89663536879
89663546522
89663554762
89663562758
89663566176
89663580641
89663586927
89663594557
89663603224
89663609510
89663620008
89663629408
89663638258
89663646986
89663650343
89663661390
89663669935
89663677015
89663685438
89663693983
89663704359
89663714491
89663721998
89663729505
89663740614
89663748426
89663754407
89663763319
89663770826
89663781995
89663789930
89663795789
89663806348
89663814710
89663821790
89663829175
89663834607
89663845777
89663854261
89663863111
89663872388
89663875867
89663890271
89663896070
89663906263
89663914075
89663917615
89663930066
89663938794
89663947766
89663955823
89663962232
89663969556
89663974927
89663987012
89663991651
89664001233
89664009351
89664015210
89664028210
89664034497
89664043225
89664052014
89664061291
89664069226
89664075268
89664083874
89664092480
89664101941
89664109692
89664115735
89664126233
89664131848
89664142224
89664149853
89664156018
89664167065
89664176648
89664183056
89664193737
89664197033
89664207959
89664216442
89664220105
89664234509
89664237927
89664249157
89664257885
89664266735
89664275036
89664280834
89664291027
89664299755
89664309765
89664317516
89664324596
89664333385
89664342052
89664350536
89664358532
89664366589
89664375439
89664381786
89664390819
89664398388
89664408092
89664416027
89664424938
89664432140
89664441478
89664452892
89664460766
89664467357
89664477855
89664482982
89664493175
89664501171
89664507030
89664517711
89664525524
89664535778
89664543529
89664549449
89664560863
89664571239
89664578929
89664587413
89664593639
89664604076
89664615184
89664622264
89664632762
89664636302
89664646983
89664656078
89664664867
89664673472
89664681956
89664690379
89664696605
89664706859
89664715220
89664723277
89664731761
89664738048
89664748912
89664756785
89664767283
89664775401
89664781504
89664790721
89664798350
89664808909
89664816783
89664822825
89664831797
89664839732
89664850962
89664858836
89664867442
89664875742
89664881114
89664892832
89664900095
89664907298
89664914988
89664923045
89664932261
89664940134
89664949412
89664956492
89664965159
89664972666
89664981577
89664989268
89664997019
89665006479
89665014475
89665020212
89665029917
89665038279
89665044809
89665053476
89665059885
89665069284
89665077463
89665088510
89665096811
89665105051
89665112741
89665122568
89665130319
89665137949
89665148203
89665156198
89665165109
89665172373
89665180002
89665188974
89665196115
89665202341
89665212106
89665219736
89665229379
89665237375
89665245676
89665255807
89665263132
89665271188
89665279367
89665288461
89665297311
89665303537
89665311593
89665320016
89665328866
89665337594
89665345651
89665354318
89665363168
89665370248
89665378976
89665386727
89665395394
89665404672
89665414865
89665420358
89665430795
89665438241
89665444039
89665453500
89665462289
89665469857
89665478829
89665485055
89665497079
89665502999
89665512093
89665519418
89665527962
89665535531
89665545663
89665553658
89665558724
89665568978
89665577218
89665589059
89665596322
89665604561
89665611947
89665619332
89665625985
89665636422
89665642098
89665652718
89665660897
89665668282
89665675728
89665681466
89665692025
89665700203
89665706917
89665716439
89665724068
89665731270
89665736946
89665748543
89665753365
89665762764
89665770149
89665776131
89665788521
89665795540
89665803902
89665815254
89665818733
89665829475
89665839424
89665848274
89665857185
89665865303
89665873115
89665879402
89665890388
89665900581
89665907661
89665915413
89665921394
89665930793
89665939094
89665946479
89665954292
89665965034
89665972297
89665981575
89665989265
89665997444
89666005012
89666012641
89666019355
89666028755
89666037300
89666046638
89666055854
89666062934
89666072822
89666078498
89666087531
89666094672
89666101936
89666112128
89666118049
89666127143
89666135993
89666144538
89666151862
89666155097
89666167975
89666173530
89666182624
89666190681
89666200934
89666208442
89666214301
89666224067
89666231208
89666240790
89666247931
89666255256
89666263678
89666271979
89666279853
89666288275
89666298346
89666305793
89666312018
89666322760
89666327521
89666338324
89666346137
89666352789
89666364264
89666372870
89666382330
89666387457
89666396796
89666404364
89666410284
89666419867
89666427069
89666436957
89666445502
89666453070
89666461188
89666469183
89666478400
89666483465
89666492621
89666500128
89666505804
89666516424
89666523626
89666533758
89666541205
89666546942
89666557318
89666565557
89666573004
89666580023
89666588446
89666599432
89666607244
89666615667
89666624578
89666631292
89666638861
89666644659
89666654363
89666662969
89666671819
89666677191
89666687017
89666695379
89666701299
89666711614
89666720159
89666726751
89666736639
89666739873
89666750310
89666759161
89666767217
89666774663
89666782781
89666791631
89666801580
89666809331
89666814458
89666824529
89666834356
89666842290
89666849797
89666855596
89666867253
89666871953
89666882268
89666889348
89666895391
89666906743
89666912358
89666922429
89666929875
89666935796
89666947576
89666953435
89666962773
89666969853
89666978337
89666989629
89666992986
89667002934
89667010564
89667019048
89667027715
89667033940
89667043217
89667051884
89667059086
89667067021
89667077702
89667085515
89667091801
89667099675
89667107609
89667116765
89667124943
89667131962
89667141606
89667150395
89667160588
89667166203
89667175602
89667185734
89667194096
89667201298
89667210697
89667218083
89667225895
89667234379
89667242069
89667251347
89667259159
89667266605
89667274540
89667284733
89667293156
89667301090
89667310795
89667317387
89667325016
89667331547
89667344120
89667349247
89667361210
89667368351
89667376774
89667384281
89667394108
89667401371
89667409305
89667418644
89667426334
89667435184
89667443424
89667450809
89667458744
89667469181
89667477603
89667486148
89667494876
89667503482
89667511356
89667520938
89667528812
89667537540
89667545535
89667553348
89667561221
89667572025
89667578067
89667586185
89667596561
89667600101
89667611148
89667619266
89667628421
89667636478
89667645267
89667652652
89667662662
89667670413
89667675418
89667687686
89667695559
89667698916
89667713809
89667720096
89667728885
89667736026
89667745486
89667752566
89667758731
89667769351
89667777346
89667786257
89667794314
89667800112
89667811770
89667820437
89667829348
89667837283
89667843264
89667854312
89667863162
89667872134
89667880740
89667890810
89667898013
89667903872
89667914858
89667924746
89667933047
89667941164
89667944765
89667960696
89667967654
89667977785
89667986025
89667994753
89668002443
89668008303
89668019716
89668025698
89668036013
89668044924
89668052248
89668060488
89668068727
89668077150
89668085085
89668092470
89668100771
89668110048
89668119020
89668127992
89668136110
89668143678
89668149294
89668159853
89668168153
89668174806
89668183962
89668191469
89668201662
89668208009
89668218141
89668225648
89668234071
89668242616
89668248903
89668259157
89668264467
89668274354
89668283204
89668289613
89668299623
89668307435
89668316957
89668324342
89668332826
89668340638
89668350648
89668357301
89668368653
89668376527
89668384706
89668390931
89668400392
89668408937
89668417909
89668425477
89668432069
89668441773
89668450379
89668461427
89668468202
89668473939
89668483155
89668490784
89668502930
89668513184
89668521912
89668529908
89668537904
89668547791
89668555787
89668563782
89668571046
89668576661
89668588807
89668594483
89668606202
89668611695
89668622376
89668629578
89668635560
89668645142
89668653138
89668661621
89668669129
89668674927
89668688904
89668694947
89668703858
89668712708
89668721863
89668730286
89668736450
89668744629
89668753113
89668762879
89668771362
89668779297
89668787537
89668796082
89668805237
89668814209
89668821594
89668832458
89668839477
89668849060
89668859070
89668867615
89668876526
89668880066
89668890808
89668899353
89668908874
89668917541
89668921142
89668932922
89668942260
89668951599
89668959045
89668966980
89668975158
89668982116
89668990661
89668999145
89669002746
89669018676
89669026855
89669034850
89669043273
89669050842
89669059326
89669062621
89669076598
89669082580
89669092529
89669100463
89669108154
89669117248
89669123473
89669133910
89669141906
89669145507
89669157165
89669167296
89669174926
89669183227
89669190734
89669197814
89669204406
89669214293
89669223998
89669231261
89669239379
89669245787
89669258422
89669265258
89669274596
89669282653
89669291869
89669299376
89669305419
89669316832
89669325377
89669335204
89669343321
89669350035
89669360045
89669368773
89669377623
89669385069
89669392149
89669399229
89669408385
89669417418
89669425658
89669428770
89669440062
89669446043
89669456053
89669464537
89669474547
89669482786
89669489134
89669498778
89669506773
89669513731
89669523130
89669526793
89669539610
89669545774
89669555784
89669563230
89669572264
89669580015
89669585813
89669598631
89669604368
89669615110
89669622556
89669625730
89669639585
89669645200
89669654783
89669662473
89669672056
89669680784
89669688108
89669697752
89669703123
89669711912
89669720640
89669726926
89669737485
89669747861
89669758420
89669770627
89669777830
89669788511
89669798276
89669807432
89669815183
89669824826
89669833249
89669838865
89669851011
89669859739
89669867978
89669876706
89669882993
89669893552
89669899655
89669910337
89669917966
89669924619
89669934995
89669940549
89669950009
89669957211
89669964963
89669972592
89669978207
89669991147
89670000424
89670007809
89670014767
89670022946
89670030453
89670038693
89670047177
89670055295
89670063412
89670071042
89670077023
89670087094
89670095822
89670102597
89670112484
89670115780
89670127743
89670134030
89670143307
89670151669
89670154904
89670170101
89670176510
89670185116
89670193417
89670200680
89670208309
89670214840
89670226132
89670235348
89670244930
89670252682
89670262142
89670270077
89670276180
89670286739
89670294613
89670303341
89670311398
89670320064
89670326717
89670337887
89670346432
89670353145
89670359066
89670367977
89670376339
89670383663
89670391903
89670401119
89670409054
89670417171
89670423580
89670431575
89670437679
89670450069
89670459041
89670466365
89670474178
89670482723
89670490108
89670498043
89670505123
89670513179
89670522151
89670530330
89670536556
89670548396
89670556514
89670564876
89670572200
89670581294
89670588741
89670594356
89670605830
89670613582
89670622371
89670629268
89670635493
89670647395
89670653010
89670661983
89670672420
89670680049
89670688106
89670694453
89670703975
89670715083
89670718684
89670730952
89670737239
89670747065
89670755793
89670762263
89670772883
89670780635
89670790705
89670797358
89670804438
89670814387
89670817683
89670828486
89670837214
89670845637
89670854182
89670862177
89670871943
89670875361
89670885493
89670893793
89670903864
89670912775
89670916315
89670927790
89670937617
89670945124
89670955683
89670958979
89670971796
89670977717
89670987482
89670992487
89671000788
89671011957
89671019587
89671030451
89671036371
89671045465
89671053644
89671056940
89671068964
89671077082
89671086908
89671092401
89671103021
89671110590
89671116327
89671127191
89671135065
89671141962
89671152033
89671155206
89671167963
89671174066
89671185114
89671193475
89671201105
89671208978
89671215021
89671225763
89671233697
89671241693
89671250299
89671256586
89671270135
89671275323
89671287164
89671294427
89671297662
89671309503
89671317559
89671327020
89671334832
89671343927
89671350701
89671356561
89671368157
89671373223
89671384027
89671391412
89671399529
89671407464
89671412774
89671424249
89671433160
89671442193
89671452142
89671459527
89671466790
89671475213
89671482110
89671490289
89671497308
89671505181
89671514092
89671523247
89671530755
89671534173
89671544671
89671553765
89671560967
89671569024
89671578057
89671586113
89671592705
89671603386
89671610894
89671619866
89671627312
89671633294
89671643364
89671653435
89671661858
89671670464
89671679680
89671687065
89671692864
89671701714
89671709404
89671718376
89671726372
89671735039
89671746269
89671751762
89671762566
89671770012
89671775932
89671785576
89671794853
89671802727
89671811699
89671819694
89671826530
89671835014
89671843559
89671851127
89671854484
89671868156
89671874870
89671884330
89671893058
89671899711
89671907036
89671912834
89671922416
89671931266
89671940910
89671949821
89671953361
89671964469
89671973991
89671981925
89671990104
89671998527
89672009208
89672015067
89672023551
89672032035
89672040153
89672047233
89672054496
89672062125
89672071891
89672081168
89672089591
89672092948
89672106498
89672112540
89672122428
89672127677
89672136771
89672148978
89672156363
89672164237
89672172599
89672180228
89672187674
89672194327
89672203666
89672213614
89672222037
89672231803
89672240531
89672248954
89672254752
89672265616
89672270499
89672278800
89672289054
89672292349
89672304495
89672314749
89672324454
89672332388
89672335806
89672347525
89672356619
89672366019
89672373831
89672377432
89672388724
89672398001
89672405203
89672415396
89672419302
89672431753
89672437735
89672448660
89672456595
89672465140
89672473745
89672482290
89672491385
89672499380
89672508413
89672516470
89672522451
89672534475
89672539846
89672551016
89672558462
89672564321
89672573782
89672583242
89672591482
89672600393
89672603933
89672615164
89672623586
89672630972
89672642324
89672650259
89672658193
89672664053
89672676138
89672684988
89672691824
89672699270
89672704641
89672715871
89672723928
89672730276
89672738576
89672744070
89672756948
89672762929
89672771718
89672779043
89672785878
89672797597
89672803212
89672812856
89672821157
89672829335
89672836599
89672842031
89672851308
89672859304
89672867177
89672877248
89672880422
89672892201
89672900502
89672910451
89672918385
89672926015
89672933949
89672939870
89672950856
89672959035
89672968678
89672976613
89672982716
89672992482
89673000600
89673008412
89673018483
89673021596
89673032948
89673041920
89673050404
89673057606
89673067311
89673075001
89673080616
89673090748
89673099110
89673105885
89673116261
89673123829
89673133351
89673139393
89673146778
89673154713
89673163014
89673172657
89673175953
89673185902
89673193653
89673203602
89673212086
89673215321
89673225941
89673234669
89673242603
89673250416
89673259205
89673270130
89673276173
89673285877
89673294117
89673301807
89673311695
89673319446
89673327015
89673332996
89673343006
89673351429
89673360767
89673368885
89673374927
89673384815
89673392505
89673400928
89673409046
89673414966
89673427600
89673434253
89673444446
89673451709
89673459278
89673466846
89673474903
89673482532
89673489673
89673500110
89673508228
89673514697
89673527393
89673536731
89673544910
89673553638
89673556812
89673569202
89673574939
89673585193
89673593494
89673603320
89673611255
89673616992
89673628100
89673633410
89673642627
89673650561
89673658984
89673668078
89673675769
89673684863
89673692431
89673697986
89673708911
89673714770
89673723925
89673730822
89673739001
89673748339
89673755053
89673765673
89673770373
89673780566
89673787463
89673792834
89673801928
89673808947
89673817065
89673825060
89673833849
89673841479
89673850085
89673857348
89673864184
89673871813
89673879076
89673887194
89673894823
89673903002
89673913073
89673920092
89673925341
89673936022
89673940966
89673949572
89673956835
89673962206
89673972765
89673981859
89673990709
89673997362
89674006640
89674013720
89674019030
89674027513
89674034716
89674041002
89674052050
89674059191
89674070055
89674077867
89674083544
89674093675
89674100328
89674107897
89674115709
89674121324
89674133409
89674142625
89674149706
89674155077
89674165086
89674171922
89674175035
89674188768
89674194139
89674202135
89674213975
89674220323
89674229356
89674232530
89674243883
89674251878
89674259019
89674265977
89674275560
89674284288
89674290452
89674302049
89674307359
89674317308
89674324693
89674331712
89674338548
89674347276
89674355638
89674363267
89674370652
89674378404
89674387071
89674395066
89674402024
89674410203
89674417283
89674425157
89674431748
89674439927
89674451646
89674458848
89674462022
89674472703
89674481065
89674489365
89674496140
89674503464
89674513352
89674519272
89674530320
89674535813
89674546738
89674553818
89674559250
89674569748
89674577683
89674584946
89674592698
89674598374
89674609116
89674618271
89674625473
89674632553
89674640305
89674647507
89674655991
89674664780
89674672470
89674676132
89674687058
89674692856
89674701584
89674708847
89674716538
89674726242
89674731674
89674742905
89674751022
89674757980
89674765060
89674768234
89674781601
89674787765
89674797348
89674802109
89674813705
89674824203
89674828598
89674841720
89674847152
89674857406
89674864609
89674871566
89674878524
89674887375
89674893905
89674902450
89674912033
89674920028
89674925827
89674936630
89674944503
89674951156
89674959335
89674965011
89674975814
89674985824
89674995101
89674999618
89675008224
89675018234
89675023727
89675031478
89675039535
89675046981
89675055892
89675061507
89675073470
89675079757
89675087569
89675095016
89675100814
89675110763
89675118880
89675127059
89675136031
89675139266
89675152877
89675158492
89675166854
89675173873
89675183883
89675191085
89675196944
89675205062
89675215682
89675222884
89675233565
89675236922
89675247359
89675255416
89675261702
89675272261
89675275557
89675288375
89675295088
89675304244
89675311629
89675319747
89675327864
89675333662
89675341719
89675349165
89675358015
89675366988
89675373152
89675383162
89675392256
89675399946
89675407271
89675413985
89675421309
89675430159
89675437849
89675445967
89675456038
89675464033
89675469343
89675478621
89675486006
89675495161
89675502485
89675509077
89675515303
89675524946
89675534651
89675543135
89675551435
89675558821
89675567243
89675574690
89675582624
89675590864
89675598676
89675604536
89675615400
89675620771
89675630537
89675637739
89675642988
89675654218
89675659101
89675669233
89675679121
89675688764
89675698102
89675704267
89675713117
89675720441
89675729230
89675737226
89675743696
89675753949
89675763959
89675773114
89675780927
89675789289
89675796308
89675801862
89675812177
89675819257
89675828595
89675837079
89675843488
89675854047
89675862104
89675868878
89675878156
89675885541
89675892926
89675897626
89675907941
89675916791
89675926190
89675933637
89675939496
89675949017
89675956036
89675964764
89675971722
89675977093
89675989117
89675993939
89676003705
89676011578
89676017499
89676027142
89676034588
89676042523
89676049481
89676057843
89676066876
89676073224
89676083844
89676092816
89676100201
89676107281
89676113568
89676122540
89676128216
89676135968
89676146954
89676154461
89676161663
89676166912
89676176800
89676185345
89676188397
89676202435
89676210125
89676217266
89676222942
89676233624
89676242229
89676248821
89676256268
89676262981
89676270245
89676277752
89676287823
89676294659
89676303997
89676308514
89676318584
89676326092
89676331219
89676340557
89676348125
89676353252
89676361370
89676371746
89676378948
89676384563
89676396404
89676401043
89676410259
89676417522
89676422771
89676434673
89676439617
89676450054
89676457683
89676464824
89676471660
89676480693
89676487102
89676492717
89676503764
89676511455
89676519023
89676524638
89676534648
89676541667
89676548503
89676555766
89676563945
89676572429
89676582622
89676590007
89676597514
89676604167
89676609416
89676619121
89676627055
89676634990
89676643840
89676653911
89676662028
89676667460
89676676677
89676683085
89676689799
89676695231
89676706095
89676716044
89676725871
89676734111
89676741008
89676747782
89676754252
89676761149
89676766215
89676775981
89676783671
89676791544
89676799418
89676808573
89676815714
89676821757
89676829203
89676837931
89676847147
89676853617
89676866984
89676870219
89676880228
89676887919
89676894022
89676900858
89676909769
89676917338
89676926798
89676934488
89676942606
89676949991
89676954081
89676964213
89676968851
89676976969
89676987589
89676996683
89677004190
89677012613
89677019327
89677027811
89677034220
89677041361
89677048380
89677055460
89677065897
89677073404
89677080118
89677086954
89677092264
89677101419
89677109659
89677117166
89677125528
89677135111
89677143716
89677152017
89677159525
89677168863
89677175394
89677184854
89677193460
89677199563
89677209085
89677216714
89677224405
89677231912
89677238077
89677244851
89677250100
89677259378
89677268045
89677278970
89677287088
89677293802
89677300882
89677307656
89677316690
89677319680
89677330667
89677342691
89677350747
89677358377
89677366189
89677373513
89677381509
89677388223
89677395852
89677404763
89677413125
89677420083
89677425698
89677435952
89677443459
89677450906
89677457986
89677466836
89677473000
89677481240
89677489114
89677494546
89677503029
89677509499
89677517861
89677524514
89677529946
89677543007
89677549050
89677561623
89677567238
89677575722
89677582558
89677591713
89677599038
89677604470
89677615212
89677623329
89677631691
89677638893
89677642128
89677652809
89677661415
89677669594
89677676796
89677685036
89677694740
89677701027
89677711830
89677720070
89677727882
89677734840
89677742409
89677750038
89677757729
89677765663
89677773170
89677782082
89677789406
89677797523
89677805031
89677813392
89677816505
89677829384
89677834938
89677844887
89677853920
89677861122
89677867836
89677873756
89677885048
89677893104
89677900550
89677907569
89677916420
89677921974
89677930336
89677939369
89677946388
89677955238
89677961524
89677966895
89677975990
89677983863
89677991920
89677999854
89678006263
89678016517
89678025611
89678031898
89678039649
89678045753
89678057471
89678062598
89678071754
89678081885
89678090613
89678095679
89678105323
89678111854
89678119666
89678127357
89678134681
89678140845
89678149146
89678159949
89678168372
89678176123
89678179725
89678191443
89678198157
89678207495
89678215918
89678226783
89678235083
89678240760
89678252112
89678260474
89678266944
89678275244
89678280982
89678292334
89678300513
89678307471
89678317114
89678320593
89678333228
89678338416
89678346350
89678354529
89678358130
89678369116
89678374670
89678381140
89678394629
89678402197
89678409277
89678418310
89678425268
89678430456
89678439856
89678447180
89678456640
89678461950
89678469763
89678480932
89678488317
89678494238
89678502417
89678507788
89678516699
89678524877
89678533300
89678543371
89678551672
89678559301
89678564733
89678573644
89678580847
89678589819
89678596838
89678602209
89678610571
89678622106
89678629552
89678636816
89678644506
89678652319
89678658056
89678666418
89678673620
89678681249
89678690099
89678700719
89678709325
89678714269
89678722875
89678730138
89678735509
89678746312
89678754003
89678757238
89678768407
89678778295
89678786229
89678793920
89678800756
89678808202
89678814855
89678823339
89678832128
89678838231
89678846288
89678854833
89678862523
89678868138
89678876744
89678884557
89678892491
89678899327
89678907628
89678913609
89678925938
89678932652
89678940648
89678946324
89678954503
89678962071
89678972386
89678979283
89678986851
89678994359
89679003575
89679013585
89679018590
89679028172
89679035924
89679041661
89679050206
89679058995
89679064244
89679072117
89679078648
89679089085
89679096409
89679099705
89679111363
89679117344
89679126316
89679133580
89679142552
89679150608
89679161534
89679168430
89679175083
89679184116
89679192478
89679199131
89679206028
89679211948
89679220310
89679232456
89679239475
89679246555
89679252171
89679262363
89679267368
89679276585
89679283420
89679289036
89679299351
89679308994
89679318516
89679325718
89679332676
89679340122
89679348301
89679354831
89679362278
89679371189
89679379978
89679386631
89679395603
89679403110
89679411716
89679419223
89679424900
89679437107
89679441806
89679450839
89679460239
89679470371
89679478732
89679484470
89679493076
89679501071
89679508823
89679517246
89679525363
89679533359
89679541660
89679550937
89679558139
89679563449
89679572482
89679580051
89679588718
89679595920
89679601352
89679610873
89679621005
89679631198
89679639804
89679649020
89679656710
89679663730
89679672396
89679679354
89679689364
89679697299
89679707675
89679715670
89679721469
89679730380
89679738681
89679744418
89679751925
89679757845
89679767184
89679776888
89679785311
89679792574
89679798495
89679807528
89679816195
89679822421
89679831637
89679834994
89679846346
89679854037
89679861727
89679869417
89679878878
89679885775
89679891878
89679901217
89679908419
89679916720
89679925264
89679931795
89679942293
89679946505
89679956575
89679963594
89679971285
89679978304
89679985994
89679994051
89680002718
89680011446
89680017733
89680022982
89680032198
89680039888
89680049898
89680057100
89680064485
89680072603
89680082552
89680092256
89680096773
89680104768
