10608152530
10608156925
10608161807
10608167239
10608172305
10608177127
10608182315
10608187259
10608191287
10608196231
10608200565
10608205203
10608210574
10608215762
10608220767
10608225528
10608230411
10608235721
10608241214
10608245242
10608251529
10608256900
10608262210
10608267947
10608273074
10608278079
10608282779
10608287906
10608293765
10608299930
10608304812
10608312747
10608321719
10608330569
10608339053
10608344851
10608351870
10608359683
10608365786
10608372134
10608380130
10608387637
10608394229
10608400027
10608406130
10608409548
10608417239
10608423525
10608428713
10608434878
10608440127
10608445620
10608452822
10608457400
10608464297
10608469485
10608475527
10608480654
10608487185
10608492129
10608497256
10608502261
10608508364
10608515139
10608519900
10608526492
10608531191
10608538271
10608543093
10608549990
10608555056
10608561098
10608567751
10608572451
10608577151
10608583254
10608589846
10608595522
10608602358
10608608034
10608613405
10608619631
10608625734
10608630861
10608636904
10608644411
10608651308
10608656923
10608662050
10608668825
10608674257
10608679445
10608685915
10608693361
10608697573
10608705263
10608710024
10608715700
10608722170
10608727907
10608733766
10608740724
10608747072
10608753664
10608759767
10608766298
10608772524
10608779360
10608784547
10608790956
10608795656
10608801515
10608807985
10608813966
10608819521
10608826173
10608833864
10608838502
10608845888
10608852418
10608858583
10608866090
10608871339
10608878358
10608884645
10608890199
10608898134
10608902711
10608910280
10608915529
10608921083
10608926576
10608933656
10608939515
10608946962
10608953675
10608959413
10608964723
10608969911
10608976747
10608982545
10608988771
10608996095
10609001344
10609007630
10609013001
10609018800
10609024171
10609032472
10609039002
10609046815
10609053101
10609059449
10609067506
10609073792
10609079652
10609087525
10609093507
10609100098
10609107972
10609114136
10609120301
10609127015
10609134339
10609140565
10609145692
10609153565
10609159669
10609165955
10609171876
10609179810
10609186524
10609194336
10609200806
10609206421
10609213868
10609222657
10609230713
10609237549
10609244019
10609251038
10609257935
10609265442
10609271607
10609278382
10609287110
10609294007
10609301331
10609308411
10609315186
10609322571
10609329407
10609336548
10609344422
10609351563
10609359192
10609366272
10609373535
10609378784
10609386658
10609393677
10609401672
10609409912
10609416565
10609424683
10609431518
10609438476
10609444824
10609452209
10609459167
10609469238
10609475097
10609483337
10609492004
10609496826
10609504455
10609510925
10609520141
10609530029
10609537170
10609544372
10609551513
10609559082
10609568725
10609574523
10609583496
10609592163
10609599243
10609606445
10609613464
10609619750
10609627624
10609634887
10609642089
10609649291
10609653686
10609662292
10609669433
10609675842
10609682922
10609689697
10609696899
10609703490
10609709594
10609716979
10609723388
10609731261
10609740172
10609747130
10609754394
10609761474
10609769042
10609775451
10609782348
10609789123
10609796081
10609803344
10609810485
10609818786
10609824401
10609834105
10609842406
10609848632
10609857970
10609865355
10609872252
10609878844
10609887328
10609891661
10609899962
10609906737
10609915038
10609921569
10609929808
10609936522
10609944823
10609950926
10609958556
10609964903
10609973937
10609981810
10609988158
10609994322
10610002013
10610008360
10610015990
10610022215
10610030821
10610037291
10610045164
10610051268
10610058714
10610065062
10610073240
10610079649
10610088133
10610094969
10610103880
10610110838
10610117796
10610122191
10610130858
10610137205
10610144835
10610154478
10610160215
10610166685
10610174681
10610181272
10610188902
10610195616
10610205503
10610213072
10610221311
10610229429
10610236753
10610244810
10610251646
10610259153
10610265928
10610272947
10610280759
10610287717
10610294309
10610301939
10610309080
10610319028
10610325376
10610333372
10610339475
10610347471
10610353513
10610362241
10610368528
10610376035
10610382444
10610389402
10610397519
10610404233
10610410398
10610417539
10610423948
10610432737
10610439084
10610446408
10610452512
10610459897
10610467038
10610474362
10610480527
10610488523
10610495236
10610504331
10610511289
10610517697
10610525083
10610532773
10610537229
10610546445
10610553830
10610560605
10610567685
10610574826
10610581845
10610589169
10610593869
10610603329
10610611081
10610618466
10610624387
10610633053
10610638119
10610646115
10610652707
10610661984
10610669369
10610676938
10610683896
10610690304
10610697629
10610705014
10610711850
10610719723
10610727108
10610734494
10610741513
10610748349
10610755307
10610763974
10610768612
10610778744
10610787777
10610794308
10610798825
10610808651
10610815426
10610822567
10610830624
10610840878
10610847042
10610853329
10610860104
10610866207
10610873715
10610882504
10610889095
10610898922
10610908199
10610915707
10610922970
10610930904
10610938290
10610945736
10610952877
10610960750
10610968624
10610976803
10610983761
10610990902
10610997738
10611005428
10611013851
10611021297
10611028621
10611036129
10611044063
10611048458
10611057308
10611064266
10611071224
10611078731
10611086727
10611090999
10611099849
10611106746
10611113216
10611120174
10611128963
10611136043
10611145015
10611152217
10611159053
10611166133
10611174068
10611180171
10611188228
10611195430
10611204341
10611211482
10611217586
10611224727
10611234370
10611241450
10611247066
10611255916
10611262202
10611269343
10611278254
10611285029
10611291682
10611299189
10611307612
10611314570
10611324641
10611332087
10611338374
10611343196
10611353328
10611361262
10611368159
10611376643
10611383174
10611387934
10611395259
10611402461
10611410578
10611417964
10611426692
10611435114
10611441767
10611448603
10611454951
10611461726
10611469111
10611477412
10611483881
10611493098
10611499506
10611507868
10611514216
10611521540
10611527949
10611536494
10611543391
10611551874
10611559077
10611565729
10611573237
10611580622
10611587702
10611595820
10611603266
10611611445
10611618280
10611624506
10611631769
10611637506
10611645868
10611656183
10611663996
10611670771
10611679865
10611686457
10611696466
10611704279
10611710932
10611719721
10611725519
10611734430
10611740717
10611747858
10611753839
10611761102
10611768793
10611776300
10611782831
10611790155
10611797479
10611802972
10611811273
10611818780
10611825555
10611832574
10611841424
10611846063
10611855707
10611860650
10611869867
10611874566
10611884332
10611891351
10611897516
10611904840
10611913080
10611918206
10611924981
10611932000
10611940423
10611947869
10611955682
10611960443
10611969842
10611977105
10611983819
10611991143
10611999627
10612007195
10612013421
10612019830
10612025994
10612034905
10612041375
10612049127
10612056512
10612064385
10612071038
10612080010
10612085137
10612095147
10612100457
10612110589
10612118401
10612124627
10612132439
10612140679
10612148003
10612153863
10612160943
10612169060
10612179070
10612185479
10612192864
10612199212
10612206475
10612212334
10612218621
10612227715
10612235161
10612243462
10612251152
10612257256
10612263665
10612270806
10612277031
10612286797
10612294304
10612300225
10612306328
10612315117
10612322258
10612328484
10612334648
10612342949
10612350090
10612357903
10612364494
10612373894
10612378593
10612387444
10612397148
10612404716
10612412102
10612418999
10612426384
10612433708
10612441337
10612447502
10612454765
10612462456
10612469902
10612479301
10612485039
10612494133
10612502556
10612512321
10612519889
10612526786
10612534172
10612540336
10612544914
10612552909
10612560234
10612567009
10612574028
10612585807
10612591850
10612599662
10612604362
10612613456
10612618339
10612627006
10612631706
10612641105
10612648856
10612654655
10612661613
10612668327
10612675407
10612682670
10612688102
10612698417
10612705497
10612711845
10612719230
10612725394
10612734244
10612740653
10612745231
10612757010
10612763297
10612769462
10612776359
10612782462
10612790091
10612796439
10612805350
10612811759
10612821280
10612828605
10612835013
10612841117
10612848685
10612854789
10612864005
10612870719
10612879386
10612885611
10612893363
10612899832
10612907096
10612914420
10612921927
10612928885
10612938223
10612945181
10612951102
10612958365
10612965079
10612972464
10612980521
10612987906
10612995352
10613002310
10613008841
10613016226
10613022635
10613030752
10613037405
10613044546
10613052237
10613058523
10613066702
10613071585
10613080374
10613087088
10613095450
10613103140
10613111441
10613119192
10613127737
10613135366
10613141470
10613149343
10613157888
10613164846
10613172415
10613177847
10613187795
10613192434
10613201345
10613205923
10613215872
10613223440
10613229727
10613238577
10613246023
10613252737
10613259084
10613267812
10613275625
10613282644
10613288747
10613297109
10613304311
10613310110
10613316823
10613325246
10613331838
10613341115
10613347890
10613355153
10613361318
10613367788
10613375905
10613382497
10613392446
10613399099
10613405385
10613412465
10613418752
10613423391
10613431752
10613439992
10613446462
10613454274
10613460439
10613468434
10613474477
10613482717
10613489797
10613497426
10613504323
10613512746
10613519460
10613526235
10613534169
10613539662
10613546437
10613553822
10613562795
10613568593
10613578053
10613584767
10613590382
10613598073
10613606068
10613610646
10613621571
10613627064
10613636525
10613642872
10613649708
10613656361
10613662160
10613669118
10613676930
10613684315
10613691273
10613700551
10613706105
10613713612
10613720448
10613727406
10613733998
10613741383
10613749134
10613756275
10613762745
10613769825
10613775563
10613782826
10613791981
10613800526
10613807545
10613813221
10613820667
10613828785
10613835743
10613843922
10613850758
10613858387
10613867664
10613875111
10613882069
10613891224
10613897510
10613906116
10613913868
10613922230
10613929371
10613937183
10613941578
10613949879
10613957142
10613965320
10613972767
10613979419
10613986438
10613993030
10613999988
10614007068
10614014576
10614022693
10614030201
10614037342
10614044788
10614052661
10614058094
10614065662
10614073413
10614080921
10614090320
10614095813
10614103504
10614113025
10614117664
10614125354
10614131397
10614139758
10614146289
10614155689
10614162402
10614169788
10614176013
10614183704
10614190356
10614199390
10614206042
10614213733
10614220080
10614228015
10614234302
10614239429
10614247241
10614256213
10614262866
10614269641
10614278308
10614285571
10614291613
10614299243
10614306689
10614314196
10614321765
10614331408
10614338061
10614343981
10614350207
10614359790
10614365832
10614373706
10614380236
10614387988
10614394091
10614402392
10614408923
10614415698
10614422411
10614429125
10614439196
10614446520
10614453478
10614462084
10614468310
10614475085
10614481310
10614487658
10614496630
10614504565
10614510851
10614518053
10614524889
10614532519
10614538622
10614548754
10614556872
10614564745
10614571764
10614580492
10614587328
10614595446
10614602037
10614609545
10614615770
10614624498
10614631762
10614637438
10614645372
10614652880
10614657396
10614665880
10614672655
10614681322
10614687670
10614694994
10614701158
10614708727
10614714769
10614723131
10614730333
10614738207
10614744493
10614752000
10614758775
10614763841
10614771532
10614779527
10614789415
10614796007
10614801683
10614810533
10614816392
10614824327
10614830003
10614837266
10614844652
10614850572
10614857835
10614865281
10614873277
10614880845
10614886461
10614893785
10614900499
10614908006
10614915025
10614922166
10614929124
10614936082
10614942857
10614947923
10614956224
10614964402
10614971971
10614979173
10614985703
10614992600
10614997422
10615006333
10615014512
10615021226
10615028550
10615035081
10615043137
10615049363
10615056443
10615062302
10615072251
10615079209
10615087022
10615093735
10615101182
10615107896
10615113206
10615120713
10615127671
10615136582
10615144272
10615150010
10615158555
10615164353
10615169419
10615177353
10615184861
10615194687
10615199936
10615209458
10615216721
10615222885
10615227585
10615234665
10615243576
10615251023
10615259506
10615267563
10615273972
10615281113
10615288498
10615296799
10615304123
10615314865
10615322189
10615328537
10615336777
10615342880
10615350693
10615356979
10615363510
10615371140
10615379562
10615386337
10615395187
10615401352
10615408249
10615414596
10615423996
10615431808
10615439194
10615446579
10615453293
10615459640
10615467819
10615472152
10615480941
10615488754
10615498031
10615505478
10615512130
10615518417
10615525253
10615531478
10615540451
10615548385
10615556991
10615561630
10615571090
10615575973
10615583358
10615589462
10615596359
10615606246
10615612777
10615619125
10615626449
10615632736
10615641525
10615647994
10615655502
10615662154
10615670943
10615675277
10615683700
10615689986
10615697555
10615704513
10615712997
10615719405
10615728499
10615735457
10615741744
10615747848
10615754928
10615761275
10615770553
10615777694
10615787276
10615794417
10615800216
10615806502
10615814925
10615821517
10615829268
10615835860
10615842696
10615849166
10615857283
10615864119
10615871382
10615880965
10615888289
10615896468
10615904646
10615911543
10615919356
10615926375
10615932295
10615939558
10615946639
10615954390
10615961958
10615969099
10615975569
10615981856
10615989424
10615998579
10616006148
10616014021
10616023054
10616029158
10616037520
10616044966
10616051069
10616058516
10616066328
10616073652
10616081221
10616086958
10616094832
10616102034
10616107771
10616114119
10616121504
10616131147
10616137861
10616144880
10616151350
10616158064
10616164533
10616172834
10616179975
10616187788
10616195600
10616202497
10616210371
10616217573
10616223005
10616230207
10616236677
10616245832
10616251752
10616258710
10616265852
10616272687
10616279340
10616284101
10616292768
10616300214
10616308149
10616314558
10616322736
10616330244
10616336957
10616343183
10616350507
10616356916
10616364606
10616370710
10616377851
10616384076
10616392865
10616399396
10616406720
10616414106
10616422834
10616428876
10616435895
10616442426
10616450299
10616457196
10616465680
10616472821
10616481732
10616487042
10616494733
10616501752
10616507672
10616514813
10616523358
10616531354
10616538495
10616545941
10616553876
10616561139
10616567609
10616574689
10616583722
10616591778
10616598126
10616605572
10616612652
10616619916
10616626019
10616632306
10616640790
10616648236
10616655133
10616661175
10616670453
10616677227
10616683697
10616690777
10616698162
10616705975
10616713177
10616719830
10616728924
10616733807
10616742901
10616751629
10616758404
10616765789
10616774578
10616782818
10616789837
10616797405
10616805401
10616810650
10616819439
10616826763
10616833294
10616842571
10616849712
10616857647
10616864056
10616872478
10616882305
10616889568
10616896648
10616902630
10616909771
10616917034
10616924846
10616932171
10616939495
10616945965
10616952862
10616959514
10616965801
10616974163
10616981487
10616988628
10616995891
10617003399
10617010540
10617017131
10617023235
10617030986
10617037090
10617044536
10617051067
10617058635
10617065654
10617072612
10617079082
10617086223
10617094463
10617099346
10617108928
10617116069
10617122722
10617130168
10617138286
10617143657
10617151591
10617156291
10617165019
10617172527
10617178508
10617185527
10617193523
10617198344
10617207194
10617214824
10617223979
10617231975
10617239299
10617246745
10617253032
10617259990
10617266459
10617270915
10617282267
10617290324
10617296977
10617302348
10617309672
10617316691
10617324870
10617331950
10617340373
10617349711
10617356120
10617363139
10617369547
10617377177
10617382914
10617390482
10617399027
10617406168
10617414164
10617418864
10617427531
10617432291
10617442179
10617447306
10617459086
10617467387
10617473856
10617481425
10617488138
10617495524
10617502116
10617511393
10617517740
10617525492
10617531840
10617541117
10617545817
10617554361
10617562540
10617569803
10617577311
10617585489
10617592508
10617599710
10617604227
10617612711
10617619425
10617628336
10617635782
10617643045
10617650492
10617656839
10617663492
10617671305
10617677652
10617684732
10617694132
10617700906
10617707071
10617714884
10617721170
10617728555
10617734842
10617742593
10617750589
10617759378
10617765726
10617772989
10617779520
10617786355
10617793741
10617803079
10617809854
10617817666
10617823831
10617832254
10617838601
10617843789
10617855630
10617863687
10617871316
10617878640
10617885659
10617891946
10617899087
10617905374
10617912698
10617919595
10617926004
10617934304
10617940530
10617948648
10617955667
10617962503
10617969766
10617977883
10617985879
10617994180
10618001260
10618006875
10618014565
10618021767
10618026284
10618034219
10618044656
10618051308
10618058572
10618065957
10618071084
10618079018
10618085732
10618094338
10618100930
10618109597
10618116006
10618124245
10618130410
10618137795
10618145119
10618154213
10618162392
10618169533
10618176613
10618184182
10618191445
10618200356
10618207070
10618212075
10618222512
10618231484
10618238503
10618247658
10618252968
10618261635
10618268288
10618275124
10618285744
10618291725
10618298561
10618307655
10618314003
10618320595
10618326881
10618336342
10618343727
10618351479
10618358681
10618364662
10618370766
10618379677
10618384010
10618392372
10618399147
10618408180
10618415382
10618423683
10618430702
10618437355
10618445106
10618452736
10618460609
10618467872
10618475013
10618482948
10618488136
10618498146
10618502845
10618512672
10618520423
10618526710
10618534217
10618540504
10618549903
10618555946
10618564430
10618570838
10618579688
10618587562
10618596046
10618603126
10618609840
10618616920
10618623573
10618630531
10618637855
10618644874
10618651405
10618659644
10618668250
10618676551
10618684302
10618692603
10618700294
10618706885
10618714332
10618721412
10618728492
10618735694
10618743140
10618750159
10618757666
10618764258
10618771399
10618778296
10618785315
10618793067
10618801001
10618807776
10618813941
10618821814
10618829138
10618836463
10618843115
10618852332
10618859961
10618866919
10618876257
10618882239
10618891699
10618899329
10618905066
10618915503
10618921179
10618929785
10618939246
10618946631
10618951575
10618962927
10618971472
10618977148
10618986670
10618994360
10619002173
10619009253
10619015722
10619022803
10619032202
10619039343
10619045569
10619053625
10619060888
10619067846
10619074865
10619082312
10619089575
10619095922
10619102026
10619111120
10619115942
10619125708
10619133032
10619140966
10619147314
10619156286
10619163366
10619170507
10619177770
10619185827
10619193273
10619201086
10619208654
10619215490
10619223058
10619229711
10619236059
10619245519
10619250463
10619260168
10619268346
10619274938
10619281652
10619289342
10619296850
10619303441
10619308141
10619316686
10619326391
10619333715
10619338292
10619345800
10619352819
10619361486
10619366246
10619374913
10619382177
10619390416
10619397496
10619403539
10619410619
10619418309
10619425572
10619433385
10619441014
10619448461
10619455541
10619463964
10619471715
10619477696
10619484715
10619493627
10619501744
10619507420
10619515721
10619522191
10619531895
10619539525
10619547826
10619555455
10619563084
10619570103
10619576451
10619583592
10619590977
10619595433
10619604649
10619612889
10619621129
10619628636
10619635411
10619642796
10619650181
10619657872
10619666233
10619673802
10619682774
10619688450
10619697300
10619706028
10619713475
10619721104
10619730686
10619736180
10619743077
10619751133
10619758213
10619764500
10619772251
10619779759
10619787022
10619794773
10619801914
10619807957
10619814976
10619821384
10619828770
10619837559
10619845005
10619853123
10619860874
10619866611
10619874058
10619881565
10619889072
10619895786
10619902744
10619910679
10619916538
10619926182
10619933567
10619939670
10619947422
10619954075
10619963535
10619968174
10619976169
10619982334
10619989292
10619996616
10620005222
10620011570
10620020236
10620027622
10620035312
10620041904
10620048252
10620056186
10620061679
10620071079
10620078525
10620085239
10620092136
10620097690
10620106418
10620112888
10620117709
10620127780
10620135898
10620143832
10620153171
10620158542
10620166904
10620173312
10620181369
10620188022
10620196811
10620203891
10620210177
10620216403
10620223849
10620230197
10620239413
10620247531
10620254489
10620260775
10620268283
10620275180
10620283175
10620289462
10620296786
10620303317
10620310824
10620317050
10620325473
10620332247
10620340121
10620347079
10620355685
10620364047
10620373202
10620377841
10620386080
10620392794
10620401827
10620409396
10620416476
10620423617
10620433138
10620441073
10620448702
10620456148
10620463900
10620471285
10620479464
10620487276
10620493380
10620500399
10620509127
10620516634
10620523958
10620532259
10620538790
10620548006
10620554659
10620561922
10620567049
10620575899
10620580904
10620589083
10620598848
10620605196
10620611483
10620618196
10620624361
10620632357
10620638704
10620645601
10620655611
10620662752
10620669893
10620675630
10620681917
10620690584
10620695162
10620703462
10620710542
10620718721
10620725191
10620732454
10620739229
10620748506
10620755281
10620762605
10620770723
10620779146
10620785860
10620792634
10620800325
10620805879
10620813997
10620820466
10620827424
10620836702
10620841768
10620850435
10620856355
10620865327
10620872590
10620881013
10620890474
10620901033
10620909333
10620916841
10620926484
10620935578
10620943025
10620950654
10620959016
10620966462
10620973481
10620980561
10620987458
10620994111
10621000459
10621009065
10621017976
10621025239
10621033112
10621040009
10621046723
10621053803
10621061066
10621068940
10621077363
10621084809
10621092927
10621099518
10621107697
10621114716
10621122101
10621129670
10621137177
10621145295
10621152680
10621161957
10621166657
10621176117
10621181549
10621192292
10621200409
10621206940
10621214203
10621221039
10621227997
10621236115
10621244110
10621251251
10621259186
10621265473
10621273651
10621280426
10621285126
10621293060
10621300201
10621309784
10621316376
10621322479
10621331757
10621338287
10621345856
10621352081
10621356842
10621367096
10621372345
10621381439
10621388458
10621396942
10621403473
10621409515
10621418304
10621425934
10621433929
10621440277
10621448150
10621454498
10621462616
10621470001
10621478729
10621486114
10621492096
10621500885
10621507049
10621514373
10621521148
10621527435
10621537322
10621545562
10621552703
10621560821
10621570220
10621577789
10621584014
10621591888
10621600555
10621610381
10621618194
10621626311
10621632903
10621638702
10621647002
10621654388
10621662139
10621670562
10621677825
10621684539
10621691497
10621698211
10621705474
10621713531
10621721892
10621730010
10621736907
10621743926
10621751006
10621758941
10621766021
10621771392
10621781279
10621788298
10621795134
10621801238
10621808623
10621815947
10621824004
10621831572
10621840483
10621848113
10621857573
10621864043
10621872405
10621881194
10621888640
10621897673
10621904631
10621912199
10621919157
10621924467
10621934172
10621939116
10621949309
10621956511
10621963286
10621970366
10621976530
10621984587
10621991057
10621998869
10622006010
10622014372
10622021513
10622027739
10622033781
10622040739
10622047087
10622055449
10622062040
10622069792
10622075956
10622083769
10622090239
10622097990
10622104643
10622111967
10622118925
10622127653
10622134062
10622138700
10622148161
10622153044
10622162016
10622169889
10622177397
10622182707
10622191557
10622200163
10622206998
10622214445
10622221098
10622225797
10622236234
10622243253
10622249540
10622257535
10622263761
10622271207
10622276700
10622283781
10622291532
10622298856
10622308011
10622316312
10622323148
10622331693
10622338590
10622347562
10622354947
10622363126
10622370389
10622379483
10622386197
10622392789
10622399076
10622407682
10622415677
10622424893
10622432584
10622440396
10622447659
10622455289
10622462674
10622468961
10622478360
10622485257
10622492398
10622500760
10622506863
10622513882
10622520901
10622529385
10622537198
10622545987
10622552090
10622560879
10622569668
10622578091
10622585110
10622592862
10622602200
10622609402
10622616116
10622624173
10622632351
10622638150
10622646573
10622654141
10622660794
10622668118
10622674771
10622681851
10622688809
10622696316
10622703396
10622710720
10622719509
10622724148
10622732998
10622737393
10622746670
10622751187
10622760342
10622767666
10622775601
10622782070
10622790615
10622795254
10622803188
10622810696
10622818935
10622825832
10622833706
10622840115
10622847744
10622854702
10622862331
10622868679
10622873318
10622884243
10622889309
10622897854
10622905422
10622911037
10622918117
10622926113
10622932705
10622939907
10622948452
10622954677
10622962062
10622968288
10622975246
10622983120
10622990444
10622996791
10623004665
10623011623
10623018581
10623029750
10623037197
10623043422
10623050990
10623059657
10623068691
10623077174
10623086452
10623092128
10623100246
10623107448
10623115016
10623123378
10623129054
10623136073
10623144008
10623149379
10623157558
10623164638
10623173793
10623182582
10623188991
10623193873
10623201808
10623209315
10623216700
10623224635
10623232386
10623242640
10623250148
10623258082
10623265590
10623273951
10623282252
10623288417
10623296046
10623304225
10623312220
10623320399
10623328211
10623335963
10623345912
10623353297
10623360804
10623368495
10623376612
10623383753
10623389796
10623398646
10623405360
10623411036
10623421351
10623426173
10623434168
10623441737
10623447962
10623455164
10623462366
10623469813
10623477259
10623487330
10623493860
10623503321
10623510828
10623518824
10623523645
10623533228
10623540430
10623549646
10623554956
10623564234
10623570032
10623580530
10623587915
10623594934
10623601770
10623608118
10623616785
10623624719
10623631922
10623642114
10623649378
10623656458
10623663294
10623670557
10623678186
10623685266
10623693018
10623701135
10623708887
10623714380
10623721521
10623728662
10623736291
10623743433
10623751123
10623758996
10623767053
10623774133
10623780115
10623786523
10623793725
10623800317
10623807580
10623815271
10623825219
10623829980
10623838586
10623844873
10623852441
10623858850
10623868371
10623876489
10623883081
10623892175
10623900354
10623906640
10623914758
10623922265
10623932031
10623939660
10623945825
10623953881
10623961877
10623968041
10623974511
10623982324
10623989159
10623998315
10624005761
10624013634
10624018945
10624028405
10624036462
10624044640
10624052392
10624059411
10624068688
10624076745
10624084069
10624090355
10624098412
10624106896
10624114892
10624120507
10624128685
10624136193
10624143273
10624149987
10624157311
10624164269
10624171715
10624178795
10624186119
10624192223
10624199608
10624207360
10624214073
10624221764
10624229332
10624237572
10624244774
10624252037
10624257164
10624264671
10624273155
10624279503
10624287071
10624294823
10624302330
10624308006
10624316002
10624324974
10624331749
10624340050
10624349266
10624355919
10624363060
10624369896
10624377769
10624385765
10624392967
10624401329
10624408775
10624415489
10624424400
10624430748
10624437462
10624443626
10624451988
10624459739
10624467857
10624474144
10624481651
10624490196
10624496482
10624504234
10624509422
10624519493
10624527427
10624534446
10624543113
10624549522
10624556785
10624562522
10624571677
10624580955
10624587486
10624593833
10624602622
10624609641
10624615928
10624621970
10624629905
10624637412
10624644858
10624651694
10624658591
10624666282
10624673545
10624680686
10624687888
10624695151
10624702048
10624708945
10624716269
10624723533
10624729758
10624737021
10624745200
10624753257
10624761191
10624768515
10624775412
10624782004
10624790305
10624797263
10624805258
10624813071
10624819419
10624827231
10624835471
10624843039
10624849570
10624855063
10624865195
10624873190
10624889426
10624896811
10624903586
10624912314
10624920431
10624929465
10624936423
10624943686
10624950217
10624957846
10624965597
10624973227
10624981772
10624990500
10624997397
10625004599
10625011923
10625019491
10625027792
10625032797
10625040365
10625052145
10625059591
10625066244
10625073690
10625080404
10625087789
10625094320
10625102438
10625109274
10625115438
10625125204
10625131002
10625139974
10625147299
10625154501
10625160238
10625169149
10625177084
10625185812
10625191549
10625200216
10625205038
10625213827
10625220541
10625227743
10625235250
10625243429
10625250387
10625258443
10625266927
10625273702
10625280294
10625287862
10625298055
10625303548
10625313619
10625322652
10625330892
10625337056
10625344075
10625353231
10625361165
10625368856
10625376485
10625383565
10625391500
10625396810
10625406636
10625414754
10625422872
10625432210
10625441548
10625447164
10625454671
10625462911
10625470418
10625478291
10625484700
10625493245
10625501851
10625508260
10625516011
10625524129
10625531148
10625539387
10625547749
10625555867
10625565083
10625574544
10625581502
10625590352
10625597493
10625605244
10625613911
10625621724
10625629780
10625637227
10625644062
10625651997
10625659809
10625666706
10625672810
10625680195
10625687825
10625694783
10625701374
10625708698
10625714924
10625723164
10625730793
10625738850
10625747334
10625754475
10625761128
10625769123
10625777058
10625784138
10625790058
10625798176
10625805561
10625812702
10625819843
10625828388
10625836506
10625843525
10625852985
10625860432
10625868488
10625873371
10625880695
10625887592
10625894916
10625902546
10625911335
10625917865
10625923969
10625932453
10625938434
10625947223
10625952961
10625959980
10625969623
10625974689
10625983478
10625990009
10625995807
10626005329
10626010944
10626016925
10626025653
10626031146
10626039081
10626044940
10626054157
10626061359
10626068256
10626076495
10626085345
10626094684
10626101886
10626108051
10626115375
10626122211
10626129474
10626136859
10626144366
10626152423
10626159625
10626165545
10626172870
10626180987
10626186969
10626194598
10626202044
10626211261
10626218585
10626226153
10626231891
10626240191
10626247515
10626255755
10626263324
10626272540
10626279803
10626285662
10626293536
10626303179
10626310382
10626319354
10626325152
10626334002
10626339739
10626346758
10626354571
10626361590
10626368792
10626376482
10626382952
10626390093
10626397356
10626404864
10626411578
10626418719
10626426287
10626433733
10626440630
10626447588
10626454424
10626461809
10626468950
10626477251
10626482866
10626492144
10626498064
10626505266
10626512407
10626519976
10626526567
10626533525
10626540056
10626550005
10626558306
10626563372
10626571978
10626579058
10626586016
10626593157
10626598467
10626605791
10626614641
10626620989
10626628923
10626635820
10626643266
10626649248
10626656511
10626667314
10626675127
10626681291
10626688799
10626695085
10626703630
10626712846
10626720171
10626727617
10626733598
10626742448
10626748552
10626755571
10626762529
10626769365
10626775834
10626783464
10626791093
10626798112
10626804155
10626810502
10626819535
10626826860
10626833085
10626840409
10626847123
10626853288
10626862077
10626868913
10626875871
10626883622
10626890031
10626899919
10626906327
10626913774
10626920304
10626927262
10626935197
10626942521
10626949906
10626957414
10626964616
10626971879
10626978959
10626986527
10626992692
10627000565
10627010026
10627017533
10627024735
10627032059
10627038834
10627046464
10627053300
10627058793
10627069474
10627074723
10627084794
10627092179
10627098526
10627107743
10627115250
10627123734
10627130997
10627137711
10627145157
10627152359
10627159561
10627166947
10627174881
10627182694
10627190567
10627196915
10627204605
10627212723
10627218155
10627227249
10627234390
10627242142
10627248306
10627256912
10627262589
10627273636
10627280350
10627286758
10627295670
10627303726
10627311478
10627319107
10627325760
10627332962
10627339920
10627347183
10627355179
10627362686
10627370132
10627377273
10627383804
10627391250
10627398575
10627406204
10627413589
10627421951
10627430496
10627437881
10627444473
10627451492
10627457595
10627464065
10627473037
10627480606
10627488479
10627492874
10627502334
10627509292
10627515334
10627521743
10627530654
10627537978
10627546157
10627553298
10627559463
10627566848
10627572768
10627579543
10627586806
10627593703
10627602859
10627609267
10627615737
10627621902
10627630263
10627636672
10627645583
10627653029
10627659682
10627666762
10627674636
10627680739
10627694289
10627701857
10627710646
10627719985
10627726149
10627733962
10627742690
10627748488
10627756850
10627765639
10627772475
10627780226
10627788527
10627795790
10627802138
10627809828
10627816359
10627824965
10627832900
10627840407
10627847853
10627855238
10627863722
10627870924
10627876723
10627882643
10627892348
10627900038
10627905653
10627913649
10627922377
10627930128
10627937330
10627944472
10627955092
10627961622
10627969313
10627976393
10627983473
10627988600
10627995314
10628004347
10628013746
10628020033
10628027357
10628034071
10628041212
10628048902
10628054457
10628061842
10628069288
10628078321
10628085340
10628091017
10628097975
10628104688
10628112074
10628118482
10628126295
10628134596
10628142164
10628149122
10628153577
10628162367
10628167371
10628176466
10628183179
10628191358
10628197706
10628205457
10628212232
10628219739
10628225965
10628233961
10628240919
10628250440
10628257642
10628264539
10628269605
10628279065
10628284009
10628293348
10628300367
10628308545
10628315320
10628323133
10628329236
10628336560
10628343030
10628350537
10628361768
10628367383
10628373609
10628382093
10628389905
10628395886
10628403699
10628409741
10628419995
10628427319
10628435071
10628442578
10628450269
10628456311
10628463757
10628470166
10628480847
10628488477
10628496350
10628502270
10628509595
10628517224
10628524182
10628530896
10628538952
10628546521
10628553601
10628560986
10628568066
10628573620
10628580700
10628588452
10628595715
10628603650
10628610791
10628617627
10628624401
10628631054
10628638073
10628646191
10628653881
10628660778
10628667980
10628674816
10628680615
10628689831
10628695751
10628704907
10628712353
10628719494
10628726635
10628734387
10628739147
10628746838
10628753124
10628757763
10628770580
10628776806
10628783886
10628790661
10628797192
10628804943
10628811413
10628818920
10628825939
10628834789
10628841930
10628848095
10628854503
10628862621
10628869213
10628875866
10628882824
10628891308
10628899303
10628905651
10628911937
10628918895
10628924633
10628932079
10628941845
10628949230
10628955822
10628963939
10628972606
10628978038
10628986522
10628992626
10629001781
10629008922
10629016002
10629023448
10629031261
10629036998
10629045848
10629053722
10629061046
10629068370
10629076122
10629083202
10629090770
10629097301
10629104137
10629113048
10629118663
10629127818
10629133189
10629141368
10629148570
10629154979
10629162059
10629170176
10629178355
10629188060
10629193187
10629202037
10629210582
10629220042
10629227916
10629236949
10629245799
10629252818
10629258067
10629265391
10629271800
10629281016
10629287486
10629295359
10629303538
10629310923
10629317515
10629325083
10629331187
10629341074
10629348155
10629355784
10629361948
10629369456
10629377695
10629385630
10629391734
10629399790
10629407481
10629415049
10629423350
10629430613
10629437815
10629444834
10629451731
10629458872
10629465891
10629473704
10629481089
10629487742
10629494516
10629501535
10629508554
10629515696
10629521799
10629531076
10629536997
10629544016
10629550486
10629557627
10629563913
10629570993
10629577951
10629587107
10629593820
10629601755
10629609262
10629617014
10629623544
10629630747
10629637521
10629644846
10629653391
10629660593
10629668466
10629675668
10629683420
10629688913
10629696054
10629703989
10629711618
10629718637
10629726755
10629732553
10629741281
10629746835
10629753976
10629763131
10629769845
10629777047
10629784860
10629790109
10629798471
10629803781
10629812814
10629821237
10629827768
10629834848
10629842904
10629848031
10629858407
10629864389
10629875436
10629883004
10629889474
10629896798
10629905160
10629912301
10629922128
10629927071
10629936715
10629946175
10629955636
10629963937
10629971383
10629977975
10629984811
10629992806
10630000130
10630006600
10630013558
10630020089
10630027230
10630035226
10630042428
10630053719
10630061593
10630068429
10630076241
10630083382
10630090401
10630096871
10630103890
10630112862
10630120613
10630126412
10630135750
10630141976
10630148873
10630154610
10630161751
10630171211
10630179573
10630185921
10630194344
10630202095
10630208992
10630214974
10630222542
10630230721
10630238594
10630247383
10630253120
10630260139
10630267159
10630273994
10630280586
10630291695
10630298347
10630305733
10630311409
10630317818
10630327095
10630335029
10630342720
10630352424
10630360481
10630367561
10630373665
10630380928
10630386909
10630393562
10630401252
10630409553
10630417122
10630424446
10630433113
10630440193
10630447639
10630454658
10630460945
10630469673
10630478340
10630485420
10630492622
10630500129
10630508369
10630517219
10630524055
10630533149
10630539130
10630546882
10630552680
10630559943
10630568183
10630572883
10630582893
10630590522
10630597480
10630605598
10630612861
10630620063
10630628730
10630637763
10630644599
10630653571
10630661445
10630668403
10630675727
10630683478
10630694098
10630702643
10630709235
10630716437
10630725837
10630732795
10630739936
10630746833
10630754096
10630761725
10630769293
10630777777
10630783881
10630791510
10630799750
10630807318
10630813483
10630822516
10630828681
10630839117
10630845953
10630855719
10630863959
10630872504
10630880988
10630888068
10630895636
10630904303
10630911566
10630918219
10630925299
10630932562
10630939886
10630947577
10630955877
10630963812
10630971502
10630977850
10630985418
10630993780
10631001226
10631007391
10631016180
10631022589
10631029730
10631035772
10631042913
10631052313
10631059576
10631065557
10631072576
10631078741
10631085882
10631092718
10631102545
10631108953
10631117132
10631124090
10631131536
10631139837
10631146673
10631152959
10631160040
10631169927
10631177496
10631184209
10631191473
10631197820
10631205083
10631210943
10631218084
10631225591
10631233892
10631240301
10631246526
10631256963
10631264470
10631271489
10631279851
10631288457
10631296514
10631302861
10631312139
10631316899
10631325322
10631332463
10631340093
10631347905
10631357427
10631364446
10631371709
10631376409
10631386052
10631396062
10631403508
10631413396
10631419866
10631428471
10631437749
10631444951
10631451665
10631460576
10631468510
10631476567
10631484196
10631490178
10631497075
10631503300
10631510380
10631518437
10631526188
10631534245
10631541752
10631548344
10631556035
10631561711
10631570012
10631577458
10631585515
10631593510
10631598820
10631606938
10631614018
10631619877
10631626835
10631634648
10631641911
10631649174
10631654484
10631663517
10631672672
10631683598
10631689274
10631701115
10631707707
10631715702
10631723087
10631730228
10631737003
10631744022
10631750492
10631759953
10631766300
10631773380
10631780155
10631787357
10631793583
10631801334
10631807499
10631816288
10631826176
10631831058
10631839786
10631847233
10631854069
10631861332
10631867801
10631876041
10631883182
10631889469
10631896793
10631903019
10631911197
10631917850
10631926395
10631935428
10631942447
10631949832
10631955631
10631962528
10631970951
10631977481
10631985538
10631993778
10632001407
10632008121
10632015445
10632023502
10632030093
10632036380
10632041141
10632052005
10632058780
10632065372
10632075381
10632083621
10632091617
10632099917
10632108584
10632118350
10632125857
10632133975
10632141421
10632148807
10632155581
10632163211
10632171451
10632179385
10632186343
10632193850
10632200381
10632207095
10632214480
10632220645
10632228518
10632239138
10632245242
10632252505
10632263369
10632272036
10632278811
10632286013
10632292727
10632299990
10632307192
10632314089
10632320559
10632327761
10632336001
10632343325
10632349917
10632357790
10632366030
10632373537
10632379702
10632386904
10632394289
10632399721
10632408205
10632415529
10632421938
10632428896
10632436831
10632442202
10632449831
10632457277
10632462221
10632473879
10632480227
10632487490
10632493959
10632501467
10632507997
10632516115
10632523317
10632532045
10632540468
10632547487
10632554445
10632562013
10632568300
10632575014
10632584352
10632591860
10632600099
10632605959
10632613649
10632620790
10632627382
10632634462
10632641176
10632649049
10632658144
10632665224
10632671693
10632678834
10632684877
10632692934
10632700197
10632708070
10632716005
10632723207
10632730043
10632737184
10632743776
10632751039
10632758485
10632765931
10632772584
10632779664
10632787416
10632794557
10632801698
10632807252
10632814454
10632821717
10632829774
10632836854
10632844239
10632851258
10632860719
10632868165
10632875367
10632884217
10632891236
10632899842
10632906495
10632914552
10632922547
10632930116
10632937379
10632945741
10632952821
10632960145
10632967530
10632974549
10632981934
10632988831
10632996155
10633004334
10633011780
10633017701
10633024964
10633031983
10633039063
10633046448
10633053772
10633060791
10633067994
10633074830
10633082398
10633090699
10633098145
10633104981
10633112976
10633119507
10633127014
10633134888
10633142090
10633148438
10633155640
10633163880
10633170166
10633178589
10633186340
10633195252
10633201233
10633207947
10633215149
10633224365
10633230103
10633239258
10633244629
10633253601
10633261230
10633267822
10633273315
10633280640
10633291382
10633298279
10633303711
10633311767
10633317627
10633325500
10633332641
10633340576
10633348999
10633356323
10633363830
10633372131
10633376648
10633384948
10633391967
10633400817
10633409118
10633417358
10633422851
10633430480
10633437622
10633445007
10633450378
10633459655
10633467529
10633473998
10633481079
10633487914
10633494933
10633503417
10633508849
10633516845
10633524413
10633533874
10633542175
10633547851
10633555358
10633562255
10633569152
10633576720
10633585570
10633595824
10633601562
10633611327
10633619750
10633625548
10633634582
10633642028
10633650084
10633656920
10633664611
10633673339
10633680846
10633688353
10633695372
10633703368
10633710509
10633718016
10633725463
10633732543
10633739562
10633754393
10633762389
10633770262
10633776610
10633783751
10633792906
10633798827
10633807433
10633814635
10633824828
10633831847
10633839598
10633846556
10633853575
10633860106
10633867247
10633874876
10633882506
10633889159
10633896971
10633904845
10633911925
10633918638
10633925780
10633933592
10633941343
10633948179
10633955137
10633960936
10633968016
10633974791
10633982054
10633989866
10633998411
10634005552
10634012571
10634019407
10634026915
10634033445
10634040647
10634047727
10634055235
10634063719
10634070921
10634076597
10634083372
10634090696
10634097837
10634105894
10634115415
10634123716
10634129514
10634136839
10634143980
10634150755
10634157957
10634164915
10634174253
10634180845
10634187925
10634194761
10634201780
10634207700
10634214780
10634222959
10634230466
10634235410
10634239499
10634244687
10634248044
10634254392
10634258786
10634264829
10634270566
10634275998
10634280881
10634285337
10634295285
10634302976
10634310300
10634318906
10634325254
10634331601
10634338437
10634344907
10634351377
10634357175
10634362363
10634366574
10634371701
10634376950
10634382688
10634387753
10634393918
10634399533
10634403561
10634407285
10634413510
10634424496
10634429318
10634435849
10634440488
10634445493
10634449460
10634455624
10634458737
10634466000
10634469968
10634477902
10634483334
10634488827
10634493954
10634499203
10634503720
10634509152
10634517209
10634523007
10634529233
10634532956
10634538083
10634544491
10634549374
10634556149
10634562008
10634566830
10634570919
10634577206
10634581112
10634585995
10634591427
10634598080
10634603451
10634609433
10634613339
10634617550
10634623593
10634628598
10634634274
10634639584
10634644894
10634651669
10634657101
10634663937
10634669735
10634675717
10634680477
10634686398
10634691158
10634694882
10634699642
10634705685
10634711971
10634717464
10634722958
10634728756
10634732723
10634736874
10634742367
10634749325
10634755184
10634760494
10634766720
10634773006
10634779659
10634783932
10634791683
10634798763
10634809078
10634820675
10634829403
10634836666
10634842464
10634849056
10634858516
10634869014
10634875057
10634884639
10634890194
10634898006
10634903438
10634912899
10634919246
10634928279
10634939693
10634941951
10634951778
10634959529
10634965816
10634971736
10634978755
10634985774
10634991206
10634999324
10635007747
10635013667
10635022151
10635026607
10635033260
10635040645
10635046626
10635052058
10635058528
10635066463
10635075130
10635079280
10635087520
10635094661
10635100093
10635110103
10635114680
10635123469
10635130244
10635140071
10635146968
10635154414
10635160029
10635169307
10635175715
10635182734
10635190669
10635196528
10635206111
10635212886
10635220637
10635228877
10635235469
10635242549
10635248835
10635257441
10635262934
10635268916
10635279475
10635288508
10635294611
10635303462
10635311945
10635317805
10635324213
10635335627
10635341730
10635350764
10635357783
10635366022
10635374750
10635381159
10635390131
10635399409
10635407221
10635413202
10635419306
10635430048
10635439264
10635444758
10635453241
10635455622
10635465570
10635472712
10635481745
10635492365
10635498957
10635509088
10635511713
10635522516
10635528070
10635536371
10635545221
10635551264
10635556696
10635562128
10635571588
10635580560
10635588007
10635596796
10635603937
10635613397
10635621759
10635628351
10635636346
10635644525
10635651727
10635660028
10635665887
10635675592
10635682306
10635691217
10635697931
10635704400
10635717828
10635724664
10635736322
10635744867
10635747674
10635761285
10635766839
10635775445
10635784173
10635792718
10635801263
10635807611
10635815606
10635820428
10635827203
10635831964
10635842279
10635848016
10635853936
10635863397
10635873040
10635883050
10635890313
10635899102
10635906793
10635912591
10635917474
10635926019
10635935357
10635940911
10635947991
10635955621
10635962884
10635968560
10635974175
10635980706
10635985467
10635994744
10636000970
10636008416
10636015862
10636021294
10636028191
10636032952
10636040398
10636047600
10636052971
10636062859
10636069756
10636076409
10636081353
10636090020
10636098076
10636104424
10636110222
10636119927
10636125054
10636134087
10636142205
10636147515
10636153069
10636162102
10636170647
10636177605
10636183586
10636190117
10636198540
10636205254
10636214653
10636220634
10636226494
10636233818
10636238884
10636248527
10636254448
10636262810
10636268059
10636277519
10636284660
10636290214
10636297722
10636306877
10636312370
10636319450
10636324821
10636333061
10636341362
10636348991
10636357841
10636367607
10636374199
10636382682
10636392570
10636400138
10636408744
10636414909
10636423454
10636432731
10636440849
10636446342
10636453361
10636463065
10636470023
10636478324
10636486137
10636492362
10636500785
10636507255
10636514640
10636522208
10636527885
10636536369
10636542960
10636550101
10636559013
10636565971
10636573478
10636581473
10636589042
10636597831
10636603507
10636614310
10636621390
10636630057
10636640677
10636646720
10636654471
10636663871
10636669608
10636675223
10636681510
10636689017
10636693717
10636705985
10636711722
10636717398
10636725150
10636731131
10636738822
10636745169
10636750235
10636758170
10636765738
10636774161
10636780142
10636785208
10636790640
10636799429
10636807852
10636813590
10636821707
10636823965
10636834647
10636843130
10636848868
10636856375
10636861258
10636867972
10636872610
10636879874
10636887625
10636894034
10636903311
10636909964
10636917898
10636923330
10636931326
10636940359
10636947012
10636954763
10636960501
10636968313
10636977591
10636986929
10636992117
10637000662
10637008657
10637014212
10637022207
10637027944
10637033377
10637042471
10637051504
10637058706
10637064871
10637072927
10637080618
10637086355
10637093374
10637102163
10637108633
10637117117
10637125234
10637129568
10637137624
10637144399
10637150686
10637160940
10637165517
10637174612
10637182607
10637188894
10637197561
10637205068
10637210805
10637219533
10637224965
10637232717
10637239492
10637248098
10637256398
10637262929
10637270314
10637277883
10637283254
10637291310
10637299306
10637306630
10637311635
10637317006
10637326650
10637336904
10637343251
10637351674
10637359609
10637364064
10637372609
10637379933
10637386037
10637393666
10637401296
10637409718
10637413930
10637422047
10637430714
10637437123
10637445241
10637450490
10637459035
10637470021
10637482594
10637489857
10637499135
10637507130
10637512440
10637524891
10637529957
10637538807
10637546498
10637553822
10637560353
10637567250
10637573048
10637580677
10637586659
10637594227
10637599354
10637607472
10637615406
10637621632
10637626515
10637632740
10637640125
10637646900
10637653980
10637658375
10637666554
10637675282
10637682972
10637688831
10637695606
10637703053
10637708485
10637716419
10637724903
10637732044
10637738331
10637747669
10637754444
10637760914
10637769398
10637774525
10637784107
10637788685
10637797474
10637807178
10637814991
10637823353
10637828602
10637837757
10637842762
10637851612
10637857959
10637866016
10637873767
10637878528
10637886829
10637894214
10637902454
10637907825
10637914966
10637920215
10637928089
10637935962
10637941821
10637950488
10637957630
10637964160
10637970264
10637979968
10637985767
10637993152
10638000232
10638005420
10638012317
10638020312
10638027026
10638031970
10638041797
10638046619
10638055286
10638062121
10638070422
10638076526
10638084338
10638092273
10638100146
10638105823
10638114062
10638119433
10638129199
10638133899
10638142505
10638149829
10638156298
10638166552
10638171435
10638179980
10638186450
10638195117
10638202075
10638210131
10638215624
10638223925
10638233080
10638239611
10638245043
10638250781
10638260119
10638269091
10638276537
10638282031
10638290698
10638300280
10638306872
10638314196
10638321642
10638330920
10638337206
10638343127
10638353808
10638362597
10638370714
10638377917
10638388903
10638398424
10638408007
10638414538
10638420702
10638427599
10638432482
10638441881
10638447741
10638456957
10638463793
10638471178
10638478563
10638482958
10638488024
10638496569
10638502977
10638513536
10638520311
10638529039
10638534593
10638540941
10638547289
10638552477
10638560533
10638566271
10638572740
10638583238
10638589525
10638597093
10638605394
10638613573
10638621812
10638628465
10638633714
10638642259
10638647569
10638655321
10638664293
10638671312
10638680589
10638687181
10638693834
10638701829
10638707261
10638715013
10638724229
10638733812
10638740525
10638748338
10638752671
10638758897
10638768296
10638774461
10638783067
10638788804
10638794602
10638804978
10638811631
10638818955
10638824693
10638829942
10638838975
10638847886
10638854356
10638860459
10638869737
10638877061
10638882188
10638890122
10638895737
10638901292
10638908555
10638913438
10638921983
10638928757
10638937791
10638943101
10638951523
10638955552
10638963120
10638970322
10638975205
10638980698
10638989182
10638997422
10639004746
10639010850
10639017807
10639022324
10639030014
10639037095
10639043137
10639050217
10639057297
10639062912
10639072556
10639080796
10639087570
10639096787
10639103195
10639111923
10639118698
10639127243
10639132981
10639141525
10639150192
10639156052
10639163620
10639169174
10639176682
10639189133
10639196457
10639204391
10639214035
10639222092
10639229050
10639239853
10639247055
10639256149
10639265854
10639274093
10639283676
10639289963
10639296921
10639301986
10639309250
10639315353
10639321823
10639328598
10639333908
10639342758
10639349777
10639357956
10639365524
10639370346
10639376510
10639381332
10639388473
10639396347
10639403366
10639412277
10639422286
10639426559
10639434860
10639441879
10639447555
10639455184
10639459274
10639467147
10639475021
10639481429
10639488326
10639496627
10639502975
10639510665
10639516586
10639525252
10639531539
10639540267
10639546493
10639552962
10639561568
10639570418
10639575301
10639583724
10639590377
10639596786
10639603255
10639611251
10639620101
10639627486
10639633529
10639642867
10639651107
10639656783
10639664595
10639671370
10639680648
10639687178
10639692122
10639700728
10639709029
10639714705
10639722884
10639731063
10639737471
10639746504
10639751814
10639758223
10639766524
10639772505
10639782698
10639791060
10639796187
10639801375
10639812666
10639820174
10639828902
10639835249
10639844038
10639849348
10639855330
10639863569
10639872664
10639881453
10639888655
10639897261
10639902510
10639909529
10639916853
10639922529
10639929853
10639935347
10639943403
10639952681
10639960371
10639965376
10639973921
10639980757
10639989546
10639995893
10640000593
10640008955
10640016340
10640024885
10640033247
10640039228
10640048445
10640056135
10640065901
10640073042
10640081648
10640090559
10640099348
10640112104
10640120161
10640131818
10640137617
10640146101
10640150495
10640158124
10640165388
10640172773
10640178693
10640183515
10640188642
10640194196
10640199567
10640203657
10640210859
10640215619
10640220319
10640226117
10640231061
10640234418
10640241071
10640244916
10640251935
10640257611
10640262555
10640267987
10640272931
10640278424
10640282941
10640288556
10640294355
10640300763
10640305402
10640310163
10640316388
10640321820
10640327130
10640331708
10640337689
10640344037
10640350324
10640355573
10640361615
10640367291
10640373151
10640377728
10640383893
10640390607
10640396344
10640402203
10640407147
10640413190
10640419537
10640425702
10640430463
10640436322
10640441754
10640448224
10640454022
10640459027
10640464337
10640471112
10640474835
10640480755
10640486676
10640493268
10640499920
10640505841
10640512066
10640516949
10640522076
10640528180
10640533184
10640538556
10640545697
10640551556
10640557110
10640560955
10640569195
10640573956
10640579266
10640585186
10640590557
10640598126
10640603924
10640607769
10640613445
10640620587
10640626202
10640631512
10640636822
10640641705
10640648235
10640654095
10640660198
10640665325
10640671307
10640676434
10640682049
10640689190
10640696392
10640703716
10640710186
10640717510
10640724224
10640732342
10640738323
10640745037
10640750591
10640755047
10640760113
10640766216
10640770244
10640776714
10640782146
10640787212
10640794353
10640800152
10640805523
10640810039
10640815288
10640820110
10640824688
10640830791
10640835857
10640842022
10640846904
10640850261
10640858379
10640862224
10640869182
10640875408
10640880718
10640886272
10640891155
10640896526
10640901653
10640905681
10640912273
10640915691
10640922466
10640928386
10640933940
10640938762
10640945110
10640950115
10640957378
10640963054
10640968059
10640976177
10640981487
10640984966
10640990825
10640995586
10641001506
10641006145
10641009502
10641016215
10641022563
10641028972
10641034648
10641041240
10641047526
10641052531
10641058391
10641063518
10641070170
10641075053
10641080363
10641085795
10641090373
10641096721
10641102519
10641108317
10641114238
10641121440
10641125529
10641131327
10641137309
10641142375
10641147685
10641152507
10641158366
10641164469
10641171000
10641176676
10641182597
10641189067
10641193705
10641200236
10641204142
10641211588
10641217509
10641223002
10641228251
10641236002
10641240702
10641246623
10641251750
10641257426
10641261698
10641269328
10641275797
10641279826
10641288432
10641293742
10641298380
10641305033
10641310953
10641318034
10641323649
10641331522
10641338175
10641343485
10641349467
10641354227
10641359354
10641364420
10641370402
10641375773
10641381083
10641385782
10641390421
10641396219
10641400858
10641407267
10641412211
10641418070
10641422953
10641426554
10641433023
10641438700
10641443521
10641448832
10641454630
10641461161
10641465982
10641471292
10641476725
10641479959
10641487039
10641491678
10641497110
10641502970
10641510111
10641514017
10641520670
10641525736
10641531534
10641535990
10641541483
10641548258
10641553384
10641559915
10641565836
10641572183
10641577066
10641582620
10641587747
10641593546
10641599954
10641605753
10641610757
10641616861
10641621988
10641628152
10641634622
10641640787
10641647439
10641654214
10641659402
10641665506
10641671731
10641675577
10641682962
10641688028
10641691751
10641698587
10641706826
10641711709
10641715982
10641722512
10641728433
10641733011
10641738809
10641744119
10641750100
10641757119
10641761636
10641767434
10641772256
10641778665
10641783792
10641790322
10641795083
10641801980
10641806924
10641813760
10641817117
10641823892
10641828469
10641833596
10641841958
10641847573
10641853860
10641859658
10641865273
10641869607
10641875161
10641881814
10641889687
10641896462
10641902444
10641910012
10641917458
10641924660
10641931740
10641938821
10641943642
10641950783
10641955605
10641961648
10641965310
10641970620
10641976113
10641981362
10641989358
10641994240
10641999489
10642004006
10642009255
10642015175
10642018410
10642024025
10642031411
10642036293
10642041054
10642046914
10642051430
10642054787
10642062172
10642065529
10642070961
10642078652
10642083412
10642088906
10642093300
10642098793
10642103920
10642109719
10642114906
10642121498
10642128029
10642133400
10642139076
10642143715
10642149819
10642154823
10642162392
10642167275
10642173317
10642178993
10642185280
10642189735
10642195351
10642201698
10642206947
10642210731
10642217750
10642226601
10642232155
10642237465
10642241981
10642248024
10642253639
10642257850
10642263771
10642271156
10642276588
10642281837
10642288673
10642294166
10642298256
10642303688
10642309486
10642329139
10642335243
10642340492
10642344276
10642350502
10642355445
10642362281
10642367836
10642372047
10642379982
10642386634
10642392005
10642398719
10642404945
10642412879
10642418495
10642428932
10642438758
10642444190
10642452308
10642461036
10642467323
10642474281
10642482337
10642488197
10642496375
10642503516
10642509864
10642520118
10642529212
10642535743
10642544654
10642551856
10642559485
10642569739
10642577308
10642584571
10642593909
10642600623
10642606421
10642611609
10642620887
10642626380
10642633033
10642642859
10642650061
10642657202
10642664710
10642671057
10642677344
10642685340
10642690528
10642697913
10642705481
10642711035
10642719641
10642727576
10642733679
10642738135
10642745703
10642751379
10642758826
10642766272
10642774634
10642781592
10642790442
10642796912
10642803198
10642809607
10642815405
10642820898
10642827734
10642835852
10642841772
10642848120
10642855871
10642863135
10642868323
10642876074
10642881323
10642890905
10642896338
10642906897
10642916235
10642922644
10642929541
10642937048
10642942602
10642951269
10642958593
10642964819
10642974218
10642979772
10642987646
10642995825
10643002539
10643007482
10643016027
10643023596
10643028784
10643036718
10643046179
10643053991
10643058874
10643067846
10643075048
10643080175
10643087804
10643093237
10643102392
10643112463
10643118688
10643127050
10643133947
10643142675
10643147924
10643153051
10643161840
10643169896
10643177831
10643183690
10643191320
10643199254
10643205663
10643212072
10643218297
10643225255
10643233251
10643238805
10643246251
10643255407
10643262059
10643268041
10643276280
10643281652
10643289586
10643295934
10643302098
10643310033
10643319005
10643326451
10643334264
10643339818
10643346288
10643355260
10643362584
10643367223
10643376622
10643385716
10643396336
10643402806
10643411107
10643419896
10643427220
10643433812
10643442967
10643451207
10643458653
10643466588
10643474705
10643478245
10643485142
10643492222
10643496922
10643503148
10643508641
10643513157
10643520237
10643525608
10643531041
10643536351
10643541661
10643546299
10643551243
10643556492
10643562352
10643568821
10643573826
10643577671
10643584019
10643590000
10643597141
10643602390
10643610752
10643616673
10643622654
10643626743
10643632603
10643637974
10643643040
10643648594
10643653294
10643659397
10643666721
10643672642
10643678074
10643683811
10643687656
10643694797
10643698276
10643705723
10643712437
10643717808
10643721531
10643727878
10643733555
10643739170
10643744541
10643749851
10643757358
10643762607
10643768467
10643774936
10643781589
10643786045
10643791294
10643795322
10643803928
10643810703
10643816440
10643820163
10643825840
10643832065
10643837497
10643843418
10643848789
10643855442
10643861118
10643866977
10643873142
10643879672
10643884311
10643890171
10643896152
10643901706
10643908054
10643913791
