10682816035
10682820735
10682825435
10682829280
10682833735
10682838130
10682842952
10682847712
10682853083
10682857600
10682862544
10682866816
10682871455
10682876704
10682882075
10682888118
10682892695
10682897273
10682902217
10682906916
10682911860
10682917658
10682923091
10682929072
10682934443
10682941401
10682946955
10682953303
10682959528
10682965388
10682971858
10682977839
10682984492
10682990473
10682996638
10683003596
10683009028
10683016962
10683022334
10683030451
10683036311
10683043757
10683050654
10683057856
10683063898
10683070307
10683076044
10683081354
10683087397
10683094294
10683101130
10683105524
10683113032
10683119684
10683124445
10683129572
10683135614
10683139399
10683145746
10683152826
10683158136
10683162531
10683168451
10683173944
10683179804
10683186579
10683191950
10683198542
10683205622
10683210871
10683218256
10683222589
10683230524
10683236811
10683243646
10683249567
10683256159
10683260919
10683268305
10683273248
10683280512
10683286066
10683291803
10683297723
10683303156
10683310358
10683315424
10683323907
10683329279
10683335748
10683342279
10683346735
10683353143
10683359796
10683366693
10683372369
10683378473
10683384149
10683390191
10683395257
10683400506
10683406305
10683411615
10683418695
10683423639
10683430780
10683436944
10683443536
10683450433
10683456353
10683462762
10683467462
10683473748
10683479425
10683487115
10683491937
10683498284
10683504937
10683509637
10683516961
10683522515
10683529717
10683536126
10683542596
10683548394
10683553277
10683560052
10683565118
10683571954
10683578301
10683585809
10683592950
10683599053
10683605096
10683610528
10683617120
10683622002
10683629632
10683635796
10683642754
10683648553
10683654290
10683660088
10683667046
10683673333
10683680230
10683687737
10683693352
10683700982
10683705620
10683715020
10683720391
10683728936
10683735283
10683742241
10683748406
10683754509
10683761773
10683768242
10683775017
10683780510
10683787712
10683794915
10683801873
10683808525
10683815850
10683823052
10683829216
10683836235
10683841850
10683850884
10683856377
10683863701
10683872734
10683880913
10683888725
10683897270
10683903679
10683911186
10683919426
10683926689
10683934502
10683942436
10683949028
10683956535
10683963310
10683971977
10683978264
10683986625
10683993156
10683999260
10684005668
10684011833
10684020134
10684025932
10684034233
10684040580
10684047905
10684055656
10684062675
10684068412
10684077385
10684081779
10684090873
10684096916
10684104240
10684109184
10684118278
10684126029
10684132316
10684140373
10684146659
10684154167
10684160331
10684170158
10684179679
10684186576
10684194206
10684202506
10684208060
10684215568
10684223930
10684232780
10684241508
10684248893
10684256705
10684263053
10684270377
10684276359
10684283866
10684289786
10684300590
10684306754
10684315177
10684321647
10684329886
10684336844
10684344352
10684352103
10684359244
10684367545
10684373099
10684379996
10684388114
10684393607
10684401786
10684408316
10684417227
10684422476
10684431204
10684439505
10684446219
10684454032
10684460135
10684469656
10684476981
10684482962
10684489676
10684497061
10684503226
10684510550
10684516592
10684527212
10684532828
10684542044
10684549612
10684556692
10684563284
10684570242
10684574759
10684584280
10684591299
10684599844
10684607901
10684615103
10684623159
10684629934
10684638968
10684646963
10684655081
10684661123
10684669973
10684676199
10684684439
10684690603
10684699087
10684706167
10684715383
10684722708
10684730154
10684734854
10684742910
10684749258
10684759390
10684764761
10684772024
10684778371
10684787222
10684791799
10684799978
10684807058
10684817129
10684823354
10684831594
10684838674
10684844289
10684851247
10684858571
10684863393
10684873647
10684881399
10684887502
10684894521
10684900197
10684906545
10684915456
10684924001
10684930776
10684938100
10684944204
10684950429
10684961110
10684965444
10684975759
10684984914
10684993276
10684999135
10685007314
10685014455
10685022695
10685029408
10685036366
10685042226
10685050404
10685058156
10685065053
10685073964
10685079396
10685086598
10685094411
10685103322
10685111806
10685117848
10685125661
10685132313
10685140980
10685148549
10685155141
10685163197
10685170582
10685176747
10685186513
10685194020
10685200184
10685208180
10685213978
10685223256
10685231862
10685238636
10685246388
10685253041
10685259327
10685266713
10685273426
10685281117
10685288258
10685296070
10685303639
10685309620
10685316151
10685325001
10685332508
10685341114
10685348072
10685356434
10685363575
10685368885
10685375355
10685384571
10685391895
10685400196
10685407948
10685413502
10685420460
10685429432
10685434925
10685445789
10685454639
10685462696
10685468555
10685476002
10685482899
10685489429
10685496998
10685505726
10685514332
10685522754
10685528309
10685535389
10685542347
10685549366
10685556629
10685564746
10685571155
10685580493
10685586048
10685595569
10685603931
10685611255
10685620166
10685628406
10685639270
10685646716
10685657031
10685661975
10685671069
10685678211
10685685962
10685690479
10685699756
10685707202
10685715442
10685722339
10685729297
10685733691
10685742724
10685749988
10685758594
10685767627
10685773791
10685781543
10685789294
10685796985
10685804675
10685814258
10685822497
10685830188
10685836535
10685843859
10685850146
10685858081
10685865283
10685873278
10685881030
10685887866
10685894274
10685901477
10685907702
10685916247
10685924182
10685931201
10685939074
10685948962
10685958239
10685965441
10685973498
10685982104
10685989245
10685997607
10686004931
10686011217
10686018420
10686025561
10686030199
10686039294
10686044604
10686054613
10686062914
10686070849
10686075365
10686084337
10686089037
10686097826
10686106432
10686115038
10686120653
10686129137
10686134874
10686143297
10686151232
10686157335
10686166796
10686175585
10686181932
10686190111
10686197862
10686204943
10686212389
10686219591
10686225572
10686234056
10686242296
10686249498
10686256700
10686262926
10686270616
10686279100
10686287828
10686294481
10686302599
10686309190
10686316209
10686324083
10686329515
10686336778
10686344957
10686353197
10686360704
10686367235
10686374254
10686380418
10686387803
10686394029
10686400804
10686410753
10686418077
10686424119
10686431321
10686437974
10686444688
10686455186
10686462693
10686469834
10686477220
10686483384
10686490403
10686499192
10686504930
10686512315
10686519761
10686527574
10686534959
10686544358
10686552720
10686559983
10686568223
10686577866
10686584763
10686591843
10686597947
10686606919
10686613511
10686620713
10686627122
10686634873
10686643967
10686649888
10686656052
10686663437
10686670579
10686678513
10686685410
10686693284
10686700120
10686708237
10686714524
10686721421
10686729599
10686734299
10686742905
10686747239
10686756333
10686762986
10686770188
10686777146
10686785935
10686793808
10686802109
10686811264
10686819077
10686826584
10686834091
10686842392
10686849045
10686857590
10686865158
10686874130
10686879562
10686890121
10686895004
10686903854
10686911484
10686918198
10686925461
10686934006
10686943527
10686950363
10686955612
10686963302
10686970505
10686977463
10686986435
10686994980
10687002670
10687009567
10687017135
10687024704
10687030197
10687038070
10687048507
10687053634
10687061264
10687069686
10687076461
10687083358
10687091720
10687100509
10687107894
10687114669
10687122238
10687128585
10687134994
10687141280
10687149581
10687156112
10687165328
10687173141
10687179488
10687187057
10687193038
10687199203
10687207198
10687213851
10687222396
10687230025
10687236312
10687242538
10687250533
10687257186
10687262496
10687271224
10687279464
10687284713
10687292891
10687298568
10687305831
10687313887
10687321578
10687328048
10687336654
10687343978
10687351424
10687358443
10687366194
10687372786
10687380049
10687386824
10687395919
10687402510
10687411299
10687418074
10687425093
10687431319
10687438582
10687444685
10687456221
10687462569
10687470503
10687476973
10687484419
10687490889
10687498762
10687508528
10687517866
10687526045
10687531904
10687538985
10687546370
10687556563
10687562971
10687572188
10687578535
10687586592
10687594526
10687602766
10687610457
10687619978
10687626936
10687636030
10687643904
10687650801
10687658247
10687664717
10687674116
10687681929
10687690595
10687698408
10687707014
10687712629
10687720625
10687728681
10687735151
10687743452
10687751203
10687758711
10687765119
10687772016
10687780134
10687786420
10687793684
10687800397
10687809736
10687818037
10687824628
10687831708
10687838422
10687845380
10687851240
10687857709
10687865644
10687872785
10687880536
10687886640
10687895063
10687902387
10687908979
10687915998
10687924848
10687929853
10687938337
10687944684
10687952375
10687959272
10687968793
10687976850
10687984967
10687992841
10687999860
10688007062
10688014264
10688021222
10688028546
10688035565
10688046002
10688050763
10688059979
10688065228
10688074323
10688078778
10688086774
10688093060
10688103558
10688108563
10688117840
10688124615
10688131634
10688137921
10688144879
10688150616
10688162030
10688167035
10688175641
10688181744
10688188885
10688195599
10688204876
10688211590
10688220196
10688226788
10688234967
10688240094
10688250592
10688256573
10688264752
10688271160
10688280621
10688288372
10688296063
10688303143
10688311199
10688316876
10688324078
10688333904
10688340679
10688350079
10688357647
10688364483
10688371319
10688381390
10688387676
10688395000
10688403118
10688410198
10688417644
10688426250
10688431621
10688439434
10688448406
10688455120
10688462322
10688470745
10688478374
10688485454
10688494060
10688503460
10688511699
10688518718
10688526470
10688534404
10688541301
10688548564
10688555339
10688563213
10688571819
10688577373
10688583965
10688591899
10688598491
10688606365
10688614726
10688620342
10688629375
10688636760
10688642314
10688649761
10688657695
10688663493
10688672282
10688678508
10688686259
10688693889
10688702006
10688707255
10688716411
10688722514
10688730815
10688737468
10688746379
10688752055
10688761027
10688766520
10688773845
10688781169
10688788493
10688797648
10688805278
10688813090
10688819316
10688826213
10688834513
10688840251
10688848613
10688854472
10688862895
10688870768
10688876750
10688883830
10688890910
10688898295
10688904399
10688913615
10688921366
10688927897
10688935526
10688943339
10688949931
10688956522
10688964091
10688972269
10688978983
10688986430
10688992838
10689000162
10689009806
10689018351
10689025797
10689033671
10689040323
10689049418
10689056620
10689064310
10689072184
10689080668
10689089213
10689097452
10689104166
10689110880
10689120523
10689127970
10689133463
10689139811
10689150186
10689158304
10689164163
10689171183
10689178324
10689185465
10689192056
10689198892
10689208231
10689215433
10689221842
10689228128
10689235452
10689241739
10689249185
10689257547
10689264383
10689271280
10689278299
10689285074
10689293314
10689299539
10689307168
10689313333
10689322732
10689329324
10689337564
10689343789
10689351297
10689357339
10689364725
10689370889
10689380777
10689386941
10689394632
10689400918
10689410684
10689418252
10689426553
10689433023
10689441812
10689450051
10689458657
10689464578
10689473306
10689479409
10689489053
10689500710
10689507668
10689517129
10689523477
10689531594
10689539285
10689545449
10689553994
10689560586
10689569314
10689575478
10689583413
10689590554
10689597695
10689605569
10689615212
10689621682
10689628640
10689635598
10689643349
10689650063
10689657265
10689663979
10689674477
10689679360
10689687966
10689694314
10689704628
10689712014
10689719521
10689727883
10689735146
10689743080
10689749001
10689758034
10689764687
10689774269
10689781044
10689789955
10689797585
10689804848
10689812538
10689818642
10689826027
10689833229
10689839577
10689850014
10689857277
10689863991
10689871498
10689878944
10689885902
10689894875
10689900856
10689910622
10689918861
10689926491
10689933449
10689939125
10689946937
10689952675
10689963173
10689969276
10689978492
10689985634
10689992408
10689999305
10690008217
10690017433
10690024025
10690032569
10690041175
10690049720
10690058387
10690067848
10690075721
10690081825
10690089271
10690097511
10690102882
10690111060
10690116493
10690124610
10690128883
10690140540
10690148353
10690153968
10690160743
10690169532
10690176917
10690183387
10690190162
10690200294
10690208045
10690215064
10690221778
10690229651
10690234962
10690243262
10690251319
10690259437
10690265540
10690274085
10690279761
10690287818
10690297461
10690302955
10690311377
10690319312
10690326087
10690333350
10690342566
10690347144
10690355994
10690362708
10690371558
10690376380
10690384436
10690390540
10690399451
10690406043
10690413672
10690419959
10690431067
10690436194
10690444922
10690451819
10690459021
10690466223
10690471716
10690478247
10690488745
10690494055
10690501318
10690508093
10690517432
10690523779
10690531347
10690537878
10690547339
10690553259
10690561133
10690567358
10690575232
10690581823
10690589087
10690594641
10690603308
10690612646
10690619177
10690626318
10690633886
10690641272
10690650610
10690657385
10690667333
10690674963
10690683142
10690689977
10690696386
10690706091
10690713903
10690721410
10690728430
10690735449
10690743322
10690751257
10690756872
10690764989
10690775243
10690782201
10690791357
10690798437
10690804845
10690811986
10690819555
10690827489
10690835363
10690842748
10690849584
10690856664
10690863927
10690871129
10690878148
10690883214
10690892492
10690900243
10690908117
10690915319
10690921849
10690929235
10690936132
10690942662
10690951451
10690958837
10690963964
10690970250
10690978551
10690985082
10690991307
10690997716
10691006932
10691013951
10691022618
10691029210
10691037022
10691043370
10691049229
10691057469
10691064610
10691071202
10691078954
10691087376
10691093968
10691099644
10691107396
10691113438
10691121434
10691129613
10691136998
10691143284
10691152257
10691161412
10691169774
10691176426
10691186009
10691191990
10691200657
10691209263
10691215794
10691224949
10691231358
10691241673
10691249363
10691256077
10691263401
10691271397
10691278660
10691289280
10691297337
10691306065
10691314366
10691320286
10691325718
10691335423
10691344639
10691350803
10691360447
10691365208
10691374363
10691381260
10691389011
10691396152
10691402500
10691408970
10691418857
10691425449
10691433201
10691439792
10691446506
10691452976
10691460788
10691468845
10691477695
10691484531
10691491916
10691498264
10691505405
10691513462
10691519199
10691527561
10691536411
10691543125
10691549900
10691557895
10691563999
10691571872
10691579074
10691585483
10691594150
10691601352
10691608371
10691613925
10691621982
10691627780
10691636691
10691642123
10691651584
10691657321
10691666110
10691672885
10691680148
10691686069
10691694125
10691701144
10691711459
10691719272
10691725863
10691733432
10691741061
10691745578
10691754062
10691760409
10691770236
10691774997
10691784335
10691788913
10691797641
10691805453
10691813082
10691822482
10691831088
10691839450
10691845126
10691852145
10691859286
10691866671
10691873568
10691881503
10691888766
10691897799
10691904879
10691911959
10691918978
10691926486
10691934847
10691941195
10691950167
10691959078
10691967562
10691974154
10691984103
10691991305
10691999666
10692008883
10692016695
10692023348
10692028475
10692037630
10692045138
10692051058
10692057467
10692068819
10692074190
10692083162
10692090364
10692097445
10692102449
10692111238
10692119661
10692128084
10692135775
10692142671
10692150179
10692157381
10692164278
10692170137
10692176363
10692186373
10692191133
10692199983
10692207247
10692213777
10692220308
10692227022
10692233797
10692242403
10692250398
10692256807
10692264741
10692270418
10692276216
10692284273
10692292329
10692299531
10692306184
10692314363
10692320955
10692328157
10692335176
10692342561
10692348543
10692356355
10692362275
10692372041
10692378877
10692388215
10692395845
10692403779
10692408723
10692419465
10692426423
10692432649
10692440339
10692447297
10692454377
10692462251
10692468476
10692477387
10692483003
10692490449
10692497773
10692504670
10692512177
10692519746
10692524079
10692535127
10692542512
10692549043
10692554841
10692562775
10692570161
10692576874
10692581330
10692592927
10692600312
10692607270
10692614289
10692621491
10692629853
10692638459
10692646882
10692654938
10692662873
10692671051
10692678742
10692684540
10692691986
10692700226
10692708588
10692717865
10692724701
10692732270
10692738617
10692745758
10692754975
10692760895
10692769684
10692776947
10692785126
10692790741
10692798126
10692805267
10692812592
10692818390
10692827789
10692833710
10692841827
10692847626
10692856476
10692862091
10692870575
10692893890
10692900726
10692909210
10692916595
10692924591
10692930206
10692938568
10692947235
10692953644
10692962372
10692968658
10692977203
10692983490
10692989654
10692998016
10693006439
10693014740
10693022979
10693028717
10693036468
10693044097
10693050811
10693057708
10693066253
10693074676
10693082549
10693090179
10693096038
10693104034
10693111114
10693119354
10693128143
10693134063
10693140838
10693147369
10693155975
10693162810
10693177398
10693186919
10693195708
10693203460
10693210052
10693217803
10693225921
10693231780
10693240752
10693247771
10693256316
10693264129
10693270598
10693277984
10693286284
10693291655
10693299346
10693307463
10693316069
10693323516
10693329924
10693337371
10693344634
10693352996
10693361235
10693368559
10693377654
10693385649
10693391875
10693399016
10693407378
10693412688
10693422148
10693431975
10693437956
10693447356
10693453337
10693461211
10693470549
10693478117
10693485625
10693495573
10693502959
10693511503
10693519194
10693526945
10693534208
10693542692
10693549833
10693556059
10693564299
10693573149
10693579741
10693587004
10693595366
10693601347
10693610136
10693618071
10693624235
10693631254
10693638517
10693645719
10693652738
10693660917
10693668913
10693674894
10693683073
10693690214
10693696928
10693704008
10693709928
10693716093
10693726530
10693734159
10693741056
10693748075
10693754911
10693759489
10693767240
10693773954
10693783231
10693790006
10693798490
10693805875
10693812955
10693820035
10693825895
10693832181
10693843107
10693851285
10693857633
10693864835
10693872342
10693879667
10693886014
10693892606
10693900663
10693908170
10693915128
10693921414
10693929654
10693936246
10693943631
10693949857
10693961270
10693968900
10693976346
10693983487
10693990445
10693995999
10694004483
10694013944
10694021939
10694027921
10694034940
10694044095
10694049832
10694058804
10694064603
10694070584
10694080899
10694088711
10694094876
10694102872
10694110501
10694120022
10694125210
10694137906
10694145535
10694152188
10694159817
10694166958
10694171780
10694179715
10694185818
10694195828
10694204556
10694213101
10694221157
10694228360
10694233914
10694241787
10694250149
10694258206
10694265957
10694274136
10694279690
10694289089
10694294766
10694302761
10694312161
10694320217
10694327602
10694334316
10694341763
10694348232
10694357326
10694361904
10694371303
10694379299
10694387295
10694393276
10694400722
10694407802
10694415371
10694423427
10694430568
10694438747
10694445217
10694452297
10694458950
10694466274
10694474208
10694480007
10694492336
10694498073
10694505397
10694514919
10694521999
10694531581
10694536220
10694547450
10694554836
10694563136
10694570278
10694576869
10694584194
10694592311
10694598781
10694607814
10694613612
10694622340
10694627589
10694636623
10694645412
10694651820
10694660670
10694669032
10694675197
10694683803
10694691371
10694697108
10694704371
10694711207
10694718898
10694726954
10694732631
10694741237
10694748805
10694756862
10694762355
10694771083
10694777430
10694785060
10694793238
10694800196
10694807215
10694814723
10694820277
10694828456
10694836146
10694844813
10694850855
10694858546
10694865565
10694872462
10694880091
10694886744
10694894434
10694902430
10694908411
10694916102
10694923243
10694930750
10694939173
10694947291
10694955531
10694964320
10694972376
10694978785
10694987879
10694995020
10695003077
10695009180
10695017054
10695024683
10695033045
10695040613
10695046229
10695054834
10695062708
10695071863
10695076746
10695084558
10695091089
10695099024
10695105005
10695113245
10695119593
10695127405
10695134912
10695142420
10695148584
10695156275
10695162744
10695170191
10695177027
10695187464
10695194360
10695202417
10695208948
10695215845
10695222559
10695230432
10695237085
10695244714
10695254053
10695261865
10695267480
10695276025
10695283594
10695290307
10695296045
10695305505
10695313562
10695319726
10695327295
10695334436
10695341577
10695349878
10695356958
10695365564
10695371667
10695380334
10695388025
10695393640
10695400964
10695408410
10695414880
10695424829
10695432580
10695438256
10695445642
10695452966
10695460595
10695467553
10695475121
10695482751
10695490563
10695498498
10695503930
10695511987
10695518212
10695525414
10695534631
10695541650
10695549279
10695557580
10695563622
10695570641
10695579003
10695586877
10695595055
10695602990
10695610863
10695617394
10695624718
10695631493
10695638817
10695647057
10695652916
10695662133
10695668297
10695676232
10695684716
10695690697
10695698876
10695705956
10695714379
10695722679
10695729576
10695737206
10695744530
10695752403
10695757836
10695765404
10695769859
10695780785
10695788048
10695794884
10695799950
10695810021
10695817223
10695822472
10695830101
10695839806
10695847008
10695853294
10695860374
10695868309
10695875511
10695881248
10695889244
10695894859
10695903160
10695911217
10695919273
10695925987
10695933433
10695939598
10695949791
10695958213
10695966636
10695974388
10695980491
10695987632
10695994712
10696002891
10696010948
10696017234
10696025596
10696031578
10696040428
10696045616
10696054222
10696062583
10696069053
10696077720
10696083946
10696092368
10696098106
10696106467
10696112388
10696118308
10696127952
10696136924
10696143150
10696151572
10696159446
10696166892
10696174522
10696182883
10696190940
10696198081
10696203513
10696209922
10696217185
10696225181
10696232932
10696239768
10696247947
10696258811
10696267783
10696274314
10696281882
10696290488
10696299826
10696307212
10696315940
10696322592
10696330283
10696337546
10696344626
10696349082
10696358847
10696365439
10696374228
10696382712
10696390280
10696397849
10696404501
10696413229
10696424826
10696431906
10696438132
10696446310
10696453757
10696461813
10696470663
10696478781
10696486288
10696493735
10696501486
10696508017
10696515158
10696522116
10696530417
10696537375
10696544760
10696552450
10696558004
10696566427
10696573874
10696581503
10696587728
10696597006
10696605246
10696611532
10696618734
10696626425
10696633932
10696640402
10696648153
10696657064
10696665487
10696673300
10696680624
10696687338
10696691854
10696699484
10696705953
10696716085
10696723714
10696729147
10696736105
10696743368
10696750143
10696760030
10696766256
10696777181
10696785299
10696791707
10696798788
10696804769
10696811666
10696820882
10696825216
10696835714
10696843160
10696850667
10696857747
10696863607
10696870504
10696878316
10696886739
10696894673
10696902242
10696908528
10696916097
10696923665
10696930501
10696937398
10696945149
10696952046
10696960103
10696966756
10696973775
10696980000
10696987203
10696994466
10697002522
10697009663
10697017171
10697024617
10697031880
10697038899
10697044636
10697055196
10697062764
10697070882
10697079060
10697086140
10697094136
10697101704
10697108540
10697115437
10697123860
10697131855
10697139790
10697146992
10697155720
10697162617
10697169331
10697175373
10697185078
10697192219
10697202107
10697209614
10697216877
10697224568
10697230915
10697238484
10697245747
10697252339
10697261067
10697267597
10697275410
10697282429
10697289448
10697298603
10697305256
10697313435
10697321918
10697330219
10697338337
10697346577
10697354389
10697361042
10697368488
10697376240
10697383381
10697389362
10697397053
10697405170
10697411274
10697419880
10697427265
10697434894
10697442463
10697448383
10697454059
10697462726
10697470783
10697476642
10697485370
10697491169
10697498188
10697506549
10697512104
10697519367
10697525714
10697535053
10697541156
10697548480
10697555744
10697562152
10697569293
10697577289
10697583148
10697591327
10697599262
10697606586
10697614215
10697620563
10697627704
10697634357
10697642535
10697649615
10697657428
10697663714
10697671100
10697678241
10697685016
10697692645
10697701129
10697710101
10697715899
10697723529
10697731036
10697738116
10697746112
10697753070
10697757830
10697767779
10697776751
10697784259
10697790789
10697797747
10697804095
10697812274
10697818621
10697830157
10697838153
10697844195
10697851519
10697859454
10697866961
10697874224
10697882830
10697891619
10697897356
10697905535
10697912676
10697920977
10697926775
10697935015
10697940874
10697949358
10697957720
10697963335
10697970721
10697978106
10697983477
10697991900
10697998186
10698007219
10698012774
10698019732
10698026751
10698033465
10698040850
10698048052
10698056353
10698063372
10698070940
10698079119
10698084673
10698092363
10698099565
10698105608
10698113359
10698120256
10698127703
10698136247
10698141741
10698149858
10698157060
10698163408
10698171098
10698177873
10698183489
10698191057
10698198564
10698205949
10698212785
10698219438
10698226823
10698234270
10698241777
10698248796
10698253374
10698261125
10698269121
10698275651
10698281755
10698292009
10698298478
10698305559
10698314409
10698322343
10698329850
10698337297
10698343217
10698352922
10698360490
10698366471
10698373552
10698380754
10698387284
10698394242
10698401994
10698411271
10698417802
10698425370
10698436112
10698443498
10698448808
10698457414
10698463212
10698473039
10698480485
10698488053
10698496049
10698502030
10698510209
10698518449
10698525468
10698534074
10698540665
10698549454
10698554764
10698563309
10698569047
10698576676
10698585404
10698592667
10698600724
10698608292
10698616715
10698624955
10698631913
10698639420
10698649552
10698658768
10698664933
10698673172
10698681412
10698690079
10698695938
10698705338
10698713394
10698720719
10698727371
10698736527
10698743546
10698751846
10698757950
10698767166
10698772904
10698782242
10698787735
10698796585
10698801773
10698809097
10698818680
10698825760
10698833389
10698841141
10698850235
10698857132
10698867203
10698875137
10698883682
10698890884
10698898025
10698905105
10698912124
10698917556
10698925186
10698932510
10698941848
10698948074
10698955703
10698962600
10698970352
10698976638
10698982986
10698990249
10698996841
10699003799
10699011306
10699018814
10699025772
10699033157
10699041152
10699047500
10699055679
10699062026
10699069228
10699075393
10699081008
10699089553
10699096938
10699104018
10699111831
10699117812
10699122939
10699129409
10699137221
10699145461
10699152785
10699159560
10699166335
10699174758
10699179397
10699185439
10699193068
10699199904
10699205031
10699214370
10699221328
10699228347
10699236159
10699242873
10699250136
10699259169
10699266921
10699272597
10699282729
10699289260
10699296706
10699303115
10699313918
10699320571
10699329909
10699337416
10699345534
10699353407
10699360487
10699366469
10699375990
10699384169
10699389784
10699397353
10699404982
10699410475
10699417555
10699425124
10699432509
10699440810
10699447829
10699455031
10699461806
10699469130
10699475355
10699482924
10699490919
10699498305
10699504896
10699512037
10699519056
10699526198
10699534926
10699539503
10699551588
10699557508
10699564405
10699571913
10699579664
10699584852
10699593275
10699598402
10699608534
10699616590
10699623670
10699631239
10699637464
10699644178
10699651930
10699658460
10699668592
10699676161
10699682020
10699688490
10699697279
10699703748
10699712232
10699718824
10699726331
10699733167
10699741285
10699747632
10699755811
10699762891
10699771497
10699776258
10699787427
10699795240
10699802381
10699809644
10699815381
10699822339
10699832776
10699841626
10699849378
10699856824
10699863233
10699870679
10699878675
10699884168
10699892285
10699898084
10699906873
10699914807
10699920484
10699927625
10699935559
10699941358
10699948682
10699956799
10699965222
10699970837
10699979932
10699985547
10699993237
10700000989
10700007520
10700015210
10700022473
10700029980
10700037732
10700045239
10700053052
10700059338
10700069104
10700078320
10700084546
10700093091
10700101635
10700108777
10700115307
10700122754
10700129651
10700137280
10700143750
10700152478
10700159741
10700168591
10700176281
10700183239
10700191174
10700199230
10700204785
10700213940
10700219250
10700228161
10700234081
10700242687
10700249035
10700257031
10700263256
10700272350
10700280468
10700286816
10700294140
10700302258
10700309032
10700320080
10700326000
10700334911
10700342174
10700348095
10700353283
10700361217
10700369457
10700377392
10700385387
10700391552
10700398998
10700407360
10700412670
10700419628
10700427562
10700436229
10700442028
10700450389
10700457531
10700464000
10700471080
10700478038
10700486156
10700495311
10700503429
10700509838
10700516979
10700522838
10700529186
10700537914
10700545543
10700552928
10700560802
10700567943
10700575023
10700582225
10700589671
10700595226
10700604564
10700613048
10700620433
10700626475
10700633739
10700641856
10700647044
10700655894
10700660777
10700670787
10700679088
10700687022
10700695201
10700702586
10700709361
10700716502
10700724620
10700731822
10700740001
10700747386
10700754649
10700763072
10700768809
10700777354
10700786570
10700793284
10700801890
10700808055
10700815379
10700823130
10700831492
10700839121
10700845103
10700852122
10700859873
10700866953
10700874094
10700882151
10700889109
10700896861
10700903330
10700910715
10700918345
10700926890
10700934641
10700940806
10700948557
10700954844
10700962229
10700969553
10700977976
10700983957
10700991160
10700998301
10701006052
10701013865
10701020212
10701030039
10701039499
10701045725
10701051157
10701060251
10701065805
10701073496
10701079782
10701089670
10701095468
10701103891
10701109201
10701116587
10701124582
10701131357
10701139780
10701148508
10701156015
10701162912
10701170541
10701177194
10701184824
10701192514
10701200449
10701207040
10701214304
10701221750
10701228891
10701235788
10701240488
10701250131
10701254709
10701265817
10701273263
10701279611
10701286752
10701292795
10701298898
10701309152
10701316842
10701324716
10701330514
10701337838
10701345529
10701352182
10701359384
10701366403
10701374093
10701382272
10701388681
10701396615
10701403939
10701410836
10701416512
10701423593
10701433480
10701441354
10701446908
10701454659
10701461923
10701468148
10701475594
10701481576
10701488656
10701497628
10701505257
10701512582
10701520699
10701529549
10701535165
10701543709
10701552132
10701559945
10701568917
10701575692
10701583870
10701589852
10701597054
10701604134
10701612557
10701619637
10701627938
10701633614
10701642464
10701648323
10701657051
10701663399
10701671822
10701677559
10701687081
10701693367
10701700020
10701706490
10701713387
10701721504
10701729439
10701735909
10701744393
10701751717
10701757942
10701764412
10701774239
10701780159
10701789558
10701797310
10701803841
10701811409
10701818489
10701825386
10701833137
10701839668
10701848945
10701854683
10701863838
10701869270
10701877815
10701883125
10701893074
10701901314
10701907234
10701916023
10701921760
10701927070
10701936042
10701941841
10701950691
10701957344
10701967048
10701972663
10701979621
10701987068
10701993782
10702001899
10702009284
10702018134
10702024482
10702032478
10702039008
10702046089
10702052985
10702060676
10702067695
10702075568
10702084296
10702090705
10702100349
10702106147
10702114875
10702120368
10702128669
10702134528
10702141913
10702149604
10702157477
10702164741
10702171515
10702178840
10702185615
10702193305
10702202643
10702209113
10702219428
10702226508
10702232611
10702240729
10702247931
10702256659
10702265204
10702271979
10702279181
10702288642
10702295600
10702304572
10702312018
10702320441
10702327704
10702335944
10702342902
10702350226
10702355292
10702364203
10702370123
10702381476
10702388983
10702396490
10702402045
10702410223
10702418036
10702425421
10702433783
10702442206
10702447211
10702456366
10702462897
10702468695
10702474737
10702485174
10702491278
10702501288
10702506903
10702516546
10702521551
10702528570
10702535833
10702542242
10702550604
10702558905
10702564886
10702573309
10702580633
10702587530
10702595526
10702601629
10702609381
10702617132
10702625372
10702631902
10702638860
10702645330
10702652227
10702658392
10702664800
10702674871
10702682500
10702689214
10702696600
10702704046
10702710943
10702716863
10702724493
10702733160
10702738286
10702747075
10702754583
10702761968
10702766302
10702773870
10702780156
10702789800
10702798223
10702804937
10702812078
10702818120
10702825567
10702831121
10702838140
10702847722
10702856145
10702862798
10702870000
10702875981
10702882329
10702889958
10702898381
10702907537
10702916203
10702923039
10702930608
10702938054
10702943669
10702952763
10702958562
10702969426
10702976750
10702983037
10702992009
10702997868
10703006291
10703012761
10703023259
10703029118
10703037785
10703045781
10703051396
10703058720
10703065739
10703073002
10703081059
10703088566
10703097416
10703103642
10703111210
10703118535
10703126103
10703134648
10703140141
10703148991
10703156864
10703165165
10703171696
10703178044
10703188969
10703198551
10703207524
10703216435
10703223454
10703230778
10703237858
10703245060
10703253727
10703262577
10703269352
10703277287
10703283817
10703290958
10703299320
10703306766
10703313785
10703322025
10703328434
10703337528
10703345035
10703352482
10703359623
10703366276
10703370853
10703380131
10703387272
10703395084
10703402225
10703408024
10703415287
10703423832
10703431827
10703438907
10703446353
10703452579
10703459659
10703466312
10703473880
10703481082
10703489078
10703496829
10703504398
10703510013
10703517093
10703524845
10703531864
10703538822
10703546573
10703555362
10703562869
10703568790
10703576053
10703583926
10703589786
10703598270
10703604068
10703613406
10703619083
10703627688
10703633975
10703642032
10703649844
10703656985
10703664981
10703672854
10703681765
10703689822
10703697574
10703703433
10703711001
10703717044
10703727908
10703734561
10703743594
10703749636
10703758486
10703763980
10703769656
10703778018
10703787844
10703794192
10703802859
10703811282
10703816104
10703825076
10703832034
10703837710
10703843997
10703854556
10703862124
10703868349
10703876101
10703881838
10703889101
10703897158
10703903323
10703911196
10703920656
10703926455
10703934572
10703942019
10703949160
10703954653
10703962038
10703971071
10703978884
10703985842
10703991152
10703999025
10704006533
10704012758
10704021181
10704028688
10704036135
10704043398
10704048464
10704061891
10704069216
10704077455
10704083193
10704092592
10704100282
10704108827
10704115236
10704124452
10704129884
10704138307
10704144106
10704153261
10704159853
10704167970
10704175722
10704181459
10704188539
10704195253
10704203798
10704212831
10704220460
10704227968
10704233339
10704242494
10704247865
10704254701
10704262330
10704272523
10704280275
10704287538
10704294801
10704301515
10704305970
10704314515
10704321534
10704332277
10704338746
10704346742
10704353822
10704361024
10704367005
10704374452
10704383851
10704393861
10704401551
10704408448
10704415956
10704422975
10704430543
10704436891
10704444703
10704454774
10704462830
10704469605
10704477113
10704483704
10704491517
10704499879
10704506287
10704514954
10704522523
10704528565
10704536744
10704545960
10704552552
10704558777
10704567444
10704573670
10704582215
10704589112
10704596192
10704605469
10704612549
10704620118
10704628785
10704636719
10704643006
10704650147
10704656678
10704663941
10704670594
10704678101
10704686096
10704693726
10704701294
10704708435
10704715454
10704722534
10704728943
10704736389
10704744080
10704751099
10704758240
10704765320
10704773926
10704779419
10704789917
10704795654
10704804382
10704810181
10704820373
10704828247
10704835205
10704843017
10704849121
10704855224
10704866028
10704873657
10704879272
10704884704
10704897400
10704903442
10704911071
10704918945
10704924987
10704932678
10704940490
10704947692
10704953979
10704960266
10704969482
10704977783
10704985046
10704993530
10705000671
10705006591
10705014160
10705021667
10705030273
10705034789
10705044067
10705052123
10705057372
10705065795
10705072387
10705080810
10705087707
10705095031
10705103149
10705109008
10705116271
10705125304
10705133971
10705141112
10705149840
10705157042
10705164000
10705171996
10705180053
10705188292
10705196044
10705203856
10705210570
10705219970
10705226317
10705234862
10705241088
10705247069
10705255736
10705264708
10705270446
10705276061
10705285582
10705291625
10705299193
10705308043
10705316588
10705321837
10705331603
10705338622
10705344481
10705352171
10705358397
10705367003
10705375426
10705383116
10705391295
10705397276
10705405211
10705413023
10705419737
10705429686
10705437803
10705444945
10705451964
10705458555
10705463072
10705471251
10705477537
10705486876
10705494749
10705502806
10705510496
10705516233
10705524229
10705530088
10705538267
10705544554
10705554136
10705560118
10705567747
10705573301
10705580564
10705588804
10705594175
10705602842
10705608763
10705619016
10705626341
10705631956
10705640623
10705646421
10705656309
10705663511
10705671629
10705678037
10705685239
10705692869
10705698911
10705705442
10705710569
10705721372
10705728513
10705734250
10705740110
10705749997
10705757078
10705763852
10705772214
10705780881
10705787534
10705795713
10705801389
10705809446
10705816282
10705822690
10705830930
10705838315
10705849851
10705856992
10705863401
10705870725
10705879636
10705886594
10705895566
10705902280
10705910642
10705916928
10705926938
10705934689
10705940244
10705948605
10705957150
10705964291
10705971371
10705981442
10705986630
10705995908
10706004208
10706012997
10706018735
10706026913
10706032345
10706042477
10706047909
10706054867
10706064389
10706074399
10706082577
10706090573
10706097226
10706103512
10706108456
10706118405
10706124997
10706133480
10706140805
10706147518
10706154660
10706161007
10706168881
10706175411
10706184933
10706191403
10706201901
10706210446
10706218624
10706227352
10706234982
10706241390
10706251522
10706259884
10706265499
10706272518
10706279720
10706286617
10706294613
10706303036
10706311458
10706316585
10706324215
10706331905
10706337642
10706345028
10706351925
10706359737
10706368038
10706376644
10706382320
10706387630
10706397030
10706402523
10706409786
10706417476
10706425472
10706432125
10706439815
10706447444
10706454280
10706461666
10706468746
10706474666
10706485591
10706492854
10706500850
10706506221
10706515071
10706521114
10706528926
10706536617
10706543880
10706551692
10706560115
10706566402
10706575191
10706580745
10706589168
10706595943
10706604976
10706611323
10706618098
10706625300
10706633235
10706641047
10706646174
10706654048
10706664180
10706670222
10706678340
10706685908
10706693721
10706701472
10706708979
10706717707
10706727412
10706733027
10706742976
10706749751
10706755610
10706764704
10706771113
10706780329
10706788752
10706796015
10706802302
10706809443
10706814936
10706823603
10706831965
10706838618
10706847590
10706855708
10706862055
10706868891
10706874689
10706882319
10706889826
10706895502
10706905268
10706910273
10706918635
10706924189
10706932917
10706938959
10706948176
10706953913
10706963495
10706968744
10706976496
10706984552
10706990656
10706997675
10707005121
10707010370
10707021662
10707027399
10707036371
10707042169
10707050287
10707055841
10707064569
10707070612
10707080805
10707086420
10707096185
10707103388
10707109186
10707116693
10707122492
10707130548
10707138910
10707143976
10707151483
10707160944
10707166742
10707175531
10707181512
10707186883
10707196954
10707203241
10707211603
10707216852
10707225519
10707232477
10707239129
10707246820
10707253290
10707260736
10707267328
10707274774
10707281732
10707289605
10707297784
10707305902
10707314202
10707319940
10707328424
10707333917
10707342157
10707349786
10707356866
10707364678
10707371881
10707379388
10707386041
10707393609
10707402215
10707407891
10707414910
10707423211
10707431451
10707436944
10707448296
10707455499
10707461419
10707467767
10707478570
10707484246
10707493462
10707499810
10707507805
10707514702
10707521783
10707526726
10707534478
10707544915
10707551140
10707560784
10707567559
10707572381
10707580010
10707585320
10707594292
10707600823
10707609734
10707615349
10707623711
10707631218
10707637810
10707646172
10707653374
10707661125
10707668511
10707676018
10707682976
10707691765
10707697685
10707705742
10707711662
10707717095
10707728325
10707736565
10707743401
10707750114
10707758171
10707765923
10707772636
10707780266
10707786308
10707794792
10707800346
10707809379
10707815056
10707823662
10707830253
10707838432
10707844902
10707853080
10707860161
10707868095
10707874504
10707882621
10707889030
10707895317
10707903679
10707911369
10707917717
10707922477
10707932426
10707939933
10707945610
10707955009
10707961479
10707969901
10707976493
10707981925
10707991203
10707997062
10708005363
10708011771
10708019401
10708028434
10708034843
10708042838
10708051933
10708057670
10708065665
10708075248
10708083976
10708090873
10708097343
10708102653
10708112845
10708120353
10708126273
10708132804
10708142264
10708149161
10708157096
10708164176
10708172110
10708177543
10708187003
10708193473
10708203666
10708209647
10708217643
10708225394
10708231253
10708240348
10708245902
10708252432
10708263175
10708270743
10708276969
10708285819
10708291495
10708298697
10708304373
10708312308
10708320059
10708327689
10708333365
10708340567
10708349173
10708354849
10708363333
10708369620
10708379019
10708387076
10708393057
10708398367
10708407461
10708413077
10708421805
10708427237
10708436026
10708443350
10708449942
10708457571
10708464590
10708470205
10708477469
10708485464
10708494070
10708501516
10708508902
10708516043
10708522085
10708529959
10708535696
10708543569
10708553457
10708559072
10708567068
10708572500
10708582510
10708587271
10708595632
10708605093
10708611562
10708619863
10708626760
10708634695
10708641103
10708649160
10708656301
10708665578
10708673147
10708681509
10708688589
10708694875
10708701955
10708709279
10708716665
10708725759
10708733327
10708739065
10708746694
10708753286
10708760427
10708767629
10708774648
10708784414
10708790273
10708798452
10708805776
10708812734
10708820363
10708827199
10708831655
10708841359
10708848744
10708858327
10708866445
10708874379
10708882497
10708890187
10708899342
10708905690
10708911549
10708921071
10708926991
10708935780
10708944142
10708951405
10708961720
10708968068
10708975941
10708983266
10708991994
10709000233
10709006398
10709013722
10709020802
10709025563
10709031788
10709037892
10709041798
10709047169
10709052113
10709059254
10709063832
10709069813
10709075917
10709080189
10709086049
10709091786
10709097645
10709104664
10709110279
10709115589
10709121327
10709125233
10709130665
10709137074
10709142994
10709149769
10709154591
10709160389
10709165028
10709169911
10709174366
10709181324
10709186390
10709192860
10709197987
10709202992
10709208790
10709214649
10709219044
10709226307
10709231617
10709236317
10709242176
10709247425
10709251453
10709256702
10709262806
10709269031
10709273975
10709279285
10709285450
10709291065
10709295704
10709301380
10709308643
10709314197
10709320362
10709324024
10709330250
10709335132
10709339588
10709345813
10709353077
10709359546
10709365284
10709371204
10709379932
10709386402
10709391468
10709396595
10709404895
10709412097
10709419727
10709425220
10709432483
10709438953
10709441883
10709451282
10709460254
10709467334
10709478259
10709484424
10709491870
10709499439
10709508289
10709513904
10709523914
10709529041
10709535266
10709546863
10709553821
10709561450
10709566638
10709576099
10709580310
10709588672
10709597278
10709604358
10709611804
10709620532
10709626819
10709630908
10709639209
10709646777
10709652270
10709662097
10709666858
10709676623
10709683825
10709690478
10709697192
10709704272
10709710986
10709717517
10709725695
10709732836
10709738391
10709750231
10709757922
10709764697
10709771166
10709777880
10709784594
10709791613
10709798022
10709804614
10709813158
10709820116
10709825732
10709833788
10709840319
10709849352
10709855883
10709861986
10709868883
10709876025
10709885302
10709892016
10709898546
10709906420
10709914416
10709920763
10709928209
10709933336
10709940294
10709948839
10709955431
10709963244
10709970812
10709975878
10709983995
10709991320
10709996141
10710004625
10710011827
10710017748
10710027574
10710035997
10710041429
10710049303
10710054613
10710061205
10710067186
10710075243
10710083360
10710090868
10710096422
10710105699
10710110155
10710118578
10710125658
10710131151
10710140367
10710147325
10710154283
10710163744
10710173204
10710179246
10710186815
10710192552
10710200365
10710208970
10710214281
10710222276
10710229417
10710242479
10710249620
10710257493
10710265733
10710272203
10710278978
10710283921
10710291734
10710297776
10710308335
10710313462
10710320420
10710326890
10710333665
10710341783
10710351548
10710359422
10710363755
10710370469
10710379319
10710388596
10710394822
10710403489
10710408982
10710415452
10710423203
10710428941
10710436265
10710444688
10710449509
10710455369
10710461350
10710467393
10710473496
10710478318
10710483811
10710490891
10710496628
10710502183
10710507798
10710512864
10710518357
10710524094
10710529343
10710534836
10710539963
10710544297
10710549729
10710556077
10710562180
10710567551
10710573655
10710581162
10710587510
10710592881
10710598557
10710604538
10710609909
10710614914
10710620896
10710626938
10710632187
10710637802
10710642136
10710646103
10710653488
10710659043
10710663925
10710670029
10710677170
10710682663
10710687607
10710691574
10710699020
10710702988
10710709885
10710715134
10710722214
10710729355
10710734299
10710741379
10710747604
10710753769
10710759262
10710770004
10710776352
10710782699
10710788559
10710797470
10710806015
10710811752
10710820358
10710826706
10710837021
10710843918
10710853561
10710862289
10710870590
10710875351
10710884384
10710892379
10710897689
10710906356
10710912948
10710919357
10710928695
10710941146
10710948226
10710957015
10710968551
10710976730
10710987960
10710997176
10711005233
10711011947
10711017989
10711024764
10711032088
10711037826
10711043319
10711047897
10711053023
10711058089
10711065169
10711069930
10711076400
10711081710
10711087142
10711092147
10711096419
10711103194
10711109786
10711114852
10711119796
10711125594
10711129928
10711135543
10711139754
10711145247
10711151107
10711155257
10711161055
10711165511
10711169356
10711174300
10711180220
10711184188
10711190657
10711195845
10711201827
10711205550
10711210860
10711215865
10711220442
10711225753
10711233870
10711239852
10711244368
10711249739
10711254805
10711259566
10711264937
10711269637
10711276106
10711282820
10711287520
10711291914
10711297652
10711303389
10711308638
10711312972
10711318526
10711325667
10711331221
10711335127
10711340620
10711346297
10711351790
10711355574
10711361861
10711367049
10711372298
10711378157
10711382918
10711388899
10711395125
10711399397
10711405562
10711411482
10711416731
10711423140
10711429976
10711433882
10711439802
10711444502
10711450300
10711455244
10711460737
10711467085
10711472700
10711477644
10711484297
10711488935
10711494123
10711499861
10711504133
10711512129
10711516462
10711522200
10711528486
10711534712
10711540693
10711545332
10711551252
10711558210
10711566572
10711571638
10711577009
10711583051
10711588300
10711592268
10711598371
10711604780
10711612592
10711617414
10711624128
10711628522
10711635480
10711642866
10711647932
10711653120
10711660139
10711665266
10711672285
10711677350
10711686140
10711692670
10711699872
10711705915
10711712079
10711717939
10711723371
10711729230
10711733869
10711738996
10711745649
10711750287
10711754133
10711762738
10711768293
10711772382
10711778852
10711783246
10711788617
10711793439
10711798932
10711805097
10711810956
10711815351
10711820783
10711825299
10711829877
10711835492
10711840009
10711847455
10711854596
10711860211
10711864362
10711868329
10711875104
10711879193
10711885785
10711892011
10711899213
10711903912
10711908978
10711914288
10711921246
10711926617
10711931317
10711936139
10711942670
10711948834
10711955365
10711960675
10711966473
10711970990
10711976056
10711983136
10711988507
10711993085
10711999920
10712006329
10712011212
10712017315
10712021954
10712027936
10712032940
10712038739
10712046368
10712050641
10712056805
10712062054
10712069378
10712074994
10712079388
10712086224
10712091412
10712099896
10712108441
10712115948
10712120220
10712128704
10712134381
10712139996
10712146282
10712152935
10712159832
10712165936
10712172833
10712182598
10712188763
10712199078
10712205853
10712215618
10712221661
10712231914
10712239849
10712245403
10712255108
10712262920
10712271587
10712281658
10712289654
10712298504
10712308941
10712317852
10712329448
10712334514
10712339946
10712348613
10712357097
10712364177
10712369304
10712380046
10712388958
10712394817
10712403301
10712411724
10712417827
10712425090
10712428203
10712438823
10712444988
10712454936
10712460857
10712467998
10712474773
10712481914
10712487712
10712493327
10712499736
10712507243
10712513957
10712521098
10712526469
10712534282
10712542888
10712551433
10712560649
10712567729
10712576640
10712586772
10712595073
10712603862
10712611125
10712617839
10712626628
10712632487
10712642192
10712647380
10712657817
10712665385
10712671672
10712680278
10712688212
10712693949
10712701640
10712710795
10712717509
10712722514
10712728739
10712741740
10712750895
10712756877
10712764445
10712771830
10712779032
10712785441
10712791911
10712799906
10712805888
10712815043
10712822184
10712830912
10712836283
10712841837
10712850504
10712859171
10712866190
10712871744
10712878092
10712887186
10712896586
10712903116
10712917582
10712923441
10712931437
10712937113
10712946878
10712953592
10712960306
10712968790
10712975992
10712982706
10712988565
10712995645
10713003092
10713008890
10713015909
10713022196
10713032694
10713038675
10713046671
10713054788
10713061990
10713068399
10713074808
10713080118
10713088663
10713094583
10713104959
10713116800
10713121255
10713130045
10713137674
10713142923
10713150857
10713158060
10713163919
10713174112
10713183145
10713189126
10713194986
10713204751
10713213662
10713219400
10713228311
10713234842
10713243448
10713251870
10713258157
10713264688
10713270669
10713277383
10713285440
10713290872
10713299111
10713304910
10713311990
10713320108
10713326394
10713332253
10713339456
10713344460
10713353066
10713360330
10713365823
10713376626
10713383218
10713390664
10713395547
10713403054
10713409768
10713414590
10713421975
10713429421
10713436623
10713444497
10713449807
10713456338
10713461526
10713468911
10713476601
10713483437
10713490395
10713493813
10713506997
10713513588
10713519997
10713527382
10713534279
10713541542
10713546730
10713554970
10713561745
10713571938
10713577370
10713584511
10713591347
10713597756
10713606179
10713611061
10713619667
10713626747
10713632363
10713642067
10713648476
10713657143
10713663551
10713670326
10713677345
10713682716
10713689797
10713698219
10713705849
10713713966
10713720802
10713727211
10713733559
10713741127
10713746193
10713751503
10713759743
10713768165
10713776893
10713783180
10713788917
10713795692
10713803261
10713809852
10713815834
10713823829
10713829261
10713837684
10713848182
10713853859
10713862342
10713869789
10713877479
10713887306
10713894813
10713902931
10713911720
10713919288
10713926063
10713933875
10713942420
10713949073
10713953956
10713962745
10713971839
10713980445
10713989661
10713998023
10714001929
10714013587
10714020728
10714027930
10714036109
10714039649
10714051429
10714057654
10714067969
10714075171
10714084693
10714093360
10714099830
10714108619
10714114783
10714121558
10714128150
10714137977
10714145606
10714153846
10714160620
10714167334
10714173133
10714178565
10714186866
10714195044
10714201575
10714210242
10714215308
10714221717
10714227637
10714236426
10714241614
10714249060
10714256323
10714261633
10714273352
10714279700
10714286780
10714294348
10714300208
10714307288
10714312964
10714320471
10714325903
10714336645
10714345068
10714351111
10714357397
10714365515
10714372412
10714377295
10714382483
10714393225
10714398840
10714407934
10714414770
10714421423
10714428686
10714435949
10714442419
10714448462
10714454809
10714462378
10714469763
10714477636
10714484167
10714492529
10714500463
10714505834
10714512976
10714518530
10714526830
10714532934
10714540563
10714548498
10714556555
10714563818
10714570043
10714577612
10714582861
10714592016
10714596532
10714605871
10714615636
10714624914
10714631078
10714638036
10714645483
10714651952
10714658910
10714667821
10714675451
10714682653
10714691686
10714695165
10714703649
10714712011
10714718297
10714723485
10714733190
10714737584
10714746068
10714755162
10714760717
10714769078
10714776158
10714783422
10714790197
10714796056
10714803136
10714810277
10714821202
10714829869
10714838414
10714844945
10714849767
10714857640
10714864415
10714869176
10714876195
10714883580
10714889684
10714893590
10714898473
10714904576
10714909642
10714916356
10714920811
10714928624
10714935948
10714940892
10714944737
10714950780
10714955662
10714961766
10714966466
10714972081
10714977208
10714982762
10714988194
10714991917
10714998143
10715002171
10715009495
10715015049
10715020665
10715026646
10715031651
10715037144
10715041356
10715045994
10715052769
10715057530
10715061680
10715068455
10715083592
10715086399
10715088291
10715090367
10715092381
10715094334
10715096531
10715099156
10715101658
10715103733
10715106663
10715109104
10715111790
10715114231
10715116123
10715118138
10715119908
10715121739
10715123509
10715125462
10715127354
10715129307
10715130955
10715132969
10715135044
10715137119
10715139805
10715141941
10715144200
10715146336
10715148350
10715150303
10715152378
10715154759
10715156590
10715158726
10715161045
10715163487
10715166050
10715168552
10715171238
10715173740
10715176548
10715178440
10715180576
10715182896
10715184788
10715186802
10715188572
10715190769
10715192905
10715194920
10715196751
10715198765
10715200718
10715203037
10715205112
10715207188
10715209385
10715211338
10715213352
10715215244
10715217625
10715219761
10715221775
10715223789
10715226108
10715228916
10715230930
10715233005
10715235447
10715237949
10715241062
10715243259
10715245335
10715247471
10715249058
10715251743
10715253574
10715255772
10715257725
10715260288
10715261997
10715264194
10715266514
10715268467
10715270542
10715272495
10715274570
10715276462
10715278354
10715280613
10715282688
10715284519
10715286899
10715288852
10715291111
10715293552
10715295444
10715297825
10715300388
10715303623
10715305942
10715308262
10715310276
10715312473
10715314670
10715316379
10715318821
10715320713
10715323398
10715325535
10715327732
10715329685
10715331699
10715334201
10715336033
10715337864
10715339756
10715341404
10715343845
10715345798
10715347751
10715349704
10715351841
10715353916
10715355686
10715359043
10715360996
10715363254
10715365757
10715368442
10715371311
10715373874
10715375766
10715377842
10715379978
10715381809
10715384311
10715386264
10715388217
10715390293
10715392673
10715394809
10715396701
10715398471
10715401157
10715403049
10715405002
10715407321
10715409763
10715411716
10715413730
10715415805
10715417880
10715419956
10715422092
10715424411
10715427097
10715429233
10715432102
10715434421
10715437106
10715439426
10715441989
10715444126
10715446079
10715448154
10715450290
10715452243
10715454196
10715456699
10715458408
10715460544
10715462924
10715465061
10715467380
10715469211
10715471164
10715473178
10715474948
10715476779
10715478610
10715480441
10715482455
10715484775
10715486789
10715489413
10715491367
10715493564
10715496005
10715498752
10715501620
10715504001
10715506137
10715508212
10715510043
10715512363
10715514255
10715516269
10715518100
10715520236
10715522372
10715524448
10715526218
10715528293
10715530124
10715532260
10715534213
10715536288
10715538119
10715540011
10715541965
10715544040
10715546237
10715548068
10715550204
10715552768
10715555087
10715557406
10715559604
10715562289
10715564609
10715567599
10715569247
10715571506
10715573398
10715575351
10715577365
10715579318
10715581149
10715583102
10715584933
10715586764
10715588473
10715590732
10715592746
10715594882
10715596957
10715599032
10715601352
10715603610
10715605746
10715607699
10715610141
10715612094
10715614901
10715617343
10715619601
10715621493
10715624362
10715626925
10715629367
10715631442
10715633517
10715635470
10715637362
10715639193
10715641085
10715643100
10715645114
10715647311
10715649264
10715651522
10715653292
10715655307
10715657748
10715659762
10715661837
10715663913
10715666049
10715668185
10715670138
10715672580
10715674472
10715676669
10715678561
10715681063
10715683810
10715685397
10715688571
10715690890
10715693881
10715695895
10715698092
10715700228
10715702304
10715704013
10715706271
10715708590
10715710543
10715712374
10715714327
10715716159
10715718539
10715720492
10715722201
10715724276
10715726351
10715728732
10715731112
10715732760
10715735140
10715737032
10715739962
10715745577
10715751376
10715754855
10715758517
10715762179
10715764559
10715767062
10715769076
10715770907
10715772860
10715775240
10715777132
10715779208
10715780917
10715782992
10715785372
10715787264
10715789584
10715791598
10715793917
10715795992
10715798495
10715800692
10715802950
10715804964
10715806795
10715808627
10715810885
10715812777
10715814486
10715817294
10715819491
10715821993
10715825350
10715827547
10715830538
10715832674
10715834627
10715837008
10715838961
10715841036
10715843111
10715845431
10715847445
10715849398
10715851534
10715853548
10715855929
10715858065
10715860201
10715862398
10715864351
10715866488
10715868319
10715870272
10715872164
10715874056
10715876131
10715878145
10715880648
10715882906
10715885409
10715887484
10715890352
10715892977
10715895296
10715897555
10715899630
10715901766
10715903780
10715905855
10715908236
10715910372
10715912447
10715914522
10715916597
10715918612
10715920626
10715922457
10715924654
10715926790
10715928682
10715930819
10715932711
10715934481
10715936800
10715939364
10715941256
10715943392
10715945528
10715948153
10715950777
10715952913
10715955599
10715958101
10715961214
10715963289
10715965486
10715967684
10715969454
10715971651
10715973482
10715975496
10715977999
10715980074
10715981844
10715983736
10715985994
10715988253
10715990023
10715991915
10715993624
10715997225
10715999178
10716001253
10716003633
10716005342
10716007723
10716009920
10716011995
10716014803
10716017000
10716019686
10716022432
10716025240
10716027254
10716029817
10716032076
10716033846
10716036287
10716038179
10716040254
10716042146
10716045442
10716048250
10716050142
10716052217
10716054292
10716056123
10716058260
10716060030
10716062044
10716063997
10716065889
10716067903
10716069734
10716072359
10716074617
10716076814
10716078523
10716081148
10716083162
10716085359
10716088472
10716090974
10716094087
10716095979
10716098360
10716100679
10716102632
10716104707
10716106599
10716108919
10716110933
10716112703
10716114534
10716116731
10716118440
10716120271
10716122102
10716124055
10716126131
10716127901
10716129915
10716131807
10716134004
10716135774
10716138216
10716140291
10716142732
10716144868
10716147798
10716150300
10716152681
10716154451
10716156465
10716158052
10716160310
10716161958
10716164033
10716165559
10716167573
10716169465
10716171235
10716173067
10716174898
10716176912
10716178621
10716180635
10716182710
10716184602
10716186921
10716188875
10716191011
10716193269
10716195466
10716197664
10716200166
10716202852
10716205110
10716207429
10716209443
10716211519
10716213411
10716215120
10716217073
10716220918
10716222871
10716224763
10716226716
10716228853
10716230745
10716233125
10716234834
10716236848
10716238496
10716240144
10716242341
10716244233
10716246797
10716248811
10716251008
10716253755
10716256196
10716258699
10716260591
10716262300
10716264253
10716265962
10716267976
10716269624
10716271943
10716273896
10716275727
10716277314
10716279634
10716281343
10716283906
10716285981
