10750708928
10750713566
10750719060
10750724126
10750729252
10750734013
10750738652
10750742497
10750747319
10750752202
10750756901
10750762150
10750766789
10750771794
10750776066
10750781498
10750785832
10750790043
10750795170
10750800663
10750806034
10750811589
10750815617
10750821293
10750827580
10750832463
10750838261
10750844670
10750849919
10750858525
10750865544
10750872746
10750879338
10750887516
10750894352
10750902714
10750909184
10750915043
10750921391
10750928410
10750936161
10750942997
10750948856
10750955326
10750960026
10750966679
10750971317
10750977909
10750984562
10750990299
10750996159
10751001835
10751008610
10751012699
10751018803
10751024296
10751030277
10751036381
10751041874
10751050602
10751056034
10751060428
10751068912
10751074466
10751080448
10751085941
10751093082
10751099857
10751105106
10751112125
10751117252
10751124759
10751131656
10751138065
10751143192
10751149601
10751156070
10751162296
10751168216
10751174442
10751180606
10751186832
10751193546
10751199832
10751205325
10751211551
10751217960
10751224246
10751231448
10751236820
10751243594
10751248660
10751255801
10751262332
10751268680
10751274844
10751281070
10751288272
10751292544
10751299319
10751305667
10751312381
10751318423
10751325992
10751329776
10751337832
10751342959
10751350223
10751356753
10751364627
10751372439
10751379458
10751386172
10751393618
10751400088
10751405764
10751413943
10751420291
10751426760
10751432681
10751439822
10751444949
10751452639
10751457827
10751465090
10751470400
10751477358
10751482669
10751489688
10751494998
10751502749
10751509097
10751515322
10751521548
10751527773
10751533877
10751540225
10751546267
10751552554
10751556155
10751563967
10751571535
10751577761
10751582827
10751589114
10751595522
10751601809
10751607851
10751614260
10751620425
10751626711
10751633486
10751639712
10751645205
10751651430
10751657717
10751664003
10751670290
10751676882
10751682314
10751688906
10751694338
10751701113
10751706484
10751713808
10751720095
10751727358
10751733705
10751738771
10751746218
10751751284
10751758913
10751766420
10751773439
10751780702
10751785707
10751793093
10751799623
10751804628
10751812502
10751817812
10751825502
10751832704
10751838869
10751844606
10751852296
10751858522
10751865724
10751873293
10751881044
10751885805
10751895326
10751900697
10751910341
10751915040
10751925661
10751933534
10751940065
10751946840
10751954164
10751962953
10751968751
10751977296
10751985658
10751994386
10752001588
10752009523
10752016114
10752025148
10752031129
10752038697
10752046693
10752056581
10752069093
10752075074
10752083619
10752092042
10752098390
10752103761
10752112550
10752117738
10752125428
10752130555
10752138184
10752145081
10752150941
10752157777
10752164002
10752170777
10752177186
10752184022
10752189942
10752196839
10752203919
10752211243
10752218323
10752225892
10752232545
10752239930
10752245118
10752252625
10752257081
10752266419
10752272767
10752281617
10752288819
10752296143
10752300476
10752308228
10752314392
10752323120
10752329346
10752335938
10752343811
10752352295
10752358643
10752365174
10752370911
10752378540
10752385987
10752393067
10752398560
10752407166
10752414490
10752420654
10752428162
10752435181
10752440857
10752448486
10752455811
10752463440
10752470886
10752475281
10752483948
10752491760
10752497986
10752504272
10752512024
10752518860
10752528259
10752535278
10752541870
10752549927
10752557373
10752565551
10752572448
10752581054
10752587768
10752596069
10752603881
10752610229
10752617614
10752625061
10752631774
10752640808
10752648071
10752655578
10752661498
10752670165
10752676574
10752684448
10752692382
10752698119
10752706725
10752715453
10752721496
10752728515
10752736449
10752743346
10752751159
10752760131
10752771056
10752777831
10752790160
10752795165
10752805358
10752812926
10752821593
10752829040
10752837096
10752844115
10752855163
10752864013
10752874328
10752882567
10752889220
10752897460
10752905761
10752910460
10752921019
10752929320
10752935485
10752942443
10752951537
10752958556
10752965758
10752973021
10752982237
10752989012
10752997252
10753003539
10753011839
10753018065
10753026732
10753033080
10753037901
10753048827
10753053770
10753063353
10753071654
10753077757
10753084776
10753092528
10753100218
10753108702
10753115172
10753123289
10753129515
10753136717
10753142271
10753151976
10753158262
10753167601
10753173643
10753180784
10753189085
10753193907
10753205198
10753210447
10753219419
10753226866
10753235960
10753243101
10753249571
10753258360
10753264036
10753272276
10753279966
10753288938
10753298155
10753304441
10753311155
10753319456
10753324278
10753334715
10753339536
10753349668
10753357542
10753365232
10753371946
10753379270
10753385435
10753395078
10753401243
10753408079
10753416501
10753424741
10753430906
10753435666
10753446531
10753451475
10753460447
10753467344
10753476499
10753483518
10753493222
10753499997
10753506345
10753512387
10753520871
10753529111
10753536008
10753544309
10753556516
10753562863
10753567746
10753579465
10753584775
10753595334
10753600766
10753610837
10753624387
10753630490
10753639401
10753648557
10753655820
10753664365
10753671078
10753679318
10753687436
10753696286
10753703793
10753712582
10753715939
10753727292
10753735837
10753741879
10753748715
10753758725
10753763546
10753773678
10753778500
10753788021
10753794796
10753802731
10753809628
10753818295
10753824215
10753831845
10753837582
10753845822
10753853207
10753859005
10753866879
10753875790
10753883846
10753889706
10753897152
10753904904
10753910519
10753916866
10753924130
10753931210
10753940792
10753948360
10753955379
10753962093
10753968807
10753977352
10753984066
10753992794
10754001461
10754008480
10754015926
10754022701
10754030636
10754039547
10754047115
10754053951
10754059871
10754068172
10754074947
10754084163
10754091121
10754097469
10754105953
10754112178
10754121578
10754127742
10754136592
10754142757
10754151668
10754157833
10754166622
10754172847
10754179622
10754187740
10754194820
10754203426
10754210079
10754217708
10754223811
10754232112
10754240474
10754247554
10754255611
10754264156
10754270381
10754278682
10754284785
10754291621
10754300410
10754307368
10754314937
10754320979
10754329097
10754337275
10754345271
10754351497
10754359004
10754367671
10754372920
10754381648
10754389155
10754398860
10754406916
10754416438
10754424006
10754432063
10754439631
10754454035
10754465022
10754471552
10754480403
10754486689
10754495478
10754503657
10754509577
10754519160
10754524165
10754534846
10754539606
10754551142
10754556025
10754565790
10754570856
10754581476
10754589350
10754597040
10754603937
10754611567
10754618586
10754626154
10754632563
10754641596
10754647761
10754656061
10754662470
10754670893
10754679255
10754684137
10754693048
10754700373
10754708185
10754716913
10754722711
10754731623
10754739313
10754745417
10754752802
10754761102
10754770746
10754777277
10754786310
10754792597
10754801019
10754807245
10754812250
10754823114
10754830988
10754837213
10754843988
10754852533
10754858636
10754867487
10754873834
10754881891
10754890008
10754898797
10754904962
10754913690
10754919916
10754924981
10754935785
10754940606
10754950677
10754957940
10754966424
10754973382
10754981378
10754987481
10754995904
10755002252
10755011468
10755020135
10755027825
10755033929
10755038873
10755049615
10755054681
10755065606
10755070489
10755078912
10755085992
10755094476
10755100884
10755109856
10755116265
10755125176
10755133416
10755140557
10755146844
10755155389
10755163445
10755168267
10755179619
10755192132
10755198601
10755204156
10755216363
10755222161
10755233880
10755245232
10755251519
10755261895
10755268731
10755279168
10755285576
10755295525
10755303826
10755310845
10755316948
10755321709
10755331780
10755338677
10755348503
10755354363
10755362908
10755371880
10755379326
10755386345
10755392998
10755401054
10755407646
10755415947
10755424004
10755432121
10755438652
10755446892
10755451836
10755461479
10755466240
10755476005
10755483330
10755490715
10755497001
10755505424
10755511589
10755519890
10755528251
10755535698
10755543937
10755551811
10755558036
10755565910
10755572319
10755579216
10755588920
10755595878
10755603691
10755610527
10755619865
10755627311
10755634819
10755641105
10755649650
10755657890
10755665946
10755672172
10755680168
10755690605
10755696403
10755704704
10755713371
10755719413
10755727103
10755735465
10755741325
10755751762
10755758598
10755766715
10755773551
10755782218
10755788871
10755797172
10755806022
10755814261
10755821036
10755825858
10755835685
10755840629
10755850333
10755857108
10755865287
10755873282
10755882193
10755888663
10755896476
10755902152
10755910697
10755916434
10755921866
10755932486
10755941336
10755949454
10755955863
10755963370
10755968436
10755976981
10755981558
10755994132
10756004935
10756013785
10756021658
10756032767
10756042899
10756048697
10756060355
10756069876
10756079092
10756087393
10756095572
10756103079
10756108633
10756116934
10756122793
10756131277
10756136770
10756144644
10756152151
10756158499
10756166128
10756171499
10756180105
10756188589
10756196035
10756200674
10756209097
10756215200
10756223135
10756229299
10756236563
10756244863
10756252615
10756258840
10756266042
10756273184
10756280386
10756289785
10756296926
10756303457
10756312429
10756318533
10756326955
10756333364
10756342580
10756348928
10756355886
10756363210
10756372182
10756379262
10756386037
10756393484
10756402578
10756409780
10756415944
10756424001
10756432363
10756439077
10756447439
10756452321
10756462575
10756467702
10756477529
10756484365
10756492238
10756501760
10756507741
10756516652
10756522756
10756531179
10756537038
10756545461
10756551198
10756560536
10756565602
10756576283
10756580983
10756590871
10756597829
10756605580
10756612660
10756620045
10756629750
10756637013
10756643056
10756652028
10756660451
10756667348
10756673512
10756682423
10756688771
10756697255
10756705372
10756710255
10756719227
10756726307
10756734547
10756740895
10756748646
10756757801
10756765553
10756771473
10756780690
10756787526
10756797413
10756806568
10756817738
10756827259
10756836170
10756843861
10756852589
10756861988
10756868092
10756877674
10756884022
10756891468
10756899098
10756906849
10756912403
10756920216
10756927540
10756934010
10756941456
10756949146
10756956837
10756963184
10756970753
10756975086
10756984180
10756991443
10756997791
10757004322
10757012806
10757019092
10757026111
10757031849
10757040943
10757046802
10757054554
10757060230
10757069751
10757075489
10757082691
10757090320
10757097705
10757103260
10757110584
10757118885
10757123950
10757135120
10757139881
10757149036
10757156116
10757165393
10757172290
10757179004
10757188953
10757196216
10757202319
10757211292
10757217700
10757224780
10757233203
10757239368
10757247974
10757257068
10757263110
10757270373
10757279895
10757284839
10757297168
10757304126
10757311267
10757318835
10757328723
10757335681
10757343860
10757350146
10757359118
10757365466
10757373523
10757381884
10757389758
10757395983
10757404040
10757412219
10757417346
10757426989
10757431872
10757440905
10757450854
10757457141
10757464037
10757471484
10757479968
10757487048
10757493151
10757501452
10757507861
10757517809
10757524462
10757533434
10757540087
10757547045
10757555529
10757561755
10757571337
10757581774
10757587145
10757596605
10757606859
10757615282
10757623217
10757631151
10757637316
10757646105
10757652330
10757660509
10757668322
10757675402
10757681200
10757686449
10757695116
10757702562
10757710070
10757714464
10757724047
10757731249
10757737047
10757743517
10757752855
10757759996
10757767137
10757773302
10757780504
10757788744
10757794298
10757802477
10757809129
10757817308
10757824388
10757830003
10757838182
10757843858
10757851610
10757859361
10757866930
10757873094
10757881700
10757887987
10757894945
10757902513
10757909349
10757918260
10757924486
10757932542
10757942003
10757949632
10757955735
10757963792
10757970079
10757978990
10757985154
10757993821
10758000047
10758007127
10758016221
10758023240
10758030442
10758036546
10758045030
10758053330
10758059556
10758068040
10758077134
10758085435
10758092210
10758100449
10758105576
10758115342
10758124985
10758134873
10758140916
10758153794
10758163621
10758173020
10758178574
10758187974
10758192368
10758201645
10758208176
10758216965
10758224473
10758231614
10758238633
10758245774
10758253830
10758260849
10758269699
10758276230
10758284531
10758290390
10758298447
10758304367
10758312851
10758319016
10758326950
10758333664
10758342026
10758350205
10758359238
10758371201
10758381455
10758394028
10758402084
10758413864
10758421555
10758429733
10758439804
10758446518
10758454819
10758458908
10758467453
10758473373
10758481674
10758488205
10758493576
10758499985
10758508651
10758514511
10758520981
10758528366
10758534347
10758541977
10758548507
10758554977
10758562240
10758569625
10758577133
10758583297
10758591110
10758597396
10758606124
10758612472
10758621688
10758630050
10758632858
10758644149
10758649032
10758658737
10758663619
10758673995
10758680953
10758689681
10758696578
10758704269
10758710372
10758719894
10758725997
10758734054
10758742416
10758752242
10758758529
10758767196
10758772994
10758780746
10758787093
10758796248
10758804610
10758807601
10758818892
10758827559
10758833358
10758839705
10758848311
10758855758
10758862960
10758870162
10758879073
10758885970
10758892562
10758901473
10758907881
10758916121
10758922225
10758930586
10758938948
10758947127
10758954634
10758962203
10758968489
10758976912
10758983443
10758991560
10758996626
10759006270
10759011031
10759022017
10759027083
10759035689
10759041853
10759049910
10759059370
10759067061
10759073164
10759080305
10759088667
10759094404
10759103132
10759108137
10759117964
10759125471
10759135481
10759144758
10759152388
10759160994
10759170271
10759177778
10759185224
10759194441
10759201155
10759212934
10759221235
10759228010
10759235578
10759240095
10759249861
10759254865
10759265974
10759272810
10759281171
10759288068
10759296247
10759302473
10759311445
10759317792
10759325605
10759333784
10759341718
10759347822
10759356550
10759362165
10759368329
10759377241
10759381635
10759391218
10759397565
10759405134
10759411481
10759419538
10759425214
10759432966
10759439313
10759448102
10759455610
10759462323
10759469770
10759477155
10759484723
10759491132
10759499494
10759508954
10759515302
10759518109
10759530744
10759538922
10759545331
10759553082
10759559674
10759566815
10759575971
10759582806
10759590009
10759598798
10759606366
10759612592
10759620831
10759629010
10759635297
10759643536
10759648358
10759658368
10759663373
10759673993
10759678692
10759686810
10759695843
10759705853
10759710736
10759721783
10759726788
10759734967
10759744000
10759749920
10759759320
10759767437
10759773785
10759782635
10759789044
10759797528
10759805706
10759812115
10759820599
10759829205
10759837506
10759843487
10759851666
10759859600
10759866314
10759873272
10759880901
10759890423
10759897625
10759904522
10759912579
10759918682
10759930950
10759942120
10759948528
10759958477
10759965496
10759974834
10759981853
10759988323
10759995830
10760004802
10760013347
10760020549
10760029583
10760036052
10760043316
10760051433
10760058879
10760065288
10760074199
10760080486
10760087322
10760097332
10760102519
10760113628
10760118633
10760128459
10760135417
10760141582
10760151103
10760160075
10760166911
10760178325
10760185588
10760191814
10760200114
10760209941
10760217693
10760225688
10760230632
10760238567
10760247478
10760253398
10760262370
10760269450
10760275859
10760284831
10760290935
10760298808
10760306254
10760314067
10760320231
10760328349
10760334452
10760344767
10760350505
10760358439
10760365580
10760369731
10760377665
10760384135
10760392070
10760398722
10760408976
10760415568
10760423991
10760429606
10760439738
10760447184
10760453532
10760461466
10760469645
10760478007
10760483683
10760491251
10760498942
10760504801
10760512064
10760518717
10760525797
10760533427
10760540507
10760552164
10760557535
10760570353
10760576334
10760589762
10760597086
10760608194
10760618265
10760627909
10760637247
10760641153
10760655375
10760665812
10760677652
10760687967
10760692972
10760707071
10760715433
10760727945
10760736856
10760747476
10760756632
10760763590
10760774454
10760783853
10760795938
10760806741
10760823404
10760833658
10760845315
10760856119
10760864114
10760877359
10760888406
10760903055
10760913125
10760926492
10760934304
10760947366
10760954629
10760966775
10760977334
10760987649
10760996865
10761006570
10761016397
10761023355
10761037209
10761047219
10761058206
10761064553
10761077493
10761086282
10761090066
10761104226
10761113503
10761122658
10761132180
10761141579
10761150307
10761159157
10761170815
10761177590
10761189370
10761196206
10761206215
10761215493
10761228371
10761238747
10761243508
10761260781
10761268166
10761279213
10761288918
10761300820
10761310402
10761317787
10761330055
10761340981
10761348793
10761361488
10761371925
10761381752
10761388039
10761401222
10761411842
10761422890
10761432472
10761443703
10761453224
10761462379
10761476173
10761485512
10761492592
10761503883
10761513771
10761524635
10761538063
10761543800
10761559425
10761565406
10761575660
10761588111
10761592262
10761605140
10761615516
10761624488
10761633705
10761648048
10761658119
10761665138
10761675575
10761685035
10761696265
10761705421
10761712928
10761725562
10761735572
10761741065
10761755591
10761762916
10761775977
10761785499
10761795020
10761804236
10761811438
10761824073
10761833838
10761845557
10761855567
10761862891
10761876197
10761882239
10761893164
10761907202
10761916602
10761928809
10761939856
10761951819
10761961401
10761970740
10761978918
10761991187
10762002295
10762016150
10762030005
10762043616
10762056067
10762067663
10762079199
10762094458
10762104651
10762118506
10762128027
10762139441
10762149084
10762159643
10762171728
10762182226
10762192419
10762201635
10762205602
10762220617
10762231786
10762242590
10762252722
10762257055
10762272314
10762283178
10762292883
10762305883
10762310278
10762324499
10762336339
10762347997
10762358007
10762371923
10762381749
10762386083
10762400670
10762410375
10762421361
10762431737
10762441259
10762455358
10762465551
10762476415
10762485631
10762495275
10762504613
10762514745
10762521886
10762531407
10762540013
10762554784
10762564854
10762574864
10762584142
10762594701
10762603734
10762611119
10762622472
10762632237
10762643468
10762653538
10762665257
10762672947
10762683140
10762693882
10762703160
10762713353
10762722813
10762732335
10762747410
10762756443
10762760472
10762775975
10762782627
10762795567
10762804661
10762808811
10762821690
10762833653
10762845799
10762855930
10762865025
10762873570
10762881748
10762890415
10762899937
10762909336
10762918186
10762931736
10762941196
10762947788
10762960239
10762969639
10762977268
10762985874
10762992771
10763007480
10763014866
10763026706
10763035984
10763045932
10763054416
10763066257
10763075473
10763081699
10763094638
10763103916
10763113559
10763124729
10763131503
10763142856
10763151767
10763162143
10763170688
10763177463
10763187595
10763196811
10763209628
10763222324
10763234164
10763244174
10763256015
10763272311
10763281588
10763302768
10763312106
10763326693
10763337680
10763349520
10763362094
10763372531
10763382174
10763389926
10763403720
10763410250
10763422091
10763431551
10763438754
10763451266
10763460909
10763471529
10763481112
10763489046
10763503512
10763513705
10763523775
10763533297
10763537447
10763553927
10763561129
10763572115
10763581820
10763593233
10763602755
10763614962
10763624910
10763636568
10763643953
10763657564
10763662264
10763677462
10763689058
10763700105
10763710237
10763721712
10763731905
10763738802
10763751070
10763761324
10763769502
10763783235
10763794893
10763804292
10763817049
10763827425
10763837495
10763844819
10763856294
10763865999
10763877229
10763886995
10763894441
10763905671
10763915010
10763927888
10763937593
10763944978
10763957673
10763968171
10763975740
10763988618
10763992890
10764009553
10764016938
10764029939
10764039338
10764043488
10764056977
10764067536
10764079316
10764089204
10764100129
10764109711
10764117097
10764130524
10764137055
10764150178
10764160187
10764167634
10764182221
10764188691
10764201752
10764210358
10764222077
10764230988
10764237946
10764249420
10764258271
10764271393
10764280548
10764287567
10764298493
10764308319
10764319611
10764328278
10764332245
10764347199
10764358185
10764368500
10764378082
10764393402
10764402374
10764412018
10764423920
10764430878
10764446380
10764453155
10764464203
10764477020
10764481476
10764495697
10764506622
10764517852
10764527984
10764535125
10764546295
10764550262
10764564239
10764573577
10764581817
10764589874
10764595916
10764603851
10764611419
10764615936
10764626190
10764631683
10764641692
10764648834
10764657623
10764664825
10764672210
10764678558
10764686858
10764695403
10764704497
10764710967
10764720916
10764727325
10764736236
10764744597
10764751311
10764759856
10764766143
10764774383
10764782683
10764790923
10764795745
10764805510
10764812407
10764821074
10764828154
10764836028
10764842192
10764850798
10764859648
10764865447
10764873686
10764876311
10764888457
10764896758
10764902800
10764911101
10764917326
10764924284
10764933562
10764940337
10764948454
10764957488
10764963225
10764971709
10764979033
10764984709
10764992583
10764999297
10765007658
10765013274
10765022307
10765030485
10765038603
10765045805
10765051542
10765062895
10765067778
10765077299
10765085844
10765093840
10765101469
10765109587
10765116728
10765122892
10765131437
10765137602
10765147001
10765154570
10765163175
10765170072
10765178678
10765186918
10765193327
10765202299
10765211271
10765217558
10765225614
10765234281
10765241300
10765249357
10765257719
10765263944
10765273771
10765282499
10765291044
10765298368
10765307340
10765315458
10765325590
10765331937
10765345548
10765356290
10765364225
10765372648
10765379300
10765389310
10765395047
10765404874
10765411771
10765420743
10765426419
10765435941
10765443753
10765450956
10765458707
10765468656
10765473905
10765483426
10765490628
10765498624
10765505643
10765513150
10765520596
10765529019
10765535306
10765544034
10765550320
10765559048
10765567410
10765574063
10765582486
10765591092
10765597378
10765605862
10765614102
10765619229
10765629605
10765636807
10765644681
10765651883
10765659634
10765665982
10765674405
10765680874
10765689358
10765695645
10765704312
10765710720
10765718045
10765728115
10765735073
10765743069
10765749905
10765757412
10765763638
10765771816
10765780239
10765789028
10765795254
10765800198
10765810757
10765818936
10765825100
10765832180
10765839809
10765848904
10765856716
10765863735
10765871792
10765877956
10765886074
10765894802
10765902798
10765909145
10765918178
10765924526
10765932461
10765939358
10765946316
10765955837
10765962734
10765970669
10765976955
10765985988
10765992519
10766001308
10766007778
10766012661
10766022487
10766031642
10766037990
10766045558
10766053432
10766060451
10766069240
10766076320
10766084987
10766092494
10766100307
10766109584
10766121669
10766129298
10766136745
10766143703
10766154079
10766161220
10766170253
10766176845
10766187709
10766194118
10766202968
10766210414
10766216212
10766224696
10766229579
10766239955
10766245204
10766255092
10766261805
10766271144
10766276576
10766286647
10766293666
10766301539
10766308558
10766316920
10766323207
10766332179
10766338404
10766346034
10766354274
10766361598
10766368067
10766375209
10766384303
10766391505
10766398219
10766407374
10766413538
10766420619
10766428675
10766437098
10766444972
10766451319
10766460352
10766466761
10766471644
10766482203
10766489039
10766496424
10766506007
10766513636
10766520533
10766529261
10766535486
10766544520
10766550928
10766558314
10766566858
10766574793
10766581080
10766589563
10766595972
10766602930
10766611170
10766618067
10766627039
10766634424
10766643396
10766649622
10766658777
10766665247
10766674463
10766682764
10766689234
10766697656
10766704065
10766712305
10766717371
10766727503
10766734399
10766742639
10766749597
10766757105
10766763391
10766772790
10766779016
10766787622
10766793909
10766804529
10766814111
10766819055
10766829492
10766839197
10766845483
10766852441
10766860925
10766867822
10766877343
10766884301
10766891565
10766898156
10766908776
10766916345
10766925195
10766933252
10766940393
10766950158
10766958886
10766966027
10766977807
10766985192
10766992028
10767001611
10767008874
10767016442
10767023950
10767032372
10767041528
10767049767
10767056420
10767064782
10767071191
10767079491
10767087548
10767093835
10767100793
10767110314
10767116967
10767124352
10767133324
10767140587
10767146996
10767155236
10767161522
10767170189
10767178612
10767185570
10767193932
10767200341
10767208825
10767213951
10767223290
10767231102
10767241478
10767246239
10767254967
10767263878
10767271324
10767277672
10767286156
10767292320
10767301048
10767309532
10767315941
10767324181
10767329369
10767339195
10767344017
10767354698
10767362328
10767370201
10767377342
10767386558
10767393577
10767401817
10767408104
10767416710
10767423057
10767432823
10767439171
10767444053
10767455345
10767460289
10767470604
10767475547
10767485435
10767492393
10767500084
10767506431
10767515037
10767521507
10767531517
10767537986
10767546348
10767552635
10767561485
10767569724
10767574668
10767585044
10767590354
10767599754
10767606651
10767613975
10767620628
10767629661
10767637840
10767644248
10767652793
10767659385
10767667686
10767672568
10767682273
10767687339
10767697837
10767705161
10767713462
10767720359
10767727622
10767734702
10767743064
10767751975
10767761130
10767772300
10767779380
10767786521
10767796225
10767803305
10767811667
10767821006
10767829489
10767837302
10767846518
10767853049
10767860800
10767868369
10767874350
10767881919
10767889304
10767896872
10767901389
10767911154
10767915488
10767926047
10767932883
10767940329
10767946738
10767955832
10767964011
10767971152
10767976828
10767984152
10767991782
10767998251
10768005881
10768013327
10768020834
10768028158
10768033835
10768042074
10768048361
10768056418
10768064840
10768069784
10768080160
10768086996
10768096029
10768103048
10768110800
10768116964
10768124899
10768133139
10768141439
10768149679
10768157553
10768165670
10768168600
10768179525
10768188131
10768194479
10768201681
10768210958
10768217855
10768224508
10768230795
10768240621
10768247213
10768254537
10768262777
10768271078
10768277303
10768285543
10768291646
10768298788
10768308065
10768315023
10768323202
10768330465
10768337789
10768343953
10768353597
10768360128
10768368429
10768374837
10768383382
10768389730
10768397298
10768407003
10768414937
10768422994
10768429952
10768438069
10768445394
10768453084
10768461263
10768472676
10768479634
10768490071
10768496968
10768505330
10768512105
10768520467
10768527486
10768536641
10768543416
10768553242
10768562032
10768565449
10768578328
10768586201
10768595235
10768600972
10768610432
10768618733
10768627156
10768634114
10768643574
10768649800
10768657429
10768663716
10768671223
10768679463
10768686665
10768693013
10768700581
10768706501
10768713215
10768720906
10768729328
10768736836
10768743428
10768751057
10768756794
10768764485
10768769978
10768778279
10768782978
10768792744
10768797382
10768807148
10768814411
10768821369
10768827900
10768835896
10768842670
10768850239
10768856647
10768864033
10768869709
10768878803
10768884968
10768892353
10768901142
10768910358
10768917377
10768922748
10768933307
10768941059
10768947468
10768953815
10768960041
10768968952
10768976947
10768983905
10768992084
10769000690
10769003620
10769015094
10769019855
10769029254
10769037433
10769045429
10769050006
10769059528
10769063800
10769071918
10769078205
10769086200
10769092914
10769100971
10769107562
10769116168
10769121845
10769129779
10769137286
10769143634
10769151752
10769158710
10769167010
10769173236
10769180926
10769185626
10769196918
10769205829
10769212115
10769216998
10769227374
10769232501
10769246051
10769253253
10769261065
10769268695
10769277911
10769284442
10769294146
10769299517
10769309893
10769315142
10769326373
10769331866
10769343035
10769351458
10769362261
10769371600
10769380450
10769387652
10769394549
10769400408
10769411578
10769423174
10769431414
10769438921
10769444476
10769452166
10769457964
10769465166
10769472674
10769479937
10769487261
10769493365
10769500689
10769506975
10769514483
10769522356
10769527971
10769536028
10769543291
10769550982
10769556658
10769565264
10769570940
10769576799
10769587053
10769594805
10769602251
10769610002
10769615801
10769622942
10769630449
10769634905
10769644914
10769653276
10769659746
10769666765
10769675066
10769681902
10769689348
10769698320
10769705705
10769712053
10769721330
10769727495
10769736650
10769742998
10769747758
10769758073
10769766130
10769772417
10769779497
10769787248
10769796220
10769802873
10769809038
10769817827
10769824418
10769833146
10769839128
10769844194
10769855302
10769860124
10769871171
10769876176
10769884294
10769890458
10769898942
10769907914
10769914384
10769920549
10769929582
10769938554
10769941484
10769952836
10769957841
10769968583
10769973588
10769984269
10769989274
10769999040
10770005875
10770014542
10770021561
10770028336
10770034684
10770044755
10770051041
10770058549
10770066910
10770069779
10770081315
10770086137
10770096512
10770105118
10770112137
10770120011
10770128434
10770134903
10770143509
10770150223
10770159317
10770168534
10770180191
10770186905
10770196000
10770203629
10770211991
10770219071
10770228043
10770234207
10770240982
10770249649
10770257035
10770265213
10770271195
10770279801
10770284256
10770293289
10770301041
10770307694
10770314102
10770322098
10770328445
10770337479
10770344437
10770352005
10770357864
10770366287
10770371963
10770380325
10770386795
10770395279
10770403702
10770410049
10770418594
10770427261
10770433487
10770438247
10770449356
10770454239
10770463943
10770470840
10770478775
10770485427
10770494461
10770500747
10770510269
10770516677
10770524490
10770533157
10770539932
10770548171
10770553909
10770563857
10770568862
10770579788
10770587722
10770594131
10770600845
10770609512
10770616164
10770626540
10770633193
10770641921
10770648696
10770653945
10770665542
10770670913
10770680801
10770688247
10770696792
10770703628
10770711684
10770718093
10770725173
10770731032
10770737929
10770745681
10770752456
10770760146
10770767592
10770774062
10770782485
10770788222
10770794692
10770802138
10770808852
10770817702
10770823439
10770830702
10770838454
10770843947
10770851637
10770858901
10770864760
10770874404
10770880385
10770886855
10770897353
10770905592
10770914076
10770921339
10770929762
10770938063
10770948073
10770957838
10770969008
10770975600
10770984144
10770992934
10771002211
10771005812
10771017409
10771021925
10771031386
10771039137
10771044874
10771051344
10771060316
10771064894
10771074171
10771080519
10771089125
10771095533
10771102980
10771109266
10771116896
10771122755
10771130567
10771138685
10771145277
10771151014
10771158338
10771165968
10771173170
10771180616
10771187574
10771194898
10771200453
10771212232
10771219495
10771227430
10771235242
10771241590
10771250501
10771258802
10771266004
10771274305
10771282667
10771288953
10771297742
10771304090
10771310926
10771320814
10771325574
10771335462
10771342298
10771349256
10771355298
10771364087
10771372693
10771379651
10771387952
10771395032
10771403272
10771408399
10771416700
10771423780
10771432996
10771440381
10771448255
10771454358
10771462903
10771469068
10771477551
10771485852
10771492871
10771501111
10771510510
10771516736
10771525220
10771531323
10771540417
10771546765
10771552258
10771563061
10771572156
10771579175
10771586011
10771593152
10771599621
10771608227
10771616833
10771624890
10771631054
10771640027
10771646130
10771654736
10771661023
10771668103
10771677258
10771684277
10771691601
10771698010
10771707348
10771719006
10771727124
10771737133
10771746594
10771756909
10771767651
10771778393
10771785656
10771797619
10771803906
10771811962
10771818920
10771825817
10771832714
10771839916
10771846691
10771853039
10771859020
10771865734
10771872631
10771879040
10771885815
10771892895
10771899730
10771906383
10771912487
10771916210
10771925426
10771933239
10771940197
10771944530
10771952770
10771959484
10771967540
10771971996
10771981639
10771986034
10771996166
10772003490
10772010509
10772018566
10772024364
10772032543
10772039684
10772045360
10772053111
10772058849
10772068431
10772074779
10772082591
10772090770
10772097911
10772104198
10772111034
10772119701
10772127330
10772134898
10772142833
10772150951
10772158946
10772164989
10772173961
10772182200
10772189525
10772197398
10772203563
10772210460
10772218028
10772223399
10772230906
10772236277
10772243052
10772252757
10772260142
10772267100
10772274119
10772280894
10772286509
10772293467
10772298716
10772309336
10772317576
10772326548
10772335337
10772341563
10772346324
10772357127
10772362620
10772374156
10772381846
10772389597
10772396494
10772405405
10772411509
10772418528
10772426768
10772435313
10772444224
10772452097
10772461680
10772469981
10772477061
10772487681
10772495859
10772508005
10772513865
10772523203
10772529490
10772542551
10772551523
10772557993
10772567575
10772574594
10772583628
10772589792
10772596872
10772606150
10772612924
10772620859
10772627024
10772635019
10772641428
10772652719
10772658884
10772668466
10772674753
10772683176
10772690378
10772697397
10772706430
10772714609
10772720773
10772729135
10772736093
10772744638
10772751169
10772760141
10772766489
10772773935
10772779733
10772786935
10772792306
10772800363
10772805490
10772815622
10772821664
10772827707
10772833261
10772841440
10772846689
10772853769
10772860666
10772867807
10772875253
10772884408
10772890756
10772898751
10772905038
10772912606
10772918405
10772928536
10772935861
10772945077
10772952523
10772959115
10772968087
10772974801
10772983468
10772991830
10772999581
10773009469
10773018685
10773025521
10773034859
10773042245
10773050973
10773058968
10773068246
10773074410
10773081307
10773089791
10773096810
10773105050
10773111336
10773121529
10773127877
10773135811
10773144539
10773152535
10773158944
10773163765
10773174141
10773179207
10773191292
10773196236
10773206307
10773211190
10773221260
10773228157
10773235543
10773241768
10773251045
10773257393
10773265877
10773274544
10773281990
10773291084
10773297981
10773306648
10773311958
10773325691
10773334236
10773343452
10773351631
10773358589
10773366768
10773374885
10773380073
10773390083
10773394905
10773405464
10773412300
10773418464
10773427070
10773432930
10773441169
10773448311
10773454475
10773463264
10773469429
10773477363
10773485725
10773493232
10773498970
10773506721
10773515022
10773520088
10773530219
10773538215
10773545051
10773552131
10773559272
10773568488
10773576423
10773582893
10773591316
10773597480
10773605537
10773614082
10773619941
10773628974
10773637214
10773645576
10773650581
10773660346
10773668281
10773676337
10773683295
10773689460
10773698859
10773707038
10773713386
10773723517
10773730109
10773738166
10773746466
10773752814
10773761481
10773766791
10773777411
10773782172
10773791938
10773798957
10773806708
10773813788
10773821051
10773830207
10773839545
10773846564
10773853888
10773860175
10773867743
10773876166
10773883795
10773892157
10773899237
10773907416
10773912360
10773921332
10773928534
10773936957
10773943121
10773951788
10773960760
10773967779
10773973822
10773982977
10773991217
10773998053
10774004217
10774012335
10774020453
10774025580
10774034308
10774041143
10774050238
10774057257
10774064337
10774073431
10774080816
10774091009
10774102301
10774107427
10774117193
10774125128
10774136663
10774145147
10774152654
10774160223
10774172308
10774179083
10774187750
10774196111
10774202459
10774210149
10774217596
10774226202
10774231756
10774239080
10774247503
10774255559
10774263189
10774269414
10774276922
10774282171
10774294683
10774300481
10774315313
10774327092
10774334661
10774340459
10774351018
10774360357
10774365972
10774372319
10774381353
10774387700
10774394780
10774401067
10774408757
10774414495
10774425054
10774431523
10774439153
10774444768
10774451726
10774460088
10774466924
10774475224
10774484074
10774492497
10774498296
10774506291
10774514165
10774522221
10774527959
10774535954
10774540959
10774552556
10774560673
10774566655
10774575078
10774581608
10774591374
10774597661
10774606450
10774614567
10774619450
10774630192
10774635014
10774645024
10774652043
10774658940
10774667912
10774674687
10774683476
10774690068
10774698612
10774705326
10774713688
10774720158
10774728398
10774737431
10774743656
10774752812
10774758976
10774767216
10774773319
10774779972
10774788700
10774797001
10774805424
10774810429
10774820805
10774825687
10774836368
10774842899
10774851017
10774856083
10774867069
10774871891
10774882267
10774891544
10774898258
10774905948
10774914066
10774924076
10774934940
10774944217
10774951603
10774960697
10774966800
10774974063
10774982608
10774988895
10774997196
10775003360
10775010623
10775017093
10775024112
10775032535
10775038638
10775047061
10775054569
10775060428
10775068729
10775074344
10775082523
10775089969
10775096927
10775102664
10775110965
10775119083
10775126224
10775132388
10775139285
10775147586
10775154544
10775163272
10775170230
10775178592
10775187564
10775193850
10775203006
10775209109
10775217471
10775224307
10775232669
10775239810
10775248172
10775253115
10775263430
10775268313
10775277835
10775284732
10775293521
10775300479
10775309390
10775316287
10775322940
10775331179
10775338259
10775346621
10775354128
10775360293
10775369936
10775376406
10775384219
10775392641
10775397829
10775410281
10775417178
10775426516
10775434267
10775444521
10775452761
10775459231
10775465456
10775472841
10775480532
10775488161
10775493960
10775499148
10775508791
10775519167
10775526186
10775537661
10775544741
10775555239
10775561403
10775571474
10775578188
10775588076
10775595217
10775602968
10775612001
10775615297
10775629091
10775634462
10775646730
10775649965
10775662233
10775667177
10775676515
10775681642
10775694765
10775700868
10775714296
10775721925
10775730958
10775740663
10775745790
10775757936
10775763246
10775773622
10775785463
10775791200
10775799562
10775805238
10775811525
10775819642
10775826783
10775837037
10775842042
10775851197
10775858155
10775866517
10775873353
10775882325
10775887941
10775896485
10775904054
10775912049
10775918031
10775925782
10775933167
10775939637
10775947205
10775953736
10775961732
10775969483
10775977113
10775981629
10775990052
10775996400
10776004823
10776011842
10776021851
10776058594
10776066956
10776075135
10776083741
10776094117
10776100464
10776106263
10776116456
10776124329
10776131836
10776138001
10776146180
10776153321
10776163269
10776169312
10776178772
10776184754
10776193543
10776200012
10776208496
10776217224
10776225891
10776232361
10776241455
10776250183
10776258545
10776265076
10776275391
10776282043
10776290283
10776300171
10776308228
10776314941
10776324829
10776331665
10776340881
10776347717
10776357422
10776364319
10776369690
10776381225
10776388855
10776396118
10776402771
10776412109
10776424133
10776432495
10776439758
10776448974
10776456420
10776464294
10776474609
10776482605
10776490051
10776499389
10776507446
10776519470
10776526306
10776536071
10776543762
10776550109
10776558837
10776566528
10776571227
10776580566
10776587890
10776595824
10776602050
10776609557
10776614013
10776623107
10776632262
10776639648
10776644103
10776652526
10776658874
10776667663
10776674071
10776681457
10776687987
10776694823
10776702941
10776708922
10776717162
10776722777
10776730346
10776737609
10776743468
10776753173
10776761290
10776768431
10776774657
10776782775
10776789672
10776794554
10776804259
10776808715
10776818236
10776822814
10776832518
10776839598
10776848143
10776855223
10776862792
10776869139
10776878416
10776884520
10776892943
10776901244
10776911742
10776920592
10776929014
10776938170
10776945555
10776954405
10776962401
10776970762
10776979002
10776988341
10776995970
10777002928
10777012144
10777021299
10777026732
10777038694
10777045042
10777054686
10777061644
10777070494
10777079222
10777086790
10777093687
10777103208
10777108885
10777116026
10777124021
10777131956
10777139768
10777148435
10777154356
10777161863
10777169492
10777175657
10777183347
10777191038
10777196836
10777204038
10777212583
10777219663
10777227537
10777234006
10777240537
10777246396
10777254087
10777262388
10777273740
10777281492
10777289853
10777295469
10777303953
10777309507
10777316709
10777324765
10777333921
10777339719
10777347898
10777353269
10777360288
10777367490
10777374265
10777381284
10777389402
10777395749
10777404111
10777409909
10777417539
10777423276
10777429868
10777438657
10777445737
10777455747
10777460812
10777469479
10777475949
10777483395
10777489987
10777497006
10777505124
10777511472
10777517941
10777524899
10777533261
10777539059
10777547177
10777554257
10777560238
10777569638
10777575741
10777583981
10777589474
10777597897
10777605649
10777611813
10777618771
10777626461
10777634335
10777640988
10777646908
10777651303
10777661312
10777668942
10777674618
10777681393
10777690914
10777698544
10777704403
10777710873
10777718441
10777725155
10777732968
10777739010
10777749935
10777756771
10777763607
10777769344
10777777035
10777784664
10777791378
10777797298
10777805233
10777813168
10777821712
10777830807
10777838619
10777848629
10777857845
10777868404
10777878231
10777886654
10777896358
10777906246
10777915279
10777919490
10777934139
10777945369
10777956295
10777966487
10777972042
10777987422
10777994441
10778007076
10778017269
10778028072
10778037532
10778041560
10778054927
10778064021
10778078304
10778088191
10778102351
10778114619
10778122432
10778135493
10778146663
10778157039
10778166865
10778179805
10778191157
10778199824
10778212092
10778222346
10778232478
10778244685
10778253657
10778265376
10778271235
10778284114
10778292597
10778300837
10778311274
10778319697
10778328120
10778337885
10778347773
10778356501
10778369074
10778377863
10778388117
10778397089
10778406489
10778416682
10778425837
10778429987
10778442316
10778452387
10778464106
10778470698
10778483210
10778491755
10778501581
10778510187
10778519892
10778528803
10778538141
10778548944
10778558649
10778568964
10778579218
10778588373
10778598810
10778608393
10778615595
10778627802
10778637384
10778647394
10778655878
10778662653
10778674677
10778684198
10778693719
10778702447
10778710687
10778719476
10778729547
10778743219
10778754449
10778765069
10778773736
10778783624
10778792291
10778798089
10778810907
10778820184
10778831231
10778841546
10778848931
10778860711
10778871331
10778880426
10778892510
10778896539
10778909905
10778917230
10778929681
10778940179
10778952325
10778961663
10778972039
10778981133
10778991387
10779001519
10779010735
10779016350
10779031304
10779041802
10779053521
10779063836
10779076775
10779088372
10779098992
10779109124
10779122612
10779132500
10779139824
10779150688
10779159966
10779164177
10779183098
10779190117
10779199272
10779208855
10779222466
10779232353
10779239555
10779251762
10779261955
10779272697
10779282402
10779291985
10779301445
10779313286
10779323662
10779334221
10779346428
10779356743
10779365043
10779380058
10779387687
10779400383
10779410148
10779420036
10779434379
10779445732
10779455558
10779463798
10779467338
10779481986
10779488395
10779499381
10779508964
10779519218
10779527641
10779537162
10779545158
10779551383
10779563346
10779568717
10779580253
10779588432
10779599296
10779608634
10779615653
10779627311
10779636100
10779647697
10779657462
10779662284
10779675345
10779686332
10779698844
10779708915
10779716788
10779725699
10779736930
10779745902
10779755484
10779764151
10779772818
10779782584
10779791617
10779802298
10779814017
10779825552
10779837393
10779848624
10779860098
10779870413
10779884146
10779894339
10779902396
10779913931
10779924734
10779937124
10779947195
10779955374
10779969595
10779976370
10779989981
10780000601
10780007986
10780018728
10780028006
10780040457
10780050161
10780058218
10780067678
10780077383
10780090872
10780100820
10780108022
10780120718
10780131155
10780139700
10780152334
10780156484
10780169302
10780180349
10780194143
10780200613
10780212575
10780221487
10780228200
10780239126
10780248830
10780257802
10780266713
10780274587
10780290395
10780298146
10780309926
10780321706
10780333608
10780343862
10780356679
10780366811
10780375051
10780387563
10780399159
10780409230
10780419423
10780423879
10780440236
10780451344
10780462270
10780471547
10780475148
10780487538
10780497182
10780503590
10780510915
10780518544
10780523122
10780534108
10780538930
10780549916
10780558156
10780567311
10780576161
10780583363
10780591176
10780597218
10780602711
10780610707
10780616444
10780622425
10780628285
10780633351
10780638966
10780643421
10780648487
10780653736
10780660084
10780664418
10780669911
10780674977
10780680165
10780685719
10780690113
10780696766
10780701710
10780707935
10780714283
10780718861
10780724415
10780729115
10780734852
10780742054
10780748219
10780753162
10780758961
10780763660
10780769764
10780773121
10780779835
10780783680
10780790760
10780796131
10780801624
10780806263
10780811695
10780817921
10780823292
10780827503
10780835560
10780840137
10780846241
10780850879
10780856678
10780862232
10780867237
10780871509
10780878772
10780884571
10780888233
10780895191
10780898609
10780905018
10780909656
10780916248
10780921436
10780928699
10780933826
10780939075
10780943775
10780950244
10780956836
10780961902
10780967456
10780976367
10780982715
10780988330
10780993640
10780999805
10781004932
10781010974
10781015735
10781022693
10781027393
10781033618
10781039478
10781043384
10781052173
10781056445
10781065540
10781071948
10781078723
10781083423
10781089099
10781094592
10781101123
10781107349
10781114307
10781121203
10781126819
10781133899
10781139697
10781143970
10781148913
10781155810
10781160815
10781168322
10781173266
10781179248
10781182116
10781188159
10781190966
10781197436
10781202441
10781207812
10781213244
10781217456
10781220691
10781227343
10781230517
10781237719
10781242907
10781250354
10781256579
10781260791
10781265429
10781271289
10781275927
10781281726
10781285937
10781293322
10781298693
10781304492
10781308642
10781314501
10781318896
10781324084
10781329577
10781333483
10781342028
10781347948
10781352404
10781355639
10781363207
10781368090
10781373644
10781379198
10781386523
10781391527
10781396166
10781400927
10781407152
10781411425
10781416735
10781422350
10781429003
10781433947
10781440539
10781445116
10781448717
10781456530
10781461901
10781466234
10781472460
10781479418
10781487413
10781492968
10781499193
10781504198
10781509996
10781515551
10781519396
10781527147
10781532335
10781538134
10781541368
10781548387
10781551866
10781558885
10781564196
10781569872
10781575182
10781581652
10781586778
10781592394
10781596849
10781602648
10781608141
10781610460
10781619188
10781621019
10781629747
10781634142
10781640306
10781643602
10781649645
10781654894
10781661668
10781665330
10781671861
10781677476
10781684740
10781689867
10781697130
10781702318
10781708787
10781716234
10781721727
10781728929
10781734544
10781741563
10781746263
10781753404
10781758470
10781763414
10781768968
10781775132
10781779832
10781784105
10781790696
10781794847
10781801500
10781805955
10781812059
10781817674
10781822313
10781827745
10781831773
10781838182
10781841966
10781850633
10781856370
10781862107
10781865708
10781871934
10781876206
10781880723
10781884507
10781893540
10781898728
10781904527
10781909837
10781915574
10781919907
10781924973
10781930039
10781936936
10781941514
10781947617
10781951829
10781957627
10781961655
10781967088
10781971055
10781978989
10781984360
10781989548
10781994981
10781999497
10782005112
10782010117
10782016160
10782022080
10782026536
10782033677
10782037705
10782043503
10782049302
10782054490
10782058823
10782065537
10782072373
10782077195
10782082810
10782087815
10782092148
10782095383
10782102280
10782105881
10782113511
10782117722
10782124802
10782129319
10782134384
10782139084
10782144333
10782148606
10782156418
10782161362
10782166672
10782173020
10782178024
10782183335
10782189377
10782197312
10782201340
10782210312
10782217087
10782224716
10782230576
10782235336
10782242783
10782248764
10782254562
10782262680
10782269333
10782277328
10782284592
10782287338
10782300156
10782302841
10782313766
10782321579
10782328293
10782335556
10782339218
10782351120
10782359604
10782370041
10782377853
10782386154
10782393478
10782399398
10782408065
10782411789
10782423019
10782428939
10782438827
10782445663
10782452499
10782459335
10782467575
10782474533
10782481063
10782492660
10782497726
10782505416
10782511276
10782519393
10782525558
10782528365
10782537643
10782545333
10782553390
10782559920
10782567733
10782573959
10782578963
10782586227
10782592208
10782600814
10782606917
10782612411
10782623946
10782629867
10782639693
10782645675
10782653060
10782659469
10782664168
10782671004
10782676986
10782686873
10782694136
10782701278
10782707625
10782712508
10782719710
10782725875
10782728560
10782738570
10782746016
10782753646
10782760359
10782769026
10782775130
10782780928
10782787337
10782793257
10782796370
10782807601
10782813033
10782823531
10782829451
10782840010
10782843977
10782852522
10782858443
10782863203
10782870528
10782876387
10782884444
10782893416
10782896590
10782908186
10782913191
10782920576
10782926619
10782929487
10782938154
10782945540
10782953596
10782961592
10782968733
10782974958
10782977766
10782987776
10782994551
10783000288
10783006819
10783012312
10783020857
10783029585
10783035871
10783043074
10783050764
10783058454
10783067488
10783074385
10783078718
10783092756
10783098127
10783106550
10783114790
10783123518
10783130598
10783136091
10783144880
10783153669
10783162214
10783177351
10783184736
10783190229
10783201337
10783208173
10783215436
10783221601
10783227338
10783238263
10783244855
10783251447
10783257490
10783264997
10783271161
10783275617
10783283551
10783290570
10783299604
10783305219
10783310773
10783318097
10783324628
10783331464
10783337323
10783345136
10783351117
10783354047
10783364911
10783369428
10783378095
10783384442
10783390485
10783398969
10783405133
10783412213
10783419965
10783428143
10783434186
10783442120
10783448102
10783452679
10783461163
10783467755
10783473920
10783479840
10783485577
10783499005
10783507367
10783514020
10783518963
10783528363
10783537518
10783544049
10783551434
10783560833
10783568158
10783573834
10783583477
10783588055
10783591107
10783604718
10783607830
10783617901
10783625775
10783633953
10783641156
10783649517
10783656170
10783661724
10783671490
10783678143
10783681256
10783691998
10783699932
10783710674
10783718426
10783721294
10783731121
10783738934
10783747601
10783754559
10783757732
10783767559
10783776470
10783784344
10783792827
10783800152
10783807476
10783814434
10783822491
10783830608
10783836529
10783843548
10783849712
10783861675
10783870037
10783877910
10783884929
10783888347
10783898052
10783905681
10783913555
10783920513
10783931682
10783939128
10783943889
10783953960
10783961162
10783967388
10783974040
10783981548
10783988017
10783993327
10784004253
10784013164
10784021159
10784029338
10784032939
10784043864
10784051921
10784060344
10784066936
10784077190
10784086894
10784097636
10784104472
10784110881
10784116801
10784121806
10784131694
10784136699
10784147075
10784154765
10784161357
10784168681
10784177043
10784182963
10784190532
10784196513
10784203654
10784211344
10784218302
10784223857
10784232463
10784235697
10784246318
10784251383
10784258830
10784265177
10784274577
10784281291
10784287821
10784293864
10784298564
10784306803
10784312785
10784320292
10784326273
10784331767
10784341105
10784343790
10784353373
10784357645
10784366373
10784370524
10784378275
10784382304
10784391947
10784395914
10784403055
10784408610
10784415201
10784420817
10784428263
10784433939
10784440775
10784446451
10784452250
10784456766
10784462870
10784467630
10784471170
10784478739
10784484842
10784492716
10784497171
10784503885
10784509500
10784516275
10784521402
10784527079
10784531961
10784538065
10784544535
10784549600
10784554666
10784561197
10784567301
10784571024
10784577432
10784582987
10784591043
10784596964
10784603250
10784608255
10784613870
10784619791
10784625284
10784630106
10784634134
10784643350
10784650430
10784655252
10784660318
10784666421
10784671731
10784677835
10784683206
10784693155
10784698038
10784704507
10784709573
10784716165
10784723733
10784728128
10784735269
10784739602
10784747964
10784752786
10784762124
10784765603
10784773416
10784776895
10784783670
10784789834
10784796853
10784800393
10784806497
10784812173
10784817727
10784821023
10784828469
10784832009
10784839700
10784843484
10784849526
10784854226
10784859658
10784864358
10784870156
10784876443
10784881997
10784887124
10784893044
10784897866
10784902749
10784906899
10784913613
10784918008
10784924477
10784930093
10784934792
10784940774
10784946999
10784951638
10784958169
10784962746
10784968606
10784975136
10784980447
10784986611
10784990212
10784997292
10785002419
10785007973
10785013283
10785020119
10785025246
10785031472
10785038186
10785042946
10785049111
10785054604
10785059243
10785064858
10785071755
10785078652
10785083352
10785088601
10785095253
10785100563
10785105690
10785112038
10785119301
10785124672
10785131447
10785136452
10785142983
10785147316
10785152382
10785158730
10785164711
10785171303
10785177101
10785184853
10785190346
10785195961
10785200783
10785206398
10785210976
10785219704
10785224892
10785230873
10785237526
10785243202
10785249611
10785253273
10785259743
10785265541
10785274086
10785277992
10785284401
10785290138
10785296059
10785302833
10785307228
10785313453
10785320534
10785325966
10785334694
10785340065
10785347145
10785352821
10785360206
10785364845
10785372535
10785378822
10785385353
10785391761
10785395546
10785400123
10785406349
10785409828
10785417945
10785422035
10785429420
10785432716
10785439247
10785443885
10785449928
10785454933
10785460914
10785467323
10785472450
10785476722
10785481666
10785487220
10785494056
10785499732
10785505531
10785511451
10785516273
10785522254
10785527992
10785534461
10785540199
10785546485
10785552772
10785558936
10785564307
10785569068
10785572669
10785580726
10785584571
10785591041
10785596656
10785603370
10785608863
10785614417
10785621070
10785625953
10785630835
10785637366
10785641883
10785645972
10785655127
10785659034
10785665809
10785671546
10785676551
10785681372
10785687720
10785692237
10785701453
10785706519
10785713721
10785718726
10785722815
10785729285
10785734473
10785741126
10785746619
10785752356
10785757422
10785764319
10785769080
10785775244
10785781531
10785786597
10785792944
10785796973
10785806616
10785810523
10785816382
10785822241
10785828162
10785834937
10785840063
10785844702
10785851721
10785856726
10785863379
10785868262
10785874060
10785878638
10785883887
10785889868
10785894873
10785904700
10785911108
10785917578
10785923437
10785929419
10785935827
10785944861
10785952734
10785959936
10785970068
10785978979
10785984594
10785994848
10786003454
10786009497
10786017858
10786023901
10786032934
10786040686
10786050268
10786055029
10786062658
10786069555
10786077856
10786083776
10786090551
10786096655
10786102575
10786112035
10786118688
10786125585
10786132665
10786138036
10786150610
10786155920
10786164403
10786171850
10786181676
10786189245
10786196081
10786203222
10786210546
10786216283
10786225499
10786228429
10786238622
10786246984
10786254430
10786261937
10786269140
10786276281
10786283788
10786292028
10786299291
10786306188
10786313146
10786321202
10786331151
10786339940
10786346715
10786356542
10786374486
10786383946
10786391515
10786398168
10786409093
10786416356
10786421666
10786432042
10786438145
10786447057
10786453953
10786462559
10786469334
10786475133
10786485142
10786491490
10786500706
10786507481
10786515111
10786522496
10786527684
10786535191
10786542210
10786545445
10786559727
10786565831
10786572911
10786579686
10786587132
10786594212
10786601719
10786610081
10786615025
10786624851
10786632359
10786637608
10786647007
10786654270
10786660496
10786667027
10786673435
10786679905
10786687473
10786695835
10786702854
10786709812
10786716465
10786724705
10786731358
10786738377
10786745640
10786752415
10786759495
10786766636
10786774937
10786781284
10786788120
10786796726
10786803623
10786809238
10786816562
10786823459
10786829685
10786840915
10786852695
10786859104
10786864597
10786875766
10786879856
10786890964
10786899997
10786909153
10786918064
10786929172
10786941867
10786948398
10786954502
10786962680
10786968540
10786976108
10786981967
10786987094
10786996127
10787002658
10787010226
10787016879
10787023166
10787029147
10787034885
10787045200
10787050204
10787057834
10787063876
10787071994
10787078036
10787080661
10787092258
10787097568
10787108249
10787115268
10787121371
10787127658
10787135531
10787141330
10787145968
10787153659
10787160006
10787169894
10787177279
10787184787
10787191256
10787198519
10787205172
10787211825
10787219332
10787225741
10787231173
10787240451
10787247958
10787256075
10787262728
10787265475
10787274569
10787281161
10787288607
10787294955
10787302523
10787310458
10787313265
10787322909
10787329867
10787336520
10787343172
10787350619
10787357760
10787362643
10787372225
10787377535
10787385836
10787392489
10787398897
10787405550
10787410555
10787419161
10787425387
10787435824
10787442904
10787445772
10787456209
10787461947
10787470186
10787476900
10787485079
10787491487
10787497347
10787506929
10787513948
10787519564
10787526399
10787534151
10787541536
10787546846
10787556001
10787563265
10787572359
10787579866
10787582735
10787595613
10787609041
10787621065
10787633333
10787640352
10787648897
10787657014
10787669954
10787681734
10787686616
10787704072
10787711580
10787719148
10787727205
10787730867
10787743074
10787755281
10787761262
10787766816
10787776582
10787781953
10787792817
10787798371
10787807893
10787812593
10787823091
10787829438
10787834504
10787841157
10787845674
10787849946
10787855805
10787861604
10787868134
10787873994
10787879487
10787885468
10787891023
10787895539
10787901521
10787907746
10787914094
10787919282
10787925813
10787930146
10787936494
10787940766
10787945405
10787951020
10787956086
10787963837
10787969147
10787974457
10787979279
10787984162
10787990388
10787995270
10787999543
10788006196
10788012848
10788018403
10788024140
10788029633
10788034150
10788040314
10788045136
10788050812
10788058442
10788064301
10788076264
10788083649
10788092804
10788098297
10788105316
10788109101
10788118439
10788122040
10788129120
10788134674
10788142792
10788146820
10788154205
10788160126
10788168121
10788172455
10788180756
10788186432
10788192413
10788197784
10788203278
10788210297
10788214874
10788222504
10788227631
10788231903
10788238129
10788242462
10788248505
10788254669
10788261993
10788267242
10788273285
10788278290
10788283966
10788288971
10788295318
10788300567
10788306732
10788311981
10788318878
10788325226
10788332245
10788337982
10788344146
10788350250
10788355987
10788365265
10788371002
10788375030
10788383331
10788389679
10788396881
10788402618
10788412261
10788416107
10788423553
10788429656
10788434722
10788439422
10788443572
10788449798
10788453277
10788459442
10788464752
10788470123
10788474273
10788480010
10788482147
10788490752
10788496734
10788500701
10788506438
10788512664
10788519744
10788525787
10788531158
10788536163
10788540801
10788547271
10788552642
10788556792
10788563994
10788567779
10788574981
10788580535
10788585357
10788591704
10788597930
10788601165
10788607268
10788612334
10788616973
10788622405
10788627715
10788632049
10788637420
10788640838
10788647307
10788653838
10788659270
10788663970
10788668975
10788674468
10788680266
10788686431
10788692412
10788696501
10788701934
10788707122
10788711272
10788717314
10788723540
10788729949
10788735869
10788740874
10788746306
10788749724
10788756743
10788763945
10788769743
10788776701
10788781279
10788786711
10788792693
10788798125
10788801421
10788808501
10788815703
10788820952
10788825468
10788832121
