11008195634
11008200456
11008206315
11008211565
11008217180
11008222063
11008227006
11008232438
11008238786
11008245256
11008250993
11008256425
11008261857
11008266984
11008274064
11008279496
11008285661
11008291459
11008297319
11008304155
11008310929
11008317765
11008323198
11008329240
11008336991
11008344438
11008354753
11008360795
11008371598
11008381181
11008387712
11008393693
11008399552
11008406754
11008413346
11008419877
11008426347
11008432511
11008438554
11008443681
11008448685
11008453202
11008456803
11008463761
11008469620
11008476029
11008479996
11008485795
11008490250
11008494889
11008500443
11008505387
11008509415
11008515092
11008519913
11008524796
11008528763
11008535416
11008541276
11008547135
11008552628
11008557694
11008563431
11008567765
11008575150
11008579911
11008587906
11008594010
11008599869
11008606827
11008611771
11008618668
11008624466
11008631363
11008637406
11008643021
11008649857
11008655045
11008662613
11008665970
11008674515
11008679886
11008685440
11008690994
11008697220
11008704361
11008709610
11008715836
11008721207
11008732498
11008738846
11008743851
11008749527
11008757095
11008763260
11008769241
11008776627
11008781509
11008789505
11008794571
11008801285
11008807144
11008812881
11008820511
11008825271
11008832718
11008841079
11008847671
11008855179
11008861343
11008867325
11008872268
11008881057
11008887954
11008894363
11008901504
11008909134
11008915847
11008922012
11008929153
11008935928
11008942642
11008947952
11008953567
11008961379
11008967300
11008972976
11008979995
11008985793
11008992141
11008997024
11009003921
11009010269
11009016128
11009020339
11009029067
11009032607
11009042434
11009047500
11009053909
11009061904
11009067031
11009075698
11009081924
11009088393
11009095901
11009101333
11009107314
11009112380
11009120437
11009127090
11009134414
11009141067
11009147231
11009154494
11009160354
11009168837
11009174147
11009182631
11009188857
11009195144
11009201247
11009208022
11009214919
11009222243
11009229567
11009235244
11009242751
11009250197
11009256545
11009266371
11009274184
11009280654
11009289565
11009295180
11009305007
11009310805
11009318556
11009323744
11009331801
11009339491
11009347853
11009355788
11009363783
11009370314
11009378004
11009386488
11009392470
11009399489
11009404738
11009412916
11009418410
11009425551
11009433729
11009440260
11009446364
11009453993
11009460035
11009469374
11009476881
11009484755
11009493055
11009501112
11009507765
11009514540
11009523878
11009533644
11009540846
11009548475
11009554151
11009561476
11009568189
11009575086
11009580213
11009587171
11009593519
11009603529
11009609815
11009616224
11009621473
11009628980
11009634412
11009642164
11009650037
11009658826
11009666700
11009673292
11009680189
11009688367
11009694105
11009700819
11009709547
11009719007
11009725965
11009731702
11009738111
11009747510
11009755201
11009763196
11009773999
11009780225
11009788953
11009795484
11009803296
11009810498
11009817090
11009825452
11009833020
11009838880
11009847974
11009854138
11009863233
11009869824
11009876233
11009884107
11009892590
11009900830
11009906690
11009913403
11009922009
11009926770
11009935010
11009943921
11009951306
11009959790
11009967053
11009977429
11009983227
11009993176
11009997815
11010007275
11010014538
11010021985
11010028149
11010035657
11010042004
11010049389
11010055615
11010065808
11010070141
11010080212
11010087475
11010094311
11010100537
11010107556
11010113903
11010123547
11010130627
11010137097
11010143505
11010151135
11010157055
11010165295
11010175793
11010184155
11010191479
11010199474
11010206310
11010214428
11010220837
11010229198
11010235363
11010246044
11010253307
11010259777
11010266430
11010273571
11010280590
11010288647
11010296581
11010305858
11010310741
11010319897
11010323803
11010335521
11010340770
11010351879
11010360302
11010367626
11010374645
11010382579
11010391430
11010397716
11010405529
11010412609
11010421459
11010425914
11010435497
11010439952
11010449596
11010454112
11010463817
11010470104
11010479686
11010488109
11010495738
11010503368
11010509044
11010518565
11010522960
11010533153
11010539500
11010547618
11010556834
11010565013
11010573253
11010579478
11010587047
11010595225
11010602183
11010607860
11010617198
11010623546
11010630504
11010637462
11010645396
11010652171
11010659984
11010663829
11010676341
11010680796
11010690196
11010697825
11010707042
11010711863
11010719981
11010726451
11010735911
11010740672
11010750743
11010756175
11010765635
11010774180
11010781443
11010787974
11010796092
11010803904
11010812266
11010820567
11010826792
11010835276
11010840830
11010849680
11010855418
11010862864
11010869089
11010879832
11010887095
11010895029
11010903452
11010910532
11010916880
11010924814
11010931711
11010941050
11010947886
11010956308
11010961985
11010970530
11010977182
11010986094
11010994516
11011004648
11011014658
11011024179
11011032785
11011038584
11011047067
11011053415
11011063425
11011067575
11011077951
11011081918
11011090769
11011097116
11011105356
11011113901
11011120981
11011128122
11011137155
11011143137
11011153818
11011163705
11011170053
11011178354
11011185007
11011192819
11011200448
11011207651
11011215097
11011221872
11011230356
11011239328
11011245553
11011253122
11011259408
11011266977
11011274728
11011281320
11011287484
11011297372
11011303353
11011311227
11011316903
11011325082
11011332345
11011339669
11011346078
11011356942
11011362924
11011370736
11011376412
11011384225
11011390695
11011400460
11011409493
11011417245
11011424142
11011432931
11011439462
11011446420
11011452767
11011460397
11011466744
11011477120
11011484200
11011490914
11011498910
11011505379
11011511666
11011520455
11011529854
11011538582
11011543465
11011552132
11011558907
11011565743
11011573555
11011580758
11011586800
11011596260
11011604317
11011610848
11011617134
11011624153
11011630318
11011640328
11011647896
11011655098
11011662850
11011671639
11011677742
11011687447
11011696480
11011702767
11011711433
11011718636
11011727669
11011733894
11011741035
11011746773
11011755135
11011761116
11011773384
11011779732
11011787849
11011793342
11011800423
11011809822
11011816475
11011822883
11011831856
11011840278
11011847114
11011853340
11011860847
11011866523
11011875190
11011881233
11011891059
11011898323
11011905342
11011910835
11011919624
11011925971
11011935493
11011944343
11011951911
11011959297
11011966987
11011973029
11011982307
11011988593
11011995918
11012002204
11012012153
11012019172
11012025459
11012033820
11012039558
11012047736
11012054877
11012062568
11012070747
11012077888
11012084540
11012092536
11012098945
11012104682
11012113776
11012120551
11012128669
11012135627
11012142157
11012148444
11012156806
11012163276
11012171210
11012178778
11012185920
11012191962
11012201361
11012207953
11012214606
11012223212
11012230231
11012236945
11012244208
11012251044
11012259833
11012266486
11012273017
11012278876
11012286932
11012293158
11012304816
11012312201
11012319952
11012326666
11012333380
11012338934
11012347784
11012354559
11012363776
11012370245
11012379156
11012386114
11012396185
11012403448
11012411261
11012417242
11012428045
11012438238
11012446234
11012452459
11012460455
11012466925
11012476080
11012484991
11012491217
11012499212
11012507391
11012514288
11012520086
11012529486
11012533758
11012543463
11012550665
11012558355
11012564642
11012571539
11012577154
11012585211
11012591558
11012601995
11012608526
11012615362
11012621160
11012629156
11012637090
11012643316
11012652044
11012660406
11012667242
11012674322
11012680425
11012689092
11012695379
11012703252
11012709417
11012719243
11012725408
11012734258
11012740667
11012748723
11012754155
11012761602
11012768132
11012776494
11012785588
11012791631
11012799626
11012806523
11012812566
11012819951
11012826604
11012837224
11012842961
11012851384
11012857305
11012865117
11012872930
11012879704
11012886479
11012895451
11012902043
11012908879
11012914983
11012923405
11012929387
11012938298
11012945805
11012954655
11012962163
11012970158
11012976384
11012984746
11012991765
11012998356
11013007451
11013014226
11013022709
11013029362
11013034672
11013044865
11013053105
11013062626
11013069951
11013076970
11013085026
11013092472
11013099003
11013104924
11013116093
11013121220
11013132023
11013139897
11013149845
11013157292
11013164738
11013171757
11013179875
11013186649
11013195622
11013200687
11013210148
11013216801
11013224247
11013230656
11013238895
11013247074
11013254215
11013262333
11013268925
11013276615
11013283695
11013292850
11013299442
11013308536
11013314762
11013323429
11013329288
11013336918
11013344913
11013351139
11013357731
11013368717
11013375248
11013383121
11013390262
11013396854
11013403263
11013410709
11013418582
11013427677
11013433231
11013442569
11013447208
11013456912
11013464237
11013472415
11013480716
11013488773
11013496585
11013502811
11013511356
11013517154
11013525211
11013534061
11013543765
11013550113
11013557498
11013565005
11013571780
11013579288
11013587222
11013593875
11013602603
11013609134
11013617679
11013623965
11013631411
11013639651
11013647525
11013653872
11013663333
11013669375
11013677920
11013683596
11013691348
11013696963
11013705264
11013712100
11013720095
11013729251
11013735354
11013743411
11013749087
11013756533
11013764285
11013771060
11013780764
11013787112
11013796755
11013800662
11013811648
11013818240
11013824587
11013832461
11013840456
11013847414
11013855105
11013861391
11013871462
11013878298
11013886111
11013893557
11013903078
11013910402
11013919253
11013923281
11013934145
11013938845
11013948366
11013954714
11013965090
11013971132
11013979616
11013986391
11013993898
11014001772
11014007326
11014017153
11014023378
11014029970
11014038576
11014046022
11014051882
11014059145
11014067201
11014076662
11014082643
11014090700
11014096681
11014102907
11014111635
11014118105
11014126039
11014134828
11014142641
11014148744
11014156435
11014163698
11014171144
11014177064
11014185365
11014194642
11014200563
11014208253
11014213991
11014222291
11014228090
11014236146
11014244081
11014252076
11014258424
11014266725
11014272889
11014279664
11014288087
11014296022
11014301820
11014310548
11014318482
11014326112
11014332582
11014341065
11014346436
11014354981
11014362733
11014370789
11014376893
11014385926
11014392335
11014400147
11014407716
11014415040
11014421143
11014430177
11014436341
11014444581
11014450928
11014459290
11014467408
11014473633
11014480225
11014492615
11014500001
11014506714
11014513611
11014522217
11014527161
11014536438
11014543396
11014553040
11014558899
11014568238
11014576477
11014584290
11014591675
11014598389
11014609070
11014615296
11014624390
11014630371
11014640137
11014647583
11014654114
11014660950
11014669495
11014675659
11014684937
11014690735
11014699341
11014705933
11014714172
11014721619
11014731140
11014739075
11014745788
11014752685
11014762268
11014767212
11014776550
11014784851
11014792480
11014799866
11014807251
11014814514
11014822693
11014831421
11014838195
11014848205
11014855529
11014863464
11014869873
11014878295
11014884704
11014892272
11014900146
11014907714
11014914672
11014923522
11014929992
11014937011
11014943420
11014951415
11014958618
11014968200
11014975707
11014982299
11014988708
11014995727
11015002258
11015010741
11015017699
11015026794
11015033446
11015041808
11015047423
11015055419
11015061339
11015070800
11015077880
11015086669
11015093383
11015101439
11015106261
11015115600
11015122497
11015129393
11015134398
11015146361
11015154357
11015160155
11015167113
11015175536
11015182067
11015189086
11015195861
11015205809
11015211241
11015220397
11015224242
11015234923
11015239012
11015248778
11015253722
11015264708
11015269713
11015279967
11015286742
11015293456
11015300108
11015307738
11015314452
11015323058
11015329100
11015338866
11015346495
11015352965
11015361143
11015369017
11015376524
11015384825
11015393187
11015399229
11015407164
11015413328
11015422423
11015430357
11015439390
11015443968
11015454344
11015461180
11015468748
11015474913
11015484251
11015491758
11015500547
11015508116
11015514341
11015520994
11015529173
11015533628
11015542356
11015552549
11015559263
11015568235
11015576841
11015584531
11015592588
11015599668
11015606321
11015615659
11015621885
11015631467
11015637876
11015645750
11015651792
11015660459
11015667417
11015674924
11015681699
11015690305
11015697934
11015704465
11015710630
11015718564
11015725400
11015734067
11015739194
11015747068
11015753232
11015762876
11015769468
11015776120
11015783994
11015795590
11015803708
11015811948
11015820737
11015827756
11015835690
11015844052
11015851621
11015859555
11015866147
11015873898
11015880368
11015888730
11015896481
11015905759
11015914182
11015921017
11015928342
11015934689
11015943539
11015949216
11015957455
11015964230
11015975033
11015980466
11015989316
11015995175
11016003171
11016008969
11016017941
11016024289
11016034054
11016041317
11016048886
11016054806
11016063717
11016070980
11016080014
11016084591
11016096310
11016101071
11016111874
11016116818
11016127621
11016138302
11016144711
11016153134
11016160458
11016169125
11016175167
11016183895
11016190060
11016197933
11016205441
11016214046
11016220760
11016228878
11016236568
11016242855
11016250851
11016257259
11016265377
11016273495
11016279598
11016288509
11016294185
11016300716
11016308407
11016316402
11016323848
11016332393
11016339290
11016347835
11016354854
11016362423
11016368831
11016376766
11016387386
11016393611
11016402950
11016411128
11016417964
11016426937
11016436336
11016444270
11016453121
11016460384
11016468196
11016474666
11016481014
11016489009
11016496822
11016504756
11016514033
11016521175
11016529658
11016535518
11016544124
11016553096
11016558772
11016568172
11016574214
11016582393
11016590571
11016598018
11016603694
11016612239
11016618831
11016628840
11016635554
11016642939
11016649043
11016657100
11016663203
11016671687
11016678096
11016687617
11016694087
11016701045
11016709345
11016716059
11016721797
11016729792
11016738215
11016746821
11016753108
11016762019
11016768427
11016776850
11016782771
11016791499
11016797663
11016805964
11016812006
11016820551
11016826533
11016835200
11016841242
11016851130
11016858210
11016866755
11016875422
11016882929
11016888605
11016898066
11016906061
11016914240
11016920771
11016929377
11016934320
11016944086
11016952509
11016958307
11016964716
11016973566
11016981806
11016989679
11016997919
11017006464
11017014032
11017022211
11017030939
11017037226
11017046686
11017052728
11017060358
11017068659
11017074762
11017082880
11017089410
11017095819
11017105035
11017113336
11017119989
11017125665
11017132867
11017141290
11017147943
11017154718
11017164606
11017170770
11017179437
11017185602
11017194024
11017200006
11017208490
11017214654
11017223260
11017229913
11017238580
11017244683
11017253289
11017261285
11017268731
11017276605
11017284478
11017290704
11017299310
11017305169
11017315484
11017322991
11017329827
11017337396
11017346002
11017350884
11017359002
11017366509
11017374627
11017381280
11017389397
11017396111
11017403619
11017408257
11017418511
11017427422
11017435662
11017443169
11017451165
11017459588
11017466363
11017473809
11017480034
11017488640
11017494195
11017504632
11017509881
11017519707
11017524529
11017533867
11017538445
11017547661
11017552422
11017562920
11017572258
11017580437
11017588677
11017596611
11017604119
11017612725
11017620720
11017627678
11017636345
11017643852
11017650688
11017657158
11017664848
11017671990
11017680901
11017689079
11017696342
11017704216
11017710808
11017718071
11017726372
11017732414
11017739494
11017746452
11017754631
11017762321
11017769829
11017777336
11017785393
11017792106
11017800407
11017808525
11017814995
11017822746
11017830558
11017837638
11017845146
11017850883
11017858757
11017866996
11017873527
11017882255
11017888542
11017897758
11017905937
11017912956
11017920646
11017928642
11017933952
11017943534
11017948600
11017958244
11017963126
11017972038
11017980521
11017989005
11017995048
11018002433
11018010490
11018018119
11018024406
11018032950
11018041312
11018048942
11018056449
11018062186
11018071403
11018077201
11018085013
11018095572
11018104300
11018109000
11018117667
11018124991
11018132865
11018140433
11018146476
11018154898
11018163077
11018171195
11018176993
11018184684
11018192435
11018200431
11018206107
11018214957
11018223685
11018231497
11018237845
11018244864
11018250723
11018260794
11018265189
11018275992
11018282645
11018290884
11018295523
11018304678
11018310355
11018320608
11018326224
11018338064
11018344107
11018353445
11018361319
11018368460
11018374319
11018382498
11018392813
11018399405
11018407827
11018413992
11018420889
11018429007
11018436514
11018442312
11018452810
11018458792
11018465811
11018473867
11018480825
11018486380
11018496084
11018502493
11018511099
11018517202
11018526235
11018532583
11018539541
11018545156
11018553274
11018559316
11018568594
11018574880
11018582449
11018590505
11018598013
11018604665
11018612417
11018619497
11018627126
11018633169
11018641836
11018647512
11018656301
11018663076
11018672109
11018676870
11018687612
11018694631
11018702871
11018710988
11018717885
11018722768
11018732656
11018740651
11018748037
11018756948
11018764882
11018771779
11018779958
11018787343
11018794179
11018803456
11018809499
11018819081
11018825917
11018832509
11018839040
11018845448
11018852284
11018866017
11018883107
11018898488
11018912587
11018924367
11018934926
11018942372
11018949818
11018957081
11018964406
11018971547
11018979115
11018986317
11018993886
11019003468
11019010243
11019017445
11019025502
11019032826
11019039479
11019047657
11019055104
11019065480
11019071949
11019080128
11019088673
11019094532
11019102833
11019110096
11019117909
11019126637
11019134266
11019140308
11019146412
11019154408
11019161427
11019166798
11019174732
11019182362
11019189808
11019196949
11019204273
11019210194
11019218861
11019227466
11019236133
11019242176
11019251514
11019261097
11019270130
11019276600
11019282886
11019290821
11019301380
11019307117
11019315662
11019323413
11019329273
11019338184
11019344654
11019354480
11019361743
11019369678
11019378284
11019384937
11019391529
11019398364
11019404651
11019414661
11019421619
11019428394
11019434985
11019443103
11019449512
11019457813
11019465381
11019474231
11019480884
11019489551
11019496265
11019502917
11019509570
11019516528
11019523364
11019532214
11019538806
11019547595
11019553943
11019562121
11019570239
11019577197
11019584887
11019592395
11019598987
11019607165
11019615771
11019622241
11019629077
11019637194
11019645068
11019654223
11019661425
11019670459
11019676440
11019685900
11019695483
11019704150
11019711901
11019719714
11019726916
11019734362
11019741503
11019747607
11019756762
11019762804
11019772936
11019781908
11019789660
11019796679
11019805468
11019809862
11019820422
11019825976
11019835558
11019844286
11019851671
11019859728
11019867907
11019876269
11019881823
11019891039
11019899828
11019906786
11019915270
11019921312
11019928881
11019935228
11019943468
11019950853
11019959276
11019965868
11019971544
11019979723
11019988085
11019995409
11020001573
11020010057
11020016100
11020025316
11020032091
11020039903
11020045519
11020053941
11020060228
11020070116
11020076646
11020085435
11020093797
11020101121
11020105699
11020117174
11020125658
11020133958
11020139512
11020148546
11020156480
11020164110
11020170518
11020178392
11020187791
11020194078
11020201890
11020209947
11020217454
11020223558
11020233201
11020241014
11020248704
11020254869
11020263902
11020269639
11020278306
11020284715
11020292466
11020298387
11020310533
11020319383
11020326585
11020333604
11020340257
11020346421
11020355027
11020363206
11020371323
11020379075
11020386704
11020394395
11020400193
11020407822
11020415940
11020424851
11020432847
11020439927
11020446396
11020455979
11020462266
11020470139
11020476304
11020486863
11020491196
11020501999
11020507737
11020521836
11020528672
11020539719
11020548752
11020557236
11020565659
11020573899
11020582199
11020588303
11020597397
11020605087
11020613022
11020619858
11020627976
11020634323
11020642014
11020648789
11020657700
11020665451
11020676682
11020681686
11020691513
11020696396
11020705612
11020713974
11020720810
11020730148
11020739059
11020747238
11020753586
11020762008
11020769394
11020777511
11020784347
11020794235
11020801559
11020807724
11020816085
11020822372
11020830490
11020836776
11020842636
11020853134
11020859298
11020868453
11020876510
11020884017
11020890426
11020897384
11020903976
11020915328
11020921737
11020930648
11020938339
11020946395
11020952926
11020959579
11020967147
11020975509
11020981185
11020989425
11020998458
11021006209
11021014205
11021020003
11021029647
11021035750
11021044417
11021050216
11021059188
11021064742
11021073043
11021080794
11021091170
11021096053
11021105147
11021112593
11021119185
11021126387
11021133040
11021139937
11021149520
11021154952
11021164046
11021168563
11021177962
11021181807
11021192793
11021198775
11021209944
11021214827
11021223921
11021232161
11021238875
11021246443
11021253401
11021260603
11021269026
11021273726
11021283186
11021291853
11021299849
11021306685
11021314619
11021323897
11021333235
11021341536
11021349104
11021355757
11021359968
11021370649
11021378645
11021385847
11021392866
11021401411
11021408979
11021416731
11021422895
11021431562
11021438459
11021446455
11021453779
11021461897
11021469282
11021477461
11021485639
11021491621
11021501753
11021508100
11021515669
11021521955
11021529524
11021535871
11021544416
11021548444
11021559736
11021567670
11021573469
11021580305
11021587202
11021594587
11021603864
11021613874
11021622724
11021629926
11021637311
11021644697
11021652631
11021660016
11021665815
11021676984
11021684125
11021691022
11021697980
11021706586
11021713300
11021719831
11021725812
11021736737
11021745404
11021751996
11021755841
11021765912
11021772870
11021780011
11021785871
11021797284
11021802411
11021812055
11021818463
11021826886
11021833539
11021840192
11021847028
11021854962
11021862347
11021871198
11021875043
11021883710
11021890973
11021900555
11021910138
11021916119
11021920758
11021931195
11021940838
11021948529
11021956280
11021961957
11021970990
11021979779
11021986798
11021993206
11022002179
11022008831
11022016583
11022024762
11022034039
11022040142
11022050518
11022056561
11022065533
11022074139
11022081219
11022092327
11022098614
11022106976
11022115276
11022121929
11022128887
11022137310
11022143658
11022152569
11022160503
11022168072
11022174969
11022182598
11022192608
11022199932
11022207195
11022216656
11022223614
11022231853
11022238567
11022243694
11022253216
11022258281
11022268963
11022275676
11022284038
11022293255
11022299541
11022309185
11022318645
11022325725
11022334148
11022342754
11022348735
11022355388
11022362529
11022371868
11022380351
11022388530
11022394939
11022403056
11022410686
11022416606
11022424541
11022431194
11022442790
11022449870
11022456584
11022462444
11022471721
11022478740
11022489299
11022498515
11022508281
11022513164
11022522197
11022529399
11022536052
11022543132
11022551494
11022558452
11022567180
11022572246
11022580607
11022587016
11022595378
11022599345
11022608256
11022615763
11022625163
11022632731
11022640116
11022646464
11022655375
11022660868
11022670512
11022679301
11022686198
11022693888
11022702372
11022711039
11022718485
11022725443
11022732096
11022742533
11022749064
11022757670
11022764506
11022772562
11022779032
11022788493
11022796000
11022805216
11022812907
11022821085
11022828348
11022836039
11022845682
11022852823
11022862894
11022870279
11022878031
11022885660
11022893900
11022900797
11022908060
11022918131
11022924234
11022932718
11022938944
11022948099
11022952738
11022964823
11022974466
11022982157
11022989664
11022995401
11023003946
11023009805
11023017801
11023023416
11023032571
11023041299
11023048319
11023053934
11023061929
11023067728
11023074808
11023083902
11023091165
11023099954
11023108072
11023114908
11023125101
11023132791
11023142007
11023150918
11023159097
11023166726
11023172952
11023180520
11023188089
11023194803
11023202493
11023212014
11023220559
11023226113
11023232461
11023240213
11023247720
11023254556
11023263223
11023276528
11023282632
11023291116
11023296975
11023304238
11023312722
11023320779
11023327493
11023338540
11023342812
11023352151
11023358559
11023366616
11023372903
11023380288
11023386697
11023396523
11023402627
11023411965
11023418984
11023425881
11023431557
11023441323
11023448464
11023456826
11023461342
11023471779
11023475625
11023485329
11023491799
11023500039
11023507546
11023517434
11023524147
11023533120
11023538369
11023547341
11023551491
11023562844
11023568459
11023577553
11023584877
11023593178
11023600685
11023606667
11023613136
11023621986
11023626381
11023636025
11023642860
11023651711
11023658546
11023665871
11023672340
11023682655
11023688026
11023697853
11023706032
11023712929
11023719765
11023726784
11023733619
11023740883
11023748634
11023758583
11023766639
11023773414
11023780983
11023787574
11023794777
11023802955
11023808998
11023818824
11023826820
11023834205
11023842018
11023849159
11023856239
11023862953
11023870033
11023879371
11023884254
11023892494
11023899268
11023906410
11023912208
11023921302
11023928931
11023937537
11023944251
11023952186
11023958595
11023966102
11023972877
11023981788
11023989966
11023997108
11024004188
11024012488
11024017127
11024026526
11024033973
11024041236
11024046607
11024056189
11024064429
11024071570
11024079078
11024085791
11024092261
11024100928
11024108863
11024117163
11024124610
11024130652
11024139624
11024147681
11024154456
11024161048
11024166358
11024176123
11024181555
11024191748
11024198523
11024207068
11024214514
11024222083
11024231116
11024238745
11024246313
11024255347
11024261450
11024270483
11024278662
11024289038
11024296057
11024305395
11024314245
11024321509
11024327429
11024335791
11024341650
11024352026
11024358252
11024368017
11024374487
11024381140
11024389624
11024396093
11024402136
11024413855
11024421362
11024427710
11024434545
11024443457
11024447424
11024456945
11024464392
11024474645
11024480627
11024489904
11024494665
11024504125
11024516821
11024525121
11024533117
11024541601
11024548498
11024556799
11024564306
11024570043
11024579076
11024584875
11024595678
11024601598
11024608678
11024616186
11024623815
11024629613
11024637609
11024643285
11024654149
11024661474
11024668248
11024673864
11024681493
11024689977
11024696386
11024702062
11024712499
11024719579
11024726781
11024732518
11024740148
11024748754
11024756017
11024763097
11024770848
11024777013
11024787023
11024792211
11024801000
11024807469
11024814977
11024821690
11024831883
11024836949
11024846532
11024853429
11024860448
11024867284
11024875523
11024883092
11024893407
11024898778
11024908970
11024914158
11024923253
11024929722
11024937962
11024942174
11024953770
11024958775
11024967442
11024974278
11024983189
11024988133
11024996495
11025004063
11025014256
11025020359
11025031407
11025036351
11025046971
11025056004
11025063389
11025072483
11025080967
11025086399
11025094883
11025103123
11025109043
11025117405
11025125095
11025132908
11025140415
11025149815
11025155979
11025164524
11025170444
11025180027
11025186008
11025195347
11025201694
11025211399
11025217808
11025224033
11025232334
11025238804
11025245517
11025255527
11025262607
11025271152
11025277988
11025286045
11025292514
11025300022
11025307407
11025314731
11025320896
11025329196
11025335361
11025344638
11025350803
11025358615
11025366062
11025374240
11025380344
11025390231
11025396518
11025403476
11025409457
11025418247
11025424411
11025436618
11025442050
11025451877
11025459323
11025465854
11025473117
11025479770
11025487582
11025494601
11025502231
11025509311
11025515903
11025526584
11025531711
11025540744
11025549533
11025558810
11025564242
11025573153
11025581271
11025588839
11025596408
11025604220
11025611666
11025620394
11025627413
11025633700
11025642001
11025648471
11025656954
11025664034
11025672274
11025679965
11025688204
11025693820
11025702181
11025709200
11025715243
11025723483
11025732333
11025739291
11025747713
11025757418
11025764620
11025774752
11025782137
11025791231
11025798373
11025807162
11025813875
11025823397
11025830904
11025837679
11025846529
11025855623
11025862337
11025869051
11025876619
11025883822
11025890596
11025898287
11025905001
11025914156
11025919161
11025927706
11025934603
11025942232
11025948091
11025958101
11025963594
11025973238
11025980806
11025992159
11025998689
11026006197
11026012422
11026020113
11026029817
11026035799
11026043428
11026051546
11026058443
11026065767
11026071931
11026080415
11026089937
11026096345
11026104158
11026112337
11026119539
11026125337
11026134736
11026142549
11026149934
11026157258
11026165742
11026172883
11026179109
11026186006
11026194734
11026199922
11026209199
11026217256
11026225923
11026233308
11026239106
11026245698
11026254182
11026260652
11026270844
11026277986
11026285432
11026290009
11026298554
11026306611
11026312714
11026319611
11026330537
11026337128
11026345246
11026354890
11026361970
11026372224
11026379853
11026388581
11026395478
11026404633
11026411408
11026418427
11026424714
11026433137
11026442597
11026449189
11026457489
11026462861
11026470734
11026479401
11026485321
11026493073
11026498810
11026510224
11026516449
11026524262
11026530365
11026539948
11026547333
11026555451
11026562470
11026571747
11026576386
11026586090
11026593964
11026601593
11026607941
11026616425
11026625153
11026631500
11026639679
11026645966
11026653351
11026660858
11026667999
11026675568
11026683441
11026689422
11026697601
11026703766
11026711212
11026718902
11026724762
11026732208
11026741119
11026749542
11026755951
11026763885
11026771637
11026779205
11026786468
11026792389
11026801788
11026808319
11026816925
11026825469
11026832672
11026838470
11026847259
11026853240
11026861236
11026869781
11026877654
11026884002
11026890045
11026895965
11026904571
11026914459
11026921539
11026928252
11026935332
11026943877
11026950530
11026957732
11026964568
11026971404
11026981414
11026989715
11026995818
11027002654
11027011809
11027017180
11027026397
11027035308
11027042693
11027050750
11027058013
11027065215
11027073272
11027077971
11027087798
11027093047
11027102202
11027107451
11027117766
11027122283
11027132109
11027139983
11027146208
11027151641
11027161711
11027169707
11027177397
11027185637
11027193816
11027201079
11027206938
11027217680
11027224394
11027231291
11027237212
11027246245
11027252287
11027259795
11027265776
11027276884
11027284575
11027292509
11027300078
11027309782
11027317717
11027325102
11027334379
11027340239
11027349882
11027355986
11027365202
11027371855
11027379972
11027384550
11027395597
11027403898
11027410551
11027417875
11027424833
11027432096
11027440702
11027448698
11027457487
11027463407
11027472318
11027477812
11027486173
11027493986
11027502409
11027510770
11027517240
11027527128
11027533475
11027541105
11027547514
11027554349
11027563993
11027572660
11027579557
11027587430
11027594144
11027601652
11027607938
11027616971
11027623868
11027632108
11027639615
11027648099
11027654508
11027662076
11027668424
11027677213
11027683377
11027692777
11027700162
11027707486
11027713224
11027720914
11027728971
11027735074
11027740872
11027751981
11027759000
11027766385
11027772061
11027780667
11027786405
11027795316
11027801358
11027811063
11027817715
11027823941
11027832059
11027837613
11027846097
11027853421
11027859769
11027867886
11027874356
11027883145
11027889065
11027897305
11027903042
11027910306
11027918484
11027927762
11027933499
11027941739
11027948147
11027956082
11027962368
11027971219
11027976406
11027985806
11027994351
11028002957
11028010464
11028017422
11028027249
11028033596
11028038784
11028050259
11028058193
11028065701
11028072720
11028080288
11028087856
11028093716
11028104031
11028110867
11028118191
11028124660
11028131863
11028155239
11028164394
11028171230
11028181057
11028188198
11028195400
11028202724
11028211025
11028217190
11028227382
11028233242
11028240810
11028249904
11028255764
11028264370
11028269985
11028281276
11028287136
11028296291
11028303554
11028310146
11028316860
11028324855
11028331996
11028339015
11028346462
11028355678
11028363063
11028369777
11028376186
11028382472
11028391567
11028399257
11028405971
11028414333
11028421230
11028428127
11028434596
11028444118
11028448146
11028459621
11028467494
11028474513
11028481044
11028489467
11028496303
11028502772
11028511989
11028521266
11028527369
11028536097
11028544093
11028550013
11028554774
11028565516
11028571986
11028580958
11028589869
11028595851
11028603968
11028609767
11028619410
11028625453
11028634547
11028641444
11028649806
11028656397
11028665064
11028669764
11028679225
11028684168
11028693751
11028698756
11028709071
11028717921
11028724329
11028732142
11028740076
11028748133
11028756617
11028765589
11028771815
11028780970
11028787073
11028797083
11028801966
11028813440
11028818689
11028828394
11028836023
11028842798
11028846949
11028858057
11028865442
11028874170
11028879053
11028887842
11028894983
11028901758
11028909204
11028917749
11028923120
11028934229
11028941980
11028949487
11028954553
11028962915
11028967493
11028976831
11028984338
11028992822
11028998682
11029007105
11029012170
11029020471
11029028040
11029034021
11029042078
11029051172
11029056970
11029066370
11029072961
11029079553
11029086145
11029095056
11029098840
11029110010
11029115930
11029125634
11029130334
11029138208
11029144677
11029153161
11029156945
11029167993
11029176110
11029182946
11029190454
11029197290
11029201989
11029211206
11029216943
11029228234
11029237695
11029243554
11029250146
11029258569
11029266564
11029272363
11029279321
11029287927
11029293359
11029302758
11029310998
11029318993
11029324120
11029332665
11029341515
11029349633
11029356469
11029364037
11029370629
11029378625
11029386498
11029392296
11029400475
11029409325
11029416039
11029422326
11029430138
11029435692
11029443566
11029452904
11029462243
11029469689
11029477379
11029483361
11029492333
11029498864
11029506554
11029516014
11029523155
11029530480
11029539269
11029544029
11029552757
11029561119
11029567833
11029575951
11029585228
11029592735
11029601646
11029609276
11029615440
11029623192
11029632042
11029638390
11029647057
11029655052
11029660850
11029668663
11029674522
11029682152
11029689476
11029696068
11029705162
11029713279
11029720848
11029726951
11029734642
11029740379
11029749229
11029755333
11029763511
11029772056
11029779563
11029787620
11029796653
11029804039
11029811485
11029821556
11029826499
11029836082
11029840598
11029850608
11029858970
11029865012
11029873191
11029882652
11029887718
11029896384
11029904258
11029910361
11029917503
11029926292
11029931846
11029940635
11029948630
11029956077
11029961631
11029969199
11029977012
11029983054
11029992331
11029999961
11030007834
11030015403
11030022422
11030029990
11030038413
11030044394
11030055503
11030062827
11030069602
11030076194
11030084128
11030090537
11030097129
11030106040
11030114524
11030121909
11030129416
11030136191
11030144187
11030150107
11030157187
11030162802
11030173544
11030179953
11030188071
11030196677
11030204306
11030210776
11030217368
11030227072
11030234701
11030244406
11030251364
11030259848
11030267660
11030274374
11030282004
11030290671
11030297262
11030306967
11030314901
11030322043
11030329306
11030335775
11030342611
11030351522
11030359945
11030365744
11030372641
11030381308
11030386801
11030396078
11030402365
11030411520
11030416403
11030427084
11030434896
11030440939
11030447897
11030455526
11030463033
11030470907
11030479269
11030487631
11030496175
11030502279
11030512533
11030518758
11030529195
11030538900
11030546285
11030554220
11030561300
11030568441
11030577108
11030585287
11030596944
11030603292
11030613057
11030619954
11030626668
11030634908
11030641622
11030648458
11030659505
11030664327
11030673543
11030680196
11030687215
11030695577
11030703023
11030708882
11030718526
11030724996
11030733418
11030739217
11030749104
11030754903
11030763692
11030769429
11030779256
11030787923
11030795125
11030800923
11030809041
11030814778
11030823811
11030831136
11030839436
11030847859
11030855000
11030862813
11030869404
11030876240
11030882954
11030890095
11030900044
11030904927
11030915303
11030923726
11030932332
11030941792
11030947895
11030956868
11030964985
11030973957
11030981465
11030988423
11030994038
11031002766
11031008503
11031020344
11031026631
11031036518
11031044941
11031051777
11031058003
11031066792
11031072590
11031083820
11031089741
11031098286
11031106770
11031113239
11031122150
11031128010
11031138447
11031144916
11031154255
11031160236
11031167621
11031175495
11031181660
11031188129
11031197712
11031204609
11031213642
11031220051
11031227924
11031234150
11031242023
11031246051
11031256916
11031263691
11031272541
11031276508
11031288715
11031294818
11031304523
11031311237
11031319965
11031326740
11031335285
11031343341
11031349201
11031359271
11031363239
11031374957
11031380328
11031390521
11031398151
11031403949
11031411395
11031418048
11031424945
11031433612
11031439471
11031447711
11031452167
11031462054
11031469562
11031477435
11031484515
11031493365
11031501483
11031507525
11031511920
11031521991
11031529742
11031535907
11031539569
11031551654
11031556659
11031566851
11031571429
11031580706
11031585772
11031594866
11031603045
11031612750
11031620928
11031629107
11031636126
11031643572
11031649798
11031657122
11031664385
11031673296
11031681658
11031687457
11031696856
11031702776
11031712664
11031719927
11031726885
11031734515
11031743365
11031749346
11031759783
11031772478
11031780291
11031786944
11031794695
11031801897
11031810076
11031817217
11031825274
11031832720
11031838579
11031849566
11031856279
11031863848
11031870806
11031878557
11031884233
11031892595
11031898455
11031906633
11031913774
11031922319
11031930437
11031937334
11031943315
11031951921
11031957720
11031966264
11031972429
11031982500
11031989824
11031996416
11032003862
11032010515
11032018266
11032027666
11032033403
11032043046
11032051347
11032058855
11032064531
11032071550
11032079545
11032088395
11032094621
11032102983
11032110673
11032116777
11032125200
11032131242
11032136125
11032147233
11032154496
11032162065
11032170549
11032177262
11032187455
11032194841
11032204850
11032209733
11032218949
11032223527
11032233048
11032237992
11032245866
11032252458
11032263078
11032270097
11032278458
11032285539
11032292863
11032299577
11032307938
11032312638
11032323746
11032329667
11032338883
11032346757
11032354691
11032360306
11032368729
11032373856
11032382401
11032390458
11032398514
11032405839
11032413590
11032421524
11032428299
11032438187
11032445145
11032453507
11032460221
11032469437
11032476761
11032483963
11032487931
11032500565
11032508744
11032516434
11032523697
11032530716
11032536820
11032545303
11032555252
11032563492
11032571304
11032577347
11032585709
11032591690
11032599503
11032608231
11032617630
11032624405
11032632706
11032639786
11032649124
11032653763
11032663223
11032672622
11032680496
11032687393
11032695755
11032703506
11032709366
11032718826
11032726272
11032734939
11032742630
11032749160
11032755813
11032764785
11032772537
11032780105
11032788284
11032797622
11032803909
11032810623
11032817764
11032824600
11032831375
11032841506
11032846267
11032857498
11032864028
11032872573
11032879348
11032886916
11032894241
11032901809
11032908645
11032918594
11032925735
11032931960
11032940444
11032949172
11032955459
11032964187
11032972732
11032979629
11032987990
11032994399
11033001418
11033007399
11033014907
11033023208
11033031813
11033038039
11033047316
11033054091
11033061293
11033067214
11033076308
11033083754
11033093276
11033100783
11033107558
11033114516
11033121718
11033131484
11033138442
11033145766
11033155409
11033162306
11033170546
11033175124
11033183791
11033190810
11033200819
11033206068
11033215895
11033224257
11033232436
11033238783
11033246535
11033255568
11033263197
11033272413
11033279555
11033287794
11033296095
11033303297
11033309706
11033317091
11033324049
11033333815
11033341871
11033347670
11033355604
11033361341
11033369276
11033376112
11033384962
11033391554
11033399671
11033407850
11033414503
11033422621
11033428480
11033436903
11033442335
11033452772
11033459242
11033467176
11033474561
11033480299
11033488050
11033495802
11033505018
11033512708
11033519971
11033528211
11033536146
11033542921
11033552259
11033558851
11033567457
11033576612
11033582593
11033592237
11033597974
11033606519
11033612500
11033624097
11033631604
11033638807
11033645581
11033653150
11033659314
11033666577
11033672925
11033683911
11033690015
11033698133
11033706616
11033714063
11033720471
11033728284
11033735791
11033745557
11033750562
11033760083
11033764600
11033774915
11033779309
11033787610
11033794873
11033804822
11033812085
11033820386
11033825085
11033833874
11033840039
11033850171
11033855054
11033864392
11033872876
11033880932
11033886548
11033894909
11033899609
11033908581
11033913464
11033925671
11033932690
11033941174
11033948803
11033955029
11033962170
11033970654
11033978710
11033987194
11033994641
11034002453
11034010571
11034017346
11034026623
11034034313
11034043713
11034048412
11034057385
11034066113
11034072765
11034080822
11034089916
11034098156
11034106090
11034113293
11034121410
11034128490
11034137524
11034144787
11034151562
11034161022
11034166820
11034175976
11034184520
11034190807
11034195324
11034205150
11034215770
11034224071
11034230663
11034238475
11034245800
11034251781
11034256603
11034267406
11034272594
11034283580
11034292003
11034298534
11034306652
11034314220
11034319225
11034327831
11034332897
11034344127
11034352245
11034358287
11034366161
11034373729
11034381786
11034387523
11034396251
11034403880
11034411143
11034419932
11034427440
11034433421
11034443797
11034450694
11034460460
11034465343
11034474986
11034480113
11034490062
11034497203
11034503734
11034511180
11034519908
11034528453
11034535350
11034543895
11034549815
11034557811
11034565196
11034572947
11034582408
11034589732
11034595530
11034604258
11034609995
11034618479
11034624522
11034634165
11034642222
11034648692
11034656199
11034661997
11034668772
11034676279
11034681040
11034688975
11034695689
11034701670
11034706797
11034714793
11034720591
11034727366
11034733652
11034741343
11034747935
11034754465
11034761301
11034767588
11034773630
11034779184
11034784800
11034790232
11034794443
11034798716
11034802378
11034806955
11034811350
11034816050
11034821054
11034825632
11034829844
11034834848
11034839243
11034845468
11034849863
11034854990
11034860971
11034867746
11034872751
11034878855
11034882883
11034887155
11034891123
11034895700
11034899790
11034904245
11034908396
11034914133
11034918527
11034922800
11034928476
11034932993
11034937082
11034942148
11034946115
11034949899
11034955270
11034960642
11034965952
11034970956
11034976328
11034981577
11034983835
11034992319
11034996347
11035000619
11035006479
11035010568
11035014780
11035020700
11035025888
11035030405
11035034189
11035038949
11035043100
11035047372
11035050302
11035056039
11035060617
11035064401
11035069894
11035074777
11035079538
11035103036
11035109872
11035113778
11035119760
11035123666
11035128305
11035134530
11035138620
11035143380
11035147653
11035153146
11035157907
11035161203
11035166696
11035172250
11035176034
11035180062
11035185189
11035190682
11035196237
11035201058
11035205514
11035210214
11035214974
11035220040
11035226449
11035230782
11035234322
11035239144
11035242928
11035247140
11035252450
11035256722
11035261056
11035265755
11035269112
11035273934
11035276437
11035280587
11035283944
11035287118
11035290169
11035293526
11035297311
11035300545
11035303597
11035306222
11035311715
11035316415
11035319710
11035323006
11035326974
11035329354
11035333871
11035336434
11035339486
11035343270
11035348702
11035352303
11035355416
11035357979
11035361886
11035366097
11035369576
11035373177
11035377389
11035382332
11035386910
11035389901
11035394600
11035401131
11035406441
11035412484
11035420296
11035424141
11035430245
11035433968
11035439949
11035444710
11035450325
11035454354
11035462044
11035466805
11035472542
11035475838
11035482491
11035487435
11035491890
11035495918
11035503853
11035509957
11035515083
11035519905
11035524727
11035528877
11035535896
11035540169
11035545967
11035552132
11035557076
11035562752
11035567635
11035573494
11035578499
11035582771
11035588631
11035596748
11035600655
11035607735
11035613472
11035617927
11035622871
11035628670
11035633613
11035639900
11035645088
11035651130
11035656013
11035660652
11035666816
11035671455
11035677315
11035684517
11035689399
11035695808
11035700386
11035705696
11035712165
11035715828
11035722358
11035728462
11035735542
11035739570
11035746955
11035752204
11035757514
11035762458
11035768318
11035772956
11035781379
11035788154
11035793525
11035799629
11035803962
11035810371
11035815803
11035821296
11035829658
11035837348
11035841743
11035847541
11035853278
11035861396
11035867011
11035873542
11035879462
11035885810
11035890754
11035897895
11035903571
11035911140
11035916694
11035923652
11035929755
11035935309
11035943793
11035952399
11035959784
11035967597
11035971808
11035980109
11035986396
11035993842
11036002387
11036006659
11036012397
11036016852
11036021796
11036028449
11036033576
11036039435
11036044928
11036050116
11036054938
11036059516
11036065436
11036071112
11036076361
11036081610
11036086676
11036092536
11036097907
11036108405
11036116767
11036129828
11036136298
11036144232
11036149603
11036154730
11036159735
11036165595
11036171210
11036176398
11036182135
11036187506
11036192511
11036197089
11036204657
11036211310
11036216925
11036221503
11036226507
11036230231
11036236944
11036241034
11036245856
11036252203
11036261419
11036266974
11036272345
11036276434
11036282415
11036286749
11036292059
11036297796
11036302923
11036308233
11036314764
11036319036
11036323553
11036328924
11036334539
11036338446
11036344976
11036350470
11036355780
11036361334
11036366644
11036372564
11036378424
11036385137
11036390570
11036395208
11036402838
11036407232
11036413519
11036417974
11036424505
11036430425
11036438848
11036443914
11036450018
11036454473
11036460333
11036466070
11036470586
11036475591
11036481573
11036485845
11036491827
11036497930
11036501409
11036507146
11036515996
11036523321
11036530034
11036535711
11036542608
11036549810
11036554326
11036563970
11036570134
11036574834
11036580266
11036585088
11036589727
11036594487
11036598699
11036605047
11036610723
11036615545
11036621282
11036626958
11036631169
11036638555
11036641301
11036650029
11036655706
11036659307
11036666020
11036670232
11036675542
11036681401
11036687383
11036692876
11036696843
11036702519
11036707158
11036713750
11036719548
11036725346
11036732121
11036736577
11036741582
11036745854
11036752019
11036755986
11036762700
11036769292
11036774785
11036779301
11036783452
11036794621
11036802617
11036808598
11036813786
11036820866
11036826054
11036831975
11036837651
11036845341
11036850041
11036856206
11036860905
11036871464
11036876713
11036882817
11036889836
11036895451
11036900700
11036905461
11036912175
11036917729
11036922429
11036925175
11036935429
11036942021
11036946904
11036952885
11036958561
11036961735
11036967839
11036971928
11036979618
11036984684
11036991215
11036996159
11037000981
11037006474
11037011479
11037015812
11037024052
11037029667
11037034550
11037042728
11037050724
11037056034
11037063602
11037068790
11037075626
11037083988
11037089298
11037094059
11037099369
11037103825
11037110111
11037117191
11037123417
11037129948
11037134464
11037140568
11037147526
11037152103
11037157718
11037162052
11037168033
11037173465
11037177799
11037184452
11037189762
11037193058
11037199772
11037203983
11037209476
11037213138
11037218998
11037224430
11037229740
11037234500
11037239688
11037245243
11037249454
11037255985
11037261234
11037267887
11037273502
11037279422
11037285098
11037290286
11037296817
11037302677
11037309757
11037313541
11037320133
11037326480
11037332767
11037338626
11037342899
11037349246
11037354923
11037361148
11037365665
11037371585
11037376773
11037383121
11037389590
11037395328
11037400394
11037406070
11037411014
11037414798
11037422671
11037429690
11037435733
11037440494
11037446109
11037450747
11037454287
11037461734
11037466922
11037473269
11037478274
11037483767
11037489627
11037493655
11037502505
11037506656
11037512332
11037519961
11037525637
11037530642
11037538028
11037545230
11037551821
11037559451
11037565005
11037571231
11037578555
11037584963
11037590273
11037599612
11037603701
11037609316
11037614871
11037620303
11037624575
11037630251
11037634707
11037642458
11037646426
11037653201
11037657534
11037664187
11037667239
11037674502
11037678713
11037685671
11037692324
11037696841
11037701418
11037707827
11037712160
11037718813
11037723086
11037729738
11037734255
11037740603
11037744814
11037750185
11037756960
11037762270
11037766665
11037770083
11037778078
11037781801
11037791262
11037795168
11037801455
11037805056
11037811708
11037816957
11037821962
11037826540
11037834536
11037840456
11037845766
11037851076
11037856020
11037862368
11037869631
11037874941
11037880861
11037887514
11037889894
11037898622
11037902956
11037910158
11037914003
11037923036
11037927065
11037934877
11037938783
11037945741
11037950136
11037956667
11037961000
11037971132
11037974916
11037984071
11037987672
11037994508
11038000001
11038005006
11038010255
11038018922
11038023866
11038031251
11038036378
11038042970
11038047487
11038052492
11038059205
11038064760
11038071840
11038078492
11038083741
11038089296
11038094972
11038099305
11038105165
11038113343
11038119569
11038127687
11038134034
11038141725
11038146669
11038153932
11038159913
11038167176
11038175111
11038179933
11038186891
11038192262
11038197633
11038201600
11038207581
11038213197
11038218507
11038224061
11038230653
11038235413
11038245423
11038250550
11038257569
11038260926
11038266297
11038272279
11038277711
11038283814
11038288941
11038292969
11038298524
11038304932
11038309083
11038314271
11038319459
11038323670
11038328614
11038330384
11038339173
11038345337
11038350831
11038355347
11038359314
11038364625
11038369568
11038374268
11038382203
11038388123
11038392395
11038397644
11038402405
11038404908
11038411560
11038416016
11038423340
11038429016
11038435669
11038438416
11038444641
11038448853
11038455078
11038459412
11038468140
11038473206
11038480896
11038485474
11038490357
11038499390
11038506531
11038511414
11038519531
11038524414
11038529968
11038534912
11038541199
11038546997
11038554077
11038560974
11038566345
11038570007
11038577454
11038583862
11038588379
11038594726
11038599304
11038605469
11038611755
11038616028
11038622925
11038627014
11038634460
11038640198
11038645386
11038648620
11038656982
11038660522
11038668152
11038673340
11038680298
11038685730
11038691040
11038696716
11038704773
11038710998
11038718689
11038725219
11038731323
11038736267
11038743103
11038750732
11038754760
11038761291
11038766357
11038772521
11038775695
11038782958
11038786498
11038793273
11038798278
11038803649
11038808654
11038814086
11038819335
11038824279
11038833678
11038839660
11038844238
11038849670
11038854675
11038859252
11038863830
11038869506
11038874145
11038881103
11038886474
11038890990
11038896178
11038902282
11038908813
11038913817
11038919555
11038924804
11038929931
11038934752
11038938598
11038945922
11038951110
11038956542
11038961181
11038966491
11038972106
11038976867
11038981994
11038988036
11038993041
11038998595
11039004210
11039008849
11039013427
11039019469
11039024962
11039030394
11039036620
11039041564
11039046691
11039050597
11039058470
11039062804
11039068663
11039073790
11039079527
11039083739
11039088866
11039095458
11039100279
11039106017
11039111205
11039115965
11039120970
11039126097
11039132445
11039137511
11039143614
11039146727
11039153563
11039157591
11039163206
11039170348
11039174864
11039184264
11039191527
11039199583
11039207213
11039212889
11039219176
11039228758
11039233824
11039243956
11039250609
11039257994
11039264830
11039270628
11039281736
11039287840
11039297361
11039304380
11039312071
11039318663
11039321653
11039333372
11039338316
11039351866
11039359495
11039367491
11039374204
11039379881
11039386839
11039394956
11039400633
11039406858
11039417539
11039424436
11039429319
11039436704
11039441404
11039452634
11039459959
11039465147
11039475095
11039481199
11039491575
11039497190
11039506528
11039513425
11039519529
11039525937
11039533384
11039542478
11039549253
11039553586
11039566221
11039573240
11039581296
11039586240
11039597409
11039605527
11039614682
11039622678
11039633176
11039640744
11039646787
11039658567
11039663693
11039673947
11039681699
11039690366
11039698178
11039703122
11039712644
11039721677
11039726804
11039734860
11039739560
11039749997
11039757016
11039760068
11039771664
11039776303
11039789487
11039797116
11039805783
11039812558
11039818051
11039825802
11039832211
11039841183
11039847470
11039850644
11039862973
11039868954
11039876828
11039883847
11039891049
11039897458
11039902768
11039911740
11039918148
11039926815
11039935787
11039939938
11039950375
11039957516
11039965023
11039969906
11039977169
11039985653
11039991512
11040001766
11040007137
11040015804
11040020199
11040028683
11040035091
11040040096
11040049923
11040058956
11040066280
11040076229
11040085201
11040092953
11040101986
11040108639
11040111141
11040124569
11040132747
11040141231
11040147823
11040153805
11040159115
11040166317
11040171077
11040176632
11040181575
11040187008
11040194149
11040199398
11040204647
11040210506
11040215572
11040221004
11040226131
11040231197
11040237667
11040242305
11040248653
11040252925
11040259822
11040264156
11040270503
11040274715
11040280330
11040287715
11040293819
11040299617
11040305293
11040309627
11040315364
11040321224
11040326350
11040332332
11040336726
11040343745
11040347408
11040355220
11040358760
11040365657
11040371150
11040377559
11040383113
11040388850
11040393855
11040400020
11040404658
11040410090
11040415767
11040421382
11040427363
11040432551
11040438655
11040443416
11040449763
11040455134
11040460872
11040466853
11040472163
11040479060
11040484065
11040489314
11040494990
11040499629
11040505732
11040511042
11040520137
11040525141
11040531428
11040537715
11040542903
11040547602
11040554072
11040559504
11040567072
11040573603
11040578425
11040584162
11040587458
11040594477
11040599299
11040603877
11040610285
11040615839
11040621821
11040628657
11040634150
11040640070
11040644587
11040650446
11040654841
11040662958
11040668757
11040681635
11040688410
11040695185
11040701777
11040707514
11040715998
11040721674
11040728815
11040735468
11040741511
11040747248
11040751825
11040757197
11040762690
11040768183
11040773676
11040777643
11040784113
11040790400
11040796198
11040801264
11040807795
11040813776
11040819635
11040825861
11040830316
11040836115
11040841242
11040846308
11040851374
11040856928
11040863581
11040867487
11040872736
11040878717
11040884271
11040888788
11040892328
11040901117
11040907221
11040911737
11040918024
11040923822
11040927240
11040933405
11040938593
11040946588
11040951715
11040957513
11040961908
11040967706
11040971918
11040978937
11040983392
11040990594
11040996637
11041003229
11041007562
11041012872
11041018487
11041023614
11041029352
11041035028
11041040948
11041045282
11041051324
11041057855
11041062555
11041067865
11041073724
11041078485
11041087640
11041093133
11041098321
11041104547
11041108270
11041115350
11041119866
11041126886
11041131158
11041139947
11041145440
11041150384
11041153497
11041162530
11041167291
11041174432
11041179376
11041187005
11041193719
11041199151
11041204095
11041211236
11041215691
11041220452
11041225884
11041232720
11041237786
11041244012
11041250970
11041256463
11041261407
11041267022
11041272942
11041279595
11041287774
11041295525
11041302727
11041312493
11041318719
11041325066
11041331719
11041338067
11041343926
11041348076
11041354363
11041359734
11041364678
11041369927
11041377129
11041382073
11041387017
11041392632
11041397881
11041402214
11041407769
11041411736
11041417839
11041423516
11041429192
11041434868
11041439873
11041442803
11041450920
11041456108
11041461601
11041466789
11041472527
11041476799
11041483391
11041487663
11041494316
11041498589
11041504265
11041510124
11041516533
11041521233
11041527153
11041533501
11041538567
11041542839
11041549065
11041555168
11041559990
11041566093
11041570732
11041576347
11041582268
11041588615
11041595573
11041601677
11041607780
11041612358
11041620048
11041624687
11041630363
11041636650
11041642631
11041647270
11041653862
11041659782
11041664726
11041670585
11041676139
11041680534
11041687248
11041693046
11041701103
11041706291
11041712089
11041717033
11041721977
11041727165
11041734245
11041741752
11041747245
11041752128
11041758720
11041761650
11041768424
11041772697
11041784110
11041789543
11041796806
11041802116
11041808036
11041812003
11041818473
11041826591
11041831107
11041838493
11041843314
11041850150
11041857597
11041862907
11041869498
11041873038
11041884696
11041889030
11041895438
11041900565
11041908072
11041912772
11041918204
11041922233
11041930472
11041935477
11041941153
11041946097
11041951835
11041956229
11041961295
11041967093
11041974418
11041979300
11041985160
11041990836
11041995902
11042000357
11042003653
11042011588
11042014945
11042021537
11042026786
11042032950
11042038199
11042044058
11042048636
11042055533
11042059867
11042066825
11042071341
11042077872
11042082327
11042087515
11042093863
11042099967
11042104544
11042109488
11042116202
11042122305
11042127127
11042130972
11042138602
11042143912
11042149161
11042154532
11042162527
11042168570
11042174307
11042179129
11042185171
11042190054
11042195608
11042201590
11042208731
11042213064
11042219900
11042225882
11042233511
11042239004
11042247244
11042252859
11042260489
11042268667
11042274405
11042278006
11042286489
11042290335
11042298574
11042302603
11042310110
11042316946
11042323233
11042327932
11042332632
11042336538
11042344534
11042350149
11042357351
11042363760
11042368459
11042373953
11042379812
11042384695
11042390432
11042396536
11042402395
11042408315
11042413442
11042419973
11042425649
11042431570
11042436086
11042445058
11042450613
11042460256
11042466604
11042474966
11042479604
11042489736
11042496816
11042503469
11042507253
11042513479
11042518606
11042523366
11042528371
11042534902
11042539724
11042545888
11042551198
11042556691
11042562917
11042567250
11042573232
11042577871
11042583547
11042590749
11042595143
11042601003
11042607228
11042613820
11042618398
11042625417
11042630055
11042638417
11042643178
11042650136
11042654897
11042661550
11042666371
11042671620
11042679067
11042681386
11042690114
11042697926
11042702809
11042706105
11042713796
11042718983
11042726918
11042732228
11042737782
11042742787
11042749440
11042755910
11042759633
11042766896
11042770985
11042778004
11042781911
11042789967
11042796254
11042801930
11042807606
11042813344
11042818043
11042824940
11042831227
11042837452
11042842518
11042849904
11042854603
11042860157
11042865834
11042871754
11042876637
11042880543
11042889759
11042894947
11042901600
11042906544
11042911854
11042916127
11042921681
11042926258
11042934376
11042941822
11042946278
11042952503
11042958424
11042963062
11042968495
11042973622
11042979847
11042985829
11042991932
11042996571
11043002308
11043007130
11043013172
11043019581
11043025257
11043031727
11043038319
11043044422
11043051563
11043056751
11043062305
11043070423
11043076893
11043084766
11043089710
11043097767
11043103626
11043107960
11043112354
11043120655
11043126575
11043130420
11043136219
11043141102
11043143909
11043152088
11043157642
11043163746
11043169056
11043173694
11043180103
11043185352
11043189869
11043194995
11043200794
11043206043
11043211902
11043217700
11043223438
11043229297
11043233631
11043239551
11043243884
11043248706
11043256214
11043262073
11043266284
11043272205
11043277271
11043282214
11043287158
11043292712
11043300281
11043305652
11043310901
11043316943
11043321887
11043326099
11043332385
11043338489
11043346362
11043351611
11043356616
11043363757
11043369739
11043374621
11043380847
11043387195
