10490067078
10490074463
10490082520
10490089844
10490096741
10490104004
10490112122
10490119324
10490126770
10490132569
10490139832
10490146485
10490153809
10490161926
10490169373
10490176941
10490183106
10490191834
10490200439
10490207886
10490215027
10490223938
10490229492
10490239075
10490245666
10490253174
10490261291
10490268066
10490275451
10490282532
10490288879
10490294983
10490304870
10490311401
10490318420
10490327942
10490337280
10490348205
10490357727
10490364624
10490373535
10490382080
10490388793
10490394836
10490401733
10490408691
10490414977
10490420776
10490426269
10490432433
10490439208
10490445495
10490453002
10490459106
10490465637
10490471008
10490477905
10490484008
10490490783
10490498962
10490503783
10490510680
10490515807
10490521911
10490528503
10490534850
10490540221
10490547179
10490553344
10490558105
10490565185
10490572143
10490577697
10490583556
10490589538
10490594909
10490600341
10490606933
10490611815
10490618407
10490623961
10490630309
10490636962
10490643676
10490649657
10490655394
10490661681
10490668334
10490674315
10490679320
10490685973
10490693175
10490699217
10490705199
10490710387
10490720091
10490725646
10490732604
10490739928
10490746398
10490751158
10490757628
10490765135
10490771910
10490778441
10490786192
10490792723
10490800536
10490807127
10490813414
10490820433
10490827574
10490835020
10490841429
10490847899
10490855040
10490862791
10490868162
10490877806
10490883543
10490892210
10490897947
10490904600
10490911802
10490918272
10490926329
10490933653
10490942076
10490947691
10490955320
10490961729
10490968870
10490975401
10490982054
10490988584
10490994749
10491003111
10491009458
10491015989
10491020201
10491030454
10491038633
10491045103
10491051084
10491057493
10491065000
10491073118
10491079038
10491086424
10491094602
10491100889
10491108579
10491112913
10491122190
10491128904
10491134275
10491143491
10491149412
10491158567
10491166440
10491172727
10491178464
10491187070
10491195554
10491203611
10491208188
10491216489
10491224241
10491231504
10491239072
10491244687
10491253110
10491260800
10491266782
10491274900
10491282224
10491287900
10491294797
10491300046
10491310239
10491315915
10491323361
10491331418
10491337827
10491345700
10491351254
10491359555
10491366879
10491373349
10491382565
10491388730
10491397153
10491404843
10491412656
10491421628
10491427182
10491435910
10491441525
10491449826
10491457883
10491464535
10491471921
10491480099
10491486630
10491493588
10491499753
10491509274
10491516476
10491523678
10491531796
10491540524
10491547787
10491555355
10491562680
10491569454
10491577816
10491583370
10491589169
10491599850
10491608212
10491616512
10491623470
10491632260
10491638241
10491647518
10491654232
10491664852
10491674068
10491681332
10491688290
10491697384
10491701961
10491711300
10491719356
10491728207
10491736690
10491743465
10491751217
10491759151
10491764217
10491772640
10491780208
10491790279
10491795284
10491804683
10491811214
10491819088
10491825435
10491834713
10491844173
10491851680
10491859371
10491867183
10491873714
10491881099
10491887325
10491895626
10491902400
10491913021
10491920650
10491928218
10491934200
10491941585
10491949703
10491957759
10491963741
10491973689
10491980403
10491987849
10491996089
10492002315
10492009639
10492015742
10492022700
10492032710
10492036738
10492047664
10492052730
10492060908
10492067073
10492074946
10492083430
10492091304
10492099849
10492109492
10492114680
10492124690
10492129573
10492137996
10492142695
10492151118
10492158076
10492166011
10492170954
10492179927
10492187434
10492194270
10492199580
10492209651
10492213984
10492224299
10492228755
10492238154
10492244563
10492252558
10492257075
10492269282
10492273310
10492282954
10492289851
10492296198
10492301936
10492310541
10492318354
10492326716
10492333491
10492340693
10492345881
10492355890
10492360651
10492370905
10492377436
10492387446
10492395624
10492403254
10492411005
10492419062
10492426386
10492433588
10492442194
10492446466
10492458063
10492462641
10492472101
10492482050
10492494562
10492510614
10492518549
10492525141
10492533869
10492542597
10492549677
10492557855
10492564142
10492575250
10492582574
10492588678
10492595819
10492604913
10492612726
10492620660
10492629388
10492636590
10492644403
10492650628
10492658807
10492665521
10492673334
10492682367
10492690606
10492697015
10492703241
10492707452
10492716912
10492721307
10492731195
10492739129
10492746820
10492752496
10492760553
10492766046
10492774591
10492781976
10492787469
10492792840
10492803643
10492808587
10492818353
10492824151
10492831475
10492839410
10492845025
10492854791
10492860650
10492868707
10492875909
10492883477
10492889519
10492896905
10492902459
10492912102
10492918572
10492926140
10492933831
10492939385
10492946587
10492953789
10492959160
10492968010
10492976189
10492982964
10492988457
10492996392
10493002129
10493010308
10493019097
10493026238
10493033013
10493041130
10493047478
10493055168
10493061821
10493069878
10493076348
10493085259
10493091789
10493099785
10493105095
10493114372
10493118828
10493128716
10493136284
10493143669
10493151970
10493157646
10493164543
10493171806
10493179863
10493188652
10493198235
10493204704
10493212822
10493221977
10493229606
10493236137
10493243034
10493251945
10493258903
10493265190
10493273369
10493281669
10493289604
10493296135
10493303825
10493312614
10493323295
10493333000
10493342338
10493351188
10493362968
10493372367
10493382865
10493391776
10493403007
10493413200
10493422538
10493429069
10493436759
10493443168
10493451774
10493460990
10493468131
10493475578
10493482780
10493489982
10493498038
10493504020
10493511283
10493519706
10493526481
10493533866
10493540580
10493545951
10493553031
10493561698
10493567252
10493575553
10493582328
10493591300
10493598075
10493606192
10493611747
10493619132
10493627127
10493634513
10493642020
10493651236
10493656851
10493664603
10493670096
10493677786
10493683585
10493692130
10493700797
10493707816
10493713309
10493721304
10493726920
10493734488
10493740164
10493750662
10493757681
10493766653
10493774039
10493783499
10493791739
10493799429
10493808890
10493815298
10493822745
10493830008
10493837637
10493844961
10493851736
10493858206
10493868094
10493875662
10493882559
10493890066
10493898916
10493904348
10493912222
10493918692
10493927664
10493933279
10493941824
10493949209
10493957876
10493963735
10493970449
10493977224
10493987417
10493991506
10494001394
10494008169
10494015737
10494021963
10494029043
10494036306
10494044729
10494051870
10494058401
10494063894
10494071767
10494077444
10494086660
10494090749
10494102346
10494107290
10494116933
10494121328
10494130666
10494135549
10494144460
10494148244
10494160817
10494165944
10494175832
10494180471
10494189321
10494193227
10494203420
10494208242
10494217824
10494225270
10494232778
10494238942
10494248037
10494253286
10494262319
10494270497
10494278981
10494283986
10494293386
10494300221
10494308827
10494312978
10494322133
10494326894
10494337575
10494342885
10494350758
10494356862
10494366200
10494371022
10494379872
10494384328
10494394765
10494400380
10494410878
10494415578
10494424367
10494428761
10494436818
10494443837
10494452931
10494458241
10494468068
10494472706
10494480763
10494487904
10494496144
10494504750
10494512318
10494517079
10494526783
10494531300
10494541005
10494545521
10494553578
10494560902
10494569142
10494574269
10494582203
10494586598
10494595875
10494599842
10494610401
10494619068
10494627064
10494634083
10494641285
10494649342
10494657948
10494665760
10494670094
10494682056
10494687122
10494695789
10494704212
10494711658
10494718311
10494725880
10494732715
10494740467
10494747364
10494755054
10494761951
10494767933
10494776355
10494784168
10494792102
10494797962
10494806690
10494814502
10494820972
10494827930
10494836902
10494841968
10494851551
10494860218
10494867481
10494873950
10494881702
10494888416
10494893726
10494904834
10494911304
10494918811
10494924854
10494932117
10494937427
10494947437
10494955310
10494962329
10494969775
10494978015
10494982471
10494991931
10494998706
10495006396
10495012012
10495021533
10495028247
10495037036
10495044848
10495052234
10495058093
10495065417
10495073779
10495082263
10495089282
10495097400
10495105883
10495110095
10495118884
10495125537
10495135302
10495141955
10495149768
10495156237
10495163439
10495168933
10495177539
10495185107
10495193957
10495198474
10495209338
10495213793
10495222277
10495228747
10495235827
10495242968
10495251940
10495256579
10495265429
10495271654
10495278674
10495285021
10495292712
10495299670
10495309740
10495314745
10495323961
10495330492
10495340136
10495344652
10495354418
10495359728
10495369249
10495377672
10495385607
10495392504
10495400194
10495409472
10495416918
10495425158
10495431993
10495443224
10495447801
10495460314
10495465563
10495476854
10495483446
10495491625
10495500047
10495509203
10495515794
10495523973
10495530260
10495537157
10495544908
10495553880
10495559679
10495568163
10495576036
10495583177
10495589647
10495596971
10495604356
10495612779
10495619981
10495627000
10495633043
10495640184
10495646531
10495655076
10495658861
10495670335
10495674974
10495682847
10495689256
10495696702
10495703172
10495711839
10495717210
10495728074
10495732652
10495741929
10495750413
10495755845
10495762254
10495772019
10495778550
10495788804
10495796067
10495804124
10495809434
10495819932
10495827439
10495832993
10495844224
10495851426
10495858323
10495863999
10495871323
10495878709
10495886826
10495892747
10495900986
10495906663
10495914353
10495921128
10495929307
10495937119
10495942734
10495948105
10495958115
10495963974
10495971116
10495978867
10495985642
10495991196
10495998887
10496006516
10496014939
10496021653
10496029282
10496035813
10496045517
10496052353
10496060654
10496065720
10496074936
10496080185
10496088852
10496096115
10496104111
10496110031
10496116867
10496125107
10496132797
10496139633
10496146164
10496154221
10496160202
10496164841
10496174850
10496181381
10496189438
10496196823
10496203415
10496212448
10496218857
10496226913
10496235458
10496242660
10496246933
10496256820
10496263290
10496271408
10496277633
10496285812
10496294967
10496303756
10496309249
10496317428
10496323715
10496332809
10496337142
10496346481
10496351669
10496361495
10496370284
10496378646
10496385116
10496393478
10496399337
10496406173
10496410140
10496421371
10496426070
10496435104
10496442550
10496448226
10496456222
10496463241
10496473739
10496481307
10496488937
10496495406
10496501876
10496509994
10496514388
10496523116
10496528731
10496538802
10496546981
10496553023
10496560714
10496567794
10496575667
10496584761
10496590010
10496602034
10496608016
10496617415
10496621993
10496631026
10496636214
10496645796
10496651290
10496661238
10496666731
10496675093
10496682906
10496688948
10496696700
10496702620
10496711592
10496719466
10496728072
10496734175
10496743208
10496749922
10496757124
10496765608
10496773360
10496780440
10496788679
10496797407
10496804365
10496810164
10496818770
10496824446
10496834089
10496841231
10496848005
10496853743
10496862227
10496869917
10496877668
10496884565
10496892256
10496898726
10496906355
10496912397
10496920698
10496927046
10496935469
10496940534
10496950239
10496954939
10496963911
10496970564
10496978437
10496983198
10496990766
10496997419
10497006025
10497013471
10497020734
10497027631
10497036665
10497043012
10497049970
10497056928
10497065412
10497070966
10497078046
10497083417
10497093488
10497099409
10497106000
10497111494
10497121137
10497128583
10497136701
10497143049
10497150312
10497157941
10497165387
10497172284
10497181440
10497188703
10497195539
10497202436
10497211103
10497215924
10497225568
10497233380
10497240094
10497246991
10497255109
10497259442
10497269269
10497275006
10497283185
10497291730
10497299237
10497306317
10497315472
10497324750
10497331403
10497339581
10497349591
10497356976
10497363141
10497372540
10497378583
10497388348
10497394574
10497403363
10497410565
10497420025
10497426495
10497433331
10497439496
10497448590
10497452862
10497461102
10497468914
10497478253
10497482525
10497493267
10497498577
10497508038
10497512616
10497522442
10497527081
10497537884
10497546551
10497552838
10497561016
10497567303
10497574078
10497581402
10497589459
10497599346
10497604717
10497613323
10497619854
10497629131
10497633648
10497642620
10497650188
10497658916
10497665447
10497673443
10497681133
10497687237
10497695598
10497701153
10497709759
10497717083
10497724773
10497731914
10497739422
10497744976
10497754131
10497760845
10497768230
10497775798
10497783733
10497790081
10497797283
10497803142
10497810344
10497817607
10497827800
10497832439
10497840801
10497847270
10497855815
10497862102
10497869548
10497876079
10497884929
10497889629
10497898845
10497905803
10497913005
10497920329
10497925945
10497933513
10497940166
10497947856
10497954326
10497962077
10497968364
10497972942
10497982280
10497987163
10497996806
10498001567
10498011333
10498015666
10498025676
10498029948
10498038981
10498043803
10498053386
10498058696
10498068095
10498072490
10498080851
10498088786
10498095134
10498100077
10498109294
10498117411
10498125346
10498132060
10498139384
10498147685
10498153117
10498163615
10498169657
10498177592
10498183940
10498192362
10498196635
10498204752
10498211649
10498221232
10498229960
10498237040
10498243754
10498251383
10498258768
10498265238
10498273173
10498280314
10498288309
10498295450
10498302775
10498309489
10498315348
10498324503
10498329813
10498339884
10498347696
10498355204
10498361368
10498368570
10498375528
10498382914
10498390970
10498398661
10498406168
10498411539
10498421549
10498427957
10498436380
10498443399
10498452127
10498457620
10498467325
10498474954
10498482462
10498488809
10498497720
10498506387
10498512125
10498520181
10498527628
10498535623
10498541055
10498551431
10498555582
10498565408
10498572122
10498579568
10498585855
10498593606
10498600259
10498609109
10498612893
10498624429
10498629068
10498637063
10498643350
10498651223
10498657754
10498665689
10498672830
10498680032
10498686624
10498694497
10498701089
10498708535
10498714212
10498721658
10498727395
10498738137
10498743386
10498751443
10498757974
10498766335
10498772683
10498779458
10498785073
10498794167
10498800576
10498808633
10498814736
10498820901
10498829079
10498836465
10498843423
10498852700
10498859170
10498865823
10498872109
10498880105
10498886574
10498894082
10498900979
10498908486
10498915810
10498923073
10498930886
10498937905
10498945168
10498952553
10498960061
10498969765
10498978066
10498984902
10498992470
10499000466
10499007912
10499015053
10499018959
10499031472
10499037636
10499046547
10499053383
10499060707
10499067482
10499076332
10499083840
10499092568
10499098122
10499106484
10499114235
10499120094
10499126076
10499134621
10499140053
10499150795
10499156410
10499164345
10499170509
10499177711
10499184364
10499192482
10499197182
10499206398
10499211525
10499220680
10499224952
10499234901
10499239174
10499248390
10499254066
10499266090
10499273109
10499281410
10499285865
10499294349
10499301735
10499308448
10499315101
10499323402
10499331214
10499336708
10499343299
10499351966
10499355995
10499364417
10499371009
10499379981
10499385536
10499393897
10499400794
10499409705
10499417457
10499424232
10499431190
10499438575
10499446082
10499453162
10499459388
10499466651
10499474830
10499480994
10499488135
10499497352
10499502051
10499511573
10499519019
10499525367
10499532203
10499541358
10499550025
10499557532
10499564368
10499572547
10499580054
10499585791
10499594825
10499600440
10499607947
10499616614
10499622046
10499630042
10499634436
10499644446
10499650672
10499657691
10499666968
10499675818
10499682349
10499689856
10499697241
10499705054
10499711462
10499719519
10499727759
10499733557
10499742163
10499750464
10499756995
10499762610
10499771887
10499778784
10499788306
10499793005
10499803503
10499807959
10499816199
10499822546
10499829748
10499838781
10499845251
10499852636
10499860937
10499867895
10499874182
10499881506
10499888098
10499894751
10499903540
10499908361
10499917211
10499924108
10499930456
10499936621
10499944006
10499951025
10499960913
10499969946
10499976049
10499982519
10499990209
10499996313
10500005163
10500012914
10500021093
10500028905
10500034521
10500042455
10500048559
10500056554
10500064550
10500071630
10500081274
10500087621
10500096044
10500103612
10500113317
10500121801
10500130712
10500138585
10500146032
10500153966
10500161962
10500169652
10500173986
10500182714
10500189855
10500200597
10500205297
10500213964
10500220922
10500226598
10500233068
10500241002
10500247472
10500255834
10500263158
10500269628
10500276769
10500284642
10500289281
10500298131
10500301854
10500314427
10500323766
10500331639
10500339757
10500347447
10500354222
10500363499
10500371190
10500377965
10500385350
10500390965
10500399144
10500406529
10500415989
10500422886
10500433201
10500439610
10500448765
10500456578
10500462803
10500471348
10500478672
10500488865
10500493382
10500503025
10500509251
10500517430
10500521702
10500531712
10500540135
10500547337
10500552525
10500563267
10500572483
10500579807
10500585117
10500592808
10500604221
10500610142
10500617527
10500623264
10500630466
10500637730
10500645054
10500650791
10500659397
10500668430
10500675693
10500683445
10500691318
10500697544
10500703220
10500712009
10500721409
10500729831
10500736606
10500745090
10500748447
10500759372
10500766025
10500774814
10500780979
10500789096
10500797885
10500803440
10500811191
10500816440
10500824436
10500831088
10500839817
10500847202
10500857395
10500867404
10500873264
10500881198
10500889682
10500896945
10500903659
10500911716
10500918552
10500928012
10500935519
10500943393
10500950595
10500956576
10500964755
10500972690
10500980563
10500988193
10500990939
10501001620
10501009006
10501016147
10501023532
10501030734
10501038363
10501045016
10501053073
10501062533
10501068332
10501076937
10501084018
10501091159
10501099398
10501104342
10501112521
10501119479
10501128695
10501137606
10501145968
10501150241
10501160677
10501167880
10501176974
10501183871
10501192660
10501200228
10501206454
10501213473
10501222506
10501230318
10501236117
10501240939
10501251681
10501259676
10501267733
10501274508
10501283175
10501291537
10501299227
10501306490
10501313082
10501321505
10501326632
10501336031
10501340304
10501348482
10501355684
10501365877
10501371859
10501379793
10501384127
10501393099
10501399813
10501408907
10501415193
10501425753
10501431917
10501440096
10501447847
10501455171
10501463594
10501472261
10501479097
10501485079
10501495699
10501500276
10501510530
10501520052
10501527254
10501536531
10501544588
10501551363
10501557466
10501565645
10501572420
10501581514
10501589082
10501595735
10501604219
10501611909
10501616731
10501626619
10501631379
10501640291
10501645662
10501655366
10501661897
10501669404
10501676179
10501683442
10501689485
10501696260
10501703889
10501712800
10501719392
10501727693
10501734468
10501742036
10501749848
10501757050
10501764619
10501774201
10501780244
10501788789
10501794953
10501802277
10501809480
10501815827
10501823212
10501832062
10501838227
10501847077
10501853059
10501861909
10501868317
10501876374
10501884858
10501895539
10501902497
10501909516
10501917450
10501923005
10501931244
10501938019
10501944184
10501953583
10501959992
10501968659
10501975861
10501981415
10501987397
10501997040
10502003144
10502011322
10502019745
10502025299
10502034210
10502042389
10502050141
10502059113
10502068085
10502074677
10502081207
10502085907
10502097199
10502103180
10502111908
10502118073
10502126434
10502133636
10502140900
10502143402
10502153595
10502160797
10502166534
10502170257
10502183380
10502188690
10502198639
10502203522
10502212677
10502217071
10502225982
10502234588
10502242706
10502250213
10502255829
10502262970
10502269806
10502276886
10502285003
10502289703
10502300079
10502307891
10502313507
10502319732
10502327911
10502332305
10502341888
10502346038
10502358550
10502363860
10502373870
10502380706
10502388580
10502394378
10502402190
10502407806
10502416351
10502422454
10502431121
10502438750
10502446441
10502451995
10502460235
10502467864
10502475493
10502483184
10502491668
10502501189
10502507781
10502518523
10502526275
10502533660
10502539702
10502549285
10502555999
10502563384
10502569182
10502578032
10502583525
10502591643
10502599456
10502608000
10502614653
10502622832
10502628874
10502637114
10502643096
10502651885
10502658171
10502666350
10502671538
10502680205
10502688445
10502695769
10502702605
10502709868
10502718230
10502726652
10502733244
10502739470
10502747099
10502753630
10502761381
10502768523
10502776945
10502783476
10502789885
10502796232
10502803557
10502808867
10502820524
10502828703
10502835173
10502841337
10502848600
10502854948
10502861784
10502867521
10502876005
10502882353
10502892240
10502898710
10502907072
10502913298
10502922270
10502928251
10502939298
10502947050
10502955473
10502962248
10502969084
10502975614
10502984586
10502988249
10503001005
10503003629
10503016691
10503021696
10503031156
10503038908
10503044523
10503051847
10503061368
10503068815
10503076017
10503080900
10503089383
10503093961
10503103483
10503108854
10503120511
10503127530
10503134794
10503141263
10503149503
10503157804
10503164029
10503172940
10503181546
10503189786
10503196805
10503203885
10503209745
10503217008
10503222440
10503232999
10503239408
10503246304
10503251737
10503259427
10503267178
10503274564
10503280240
10503290128
10503296536
10503303433
10503309109
10503318814
10503325711
10503333462
10503339688
10503350735
10503355740
10503364773
10503371548
10503380154
10503384488
10503393338
10503400662
10503410000
10503416409
10503424771
10503429471
10503438443
10503443142
10503452298
10503460659
10503468167
10503475369
10503482632
10503490139
10503499050
10503506253
10503512844
10503520230
10503526455
10503535305
10503543484
10503549709
10503557705
10503565029
10503572414
10503581142
10503588955
10503594509
10503602383
10503610867
10503617825
10503624477
10503634060
10503638943
10503647549
10503654323
10503660854
10503666958
10503673855
10503679531
10503689297
10503696255
10503702663
10503708339
10503718227
10503725002
10503731167
10503737270
10503749782
10503754604
10503764186
10503769252
10503779750
10503783718
10503791225
10503800197
10503807643
10503814296
10503823818
10503830409
10503836818
10503845424
10503852138
10503857814
10503870265
10503877528
10503885829
10503892848
10503901454
10503908534
10503915553
10503923244
10503932887
10503940150
10503947536
10503956080
10503962001
10503970912
10503976954
10503983424
10503994899
10504001491
10504010707
10504018886
10504025355
10504031825
10504038722
10504045558
10504055507
10504063807
10504073695
10504081507
10504088526
10504096949
10504105006
10504112025
10504121302
10504129359
10504134974
10504145167
10504151820
10504159022
10504167933
10504176844
10504184351
10504190882
10504197413
10504204920
10504211512
10504219569
10504226649
10504236109
10504241053
10504251612
10504256739
10504266932
10504270960
10504280420
10504286890
10504298487
10504306605
10504314600
10504321253
10504327662
10504336451
10504344141
10504351099
10504358911
10504366053
10504375086
10504379724
10504388391
10504397180
10504403345
10504411707
10504419519
10504425073
10504436121
10504441187
10504450403
10504456995
10504463892
10504470422
10504479944
10504485437
10504495203
10504503015
10504509668
10504516321
10504523035
10504530298
10504539270
10504544519
10504554040
10504561304
10504567407
10504574304
10504581689
10504591333
10504599023
10504606103
10504614648
10504621911
10504630456
10504634912
10504644006
10504651513
10504660119
10504667321
10504674707
10504681970
10504690026
10504699487
10504705102
10504716393
10504723901
10504730676
10504736169
10504744897
10504751183
10504757531
10504763818
10504773766
10504780663
10504789819
10504796655
10504803735
10504810021
10504817467
10504826501
10504835839
10504842309
10504851098
10504858849
10504866906
10504872948
10504880883
10504891076
10504896935
10504905541
10504914208
10504921715
10504929955
10504938012
10504945275
10504953453
10504962242
10504968163
10504978356
10504986473
10504993859
10505000267
10505010033
10505017052
10505026512
10505032616
10505039452
10505045189
10505052940
10505059227
10505069298
10505075401
10505083580
10505089073
10505097313
10505105919
10505113243
10505119896
10505129661
10505134666
10505143944
10505151390
10505156761
10505163048
10505170921
10505177635
10505187217
10505193626
10505202049
10505207176
10505216148
10505223167
10505229576
10505236290
10505244529
10505252098
10505260276
10505265220
10505273704
10505280174
10505288536
10505295555
10505304466
10505309776
10505318382
10505324668
10505332420
10505338889
10505345847
10505352866
10505364463
10505369468
10505378562
10505385093
10505391502
10505397849
10505406150
10505413596
10505420920
10505427878
10505435874
10505440269
10505449546
10505456077
10505462485
10505469748
10505480857
10505485618
10505493186
10505499289
10505508445
10505514792
10505522910
10505530539
10505540854
10505546103
10505556418
10505563926
10505571067
10505578452
10505588034
10505592185
10505603293
10505611533
10505618735
10505625815
10505631369
10505639853
10505647177
10505657370
10505663779
10505671347
10505677084
10505687033
10505693869
10505702841
10505707663
10505718588
10505724997
10505732809
10505741049
10505747885
10505752524
10505761374
10505771017
10505779074
10505786276
10505792013
10505800253
10505806051
10505810324
10505820150
10505824911
10505835226
10505841940
10505852255
10505854818
10505864950
10505869345
10505879354
10505884664
10505894674
10505899862
10505909262
10505913412
10505925924
10505931539
10505939413
10505948751
10505956747
10505963400
10505971395
10505977865
10505984029
10505990133
10505998434
10506005331
10506013814
10506020284
10506027181
10506033468
10506042318
10506048604
10506056844
10506063863
10506071798
10506078695
10506086812
10506091329
10506102804
10506110006
10506116475
10506123128
10506131368
10506136495
10506146627
10506154134
10506159749
10506165792
10506173604
10506180440
10506189717
10506197591
10506203023
10506209126
10506216756
10506223226
10506231648
10506239888
10506248067
10506254659
10506263997
10506272359
10506280110
10506288106
10506294637
10506303181
10506311726
10506319234
10506326863
10506332234
10506339863
10506347249
10506354573
10506363118
10506370015
10506378438
10506384175
10506394551
10506402058
10506408833
10506415547
10506425740
10506431843
10506440388
10506443013
10506453266
10506461262
10506467182
10506477558
10506486653
10506493000
10506501179
10506507038
10506515949
10506520710
10506531330
10506536762
10506546833
10506552204
10506562031
10506569538
10506575275
10506582600
10506590473
10506596943
10506606953
10506613666
10506622028
10506629841
10506637287
10506644733
10506652790
10506660053
10506668232
10506675373
10506683246
10506690632
10506696979
10506706623
10506714924
10506722553
10506730243
10506738849
10506745990
10506754047
10506756855
10506767597
10506774738
10506781818
10506788959
10506796405
10506803852
10506811725
10506820148
10506827838
10506834979
10506843952
10506851398
10506855792
10506864825
10506869525
10506878925
10506887164
10506894855
10506901446
10506908893
10506916095
10506922198
10506929584
10506936603
10506945209
10506952777
10506960956
10506967364
10506975421
10506983539
10506990802
10506996844
10507005694
10507012835
10507019549
10507028460
10507033709
10507041827
10507048663
10507057696
10507066607
10507075701
10507083636
10507090045
10507098773
10507105364
10507112750
10507118304
10507128192
10507135577
10507143145
10507149920
10507159441
10507163897
10507174761
10507182696
10507191668
10507197649
10507206255
10507213885
10507220904
10507228472
10507235491
10507244951
10507251360
10507259234
10507267840
10507277361
10507283892
10507293535
10507299395
10507311724
10507320696
10507327044
10507334856
10507342180
10507350786
10507356890
10507367388
10507373491
10507380815
10507389055
10507396868
10507404436
10507409929
10507418047
10507425737
10507432756
10507440447
10507448198
10507456255
10507464250
10507470720
10507476518
10507487810
10507494585
10507501909
10507509721
10507515337
10507519914
10507530229
10507535905
10507546281
10507552751
10507561296
10507567888
10507576738
10507583268
10507591325
10507598100
10507606645
10507613603
10507620866
10507629228
10507634965
10507642106
10507649552
10507656694
10507663835
10507670915
10507677018
10507686357
10507693437
10507702653
10507709062
10507718705
10507724137
10507733293
10507738236
10507747697
10507755265
10507762772
10507771012
10507779740
10507788041
10507796342
10507803788
10507809342
10507817460
10507823685
10507832719
10507839249
10507848282
10507857010
10507865128
10507871232
10507879777
10507888443
10507896927
10507904557
10507911393
10507918351
10507924576
10507932938
10507938492
10507948136
10507957596
10507964676
10507971390
10507978287
10507983780
10507991226
10507999527
10508009171
10508015579
10508022110
10508027969
10508037552
10508041092
10508050430
10508057755
10508066788
10508075272
10508081741
10508088699
10508095169
10508102005
10508110794
10508115555
10508125625
10508134170
10508141739
10508144485
10508161392
10508170303
10508176040
10508186233
10508192825
10508202041
10508206619
10508215896
10508223892
10508229629
10508234634
10508246353
10508254348
10508262222
10508269912
10508275466
10508284805
10508290481
10508297256
10508305374
10508313369
10508321243
10508328872
10508335159
10508343398
10508349197
10508359023
10508365920
10508373489
10508381057
10508388198
10508396316
10508404433
10508411391
10508419143
10508425735
10508435134
10508442763
10508450149
10508456191
10508464492
10508473037
10508481032
10508489028
10508497512
10508506789
10508512770
10508521987
10508532302
10508539992
10508547499
10508555190
10508562575
10508570143
10508576918
10508584731
10508594496
10508601210
10508607924
10508614089
10508624953
10508630324
10508639296
10508643019
10508654433
10508659804
10508667494
10508673537
10508681776
10508688124
10508695937
10508703017
10508712965
10508717787
10508726271
10508733778
10508740858
10508747572
10508753615
10508764296
10508771193
10508778822
10508786451
10508794020
10508800428
10508807081
10508814894
10508821547
10508831739
10508836500
10508846998
10508852064
10508860548
10508867689
10508873243
10508880506
10508889723
10508897779
10508905836
10508913587
10508919691
10508927076
10508934034
10508940687
10508948682
10508956556
10508964368
10508972181
10508977735
10508986524
10508993726
10509000867
10509008314
10509017469
10509024671
10509032728
10509038221
10509049695
10509056226
10509063733
10509071058
10509078443
10509085889
10509091443
10509099683
10509105542
10509114759
10509122815
10509130078
10509137830
10509146070
10509152051
10509162183
10509169751
10509177808
10509184583
10509192945
10509201123
10509208447
10509214246
10509222119
10509230969
10509236829
10509246350
10509253308
10509261304
10509268811
10509275159
10509279309
10509290173
10509297253
10509305859
10509312207
10509319409
10509326916
10509334363
10509341382
10509349316
10509357068
10509362622
10509370190
10509377514
10509383862
10509391247
10509398083
10509406689
10509413159
10509421093
10509426281
10509434338
10509441601
10509449230
10509456250
10509465771
10509472485
10509479565
10509486035
10509493176
10509500195
10509506603
10509515392
10509523083
10509529858
10509537121
10509544506
10509551952
10509557934
10509565258
10509573681
10509581676
10509584423
10509595226
10509602123
10509609264
10509611889
10509622814
10509631115
10509638500
10509645763
10509654674
10509659313
10509669506
10509674206
10509682934
10509690136
10509700634
10509706310
10509714672
10509719127
10509727916
10509735118
10509741405
10509747875
10509761302
10509770275
10509779064
10509786327
10509794261
10509802135
10509807750
10509815196
10509822460
10509831004
10509837535
10509843761
10509852306
10509860423
10509867015
10509874339
10509880992
10509888255
10509897594
10509904918
10509911571
10509918895
10509924998
10509935740
10509940501
10509950999
10509958079
10509966319
10509972056
10509980723
10509989634
10509997508
10510003428
10510011668
10510017894
10510025523
10510031565
10510039927
10510046458
10510058665
10510065257
10510074107
10510081187
10510087412
10510095347
10510101084
10510111399
10510115916
10510125742
10510131358
10510140879
10510145396
10510154063
10510158762
10510168589
10510177073
10510184458
10510190073
10510198130
10510203684
10510212107
10510216685
10510227671
10510234629
10510243540
10510249521
10510257395
10510264292
10510272593
10510277598
10510287241
10510292124
10510302317
10510310190
10510316538
10510321482
10510331552
10510336252
10510348154
10510353464
10510361887
10510368845
10510375986
10510382822
10510391855
10510398752
10510408029
10510413095
10510422495
10510431345
10510437997
10510452707
10510459177
10510469125
10510476205
10510483347
10510490488
10510499155
10510504465
10510513559
10510518442
10510529916
10510539194
10510544931
10510552499
10510560495
10510565133
10510573068
10510584237
10510589975
10510598459
10510604562
10510612008
10510621102
10510626046
10510634225
10510641183
10510650033
10510654977
10510664315
10510668710
10510678048
10510683114
10510690927
10510698190
10510710030
10510716866
10510724862
10510730416
10510738656
10510743722
10510753121
10510758248
10510768807
10510775643
10510782662
10510790841
10510796883
10510804940
10510810982
10510817879
10510826363
10510832833
10510841134
10510847786
10510854928
10510861397
10510869820
10510876534
10510884407
10510890999
10510899422
10510906075
10510913887
10510922860
10510929818
10510936837
10510945687
10510953011
10510961067
10510968453
10510975105
10510981636
10510989510
10510995918
10511006233
10511010933
10511020149
10511027901
10511034126
10511042366
10511049141
10511053963
10511065620
10511074715
10511082710
10511089729
10511097603
10511104744
10511113716
10511121651
10511128609
10511136726
10511144417
10511153084
10511159614
10511168831
10511175117
10511185676
10511190376
10511198738
10511206916
10511214058
10511219123
10511228096
10511235359
10511246162
10511252143
10511261604
10511268257
10511274665
10511280708
10511289558
10511293220
10511305366
10511310066
10511319465
10511323921
10511332404
10511340034
10511347419
10511357246
10511364631
10511369575
10511378852
10511383063
10511393134
10511397590
10511408698
10511413520
10511425483
10511430549
10511441474
10511447150
10511457526
10511463874
10511473212
10511479804
10511487189
10511495429
10511503302
10511510566
10511516486
10511524237
10511531806
10511539191
10511547003
10511555548
10511561225
10511569220
10511574896
10511582953
10511590277
10511597785
10511605597
10511612494
10511621771
10511628241
10511632819
10511643012
10511649176
10511657965
10511666449
10511674200
10511681403
10511687079
10511695013
10511700506
10511705145
10511716620
10511724188
10511730780
10511738287
10511746039
10511752447
10511760199
10511766852
10511775335
10511783087
10511790350
10511796759
10511804937
10511812750
10511820074
10511823004
10511834783
10511841375
10511848760
10511855169
10511862921
10511868414
10511876531
10511884161
10511894964
10511900335
10511908331
10511916143
10511921758
10511929327
10511936590
10511943365
10511950384
10511956915
10511966131
10511973394
10511979864
10511989385
10511995672
10512006048
10512013860
10512019842
10512026128
10512033452
10512040349
10512048711
10512055059
10512064946
10512073186
10512080144
10512087224
10512093694
10512099736
10512107183
10512112615
10512124150
10512129094
10512137395
10512144231
10512152349
10512158147
10512166142
10512172734
10512182256
10512188848
10512197453
10512201421
10512210637
10512217168
10512226079
10512232549
10512240544
10512249211
10512255559
10512260991
10512270329
10512277531
10512284062
10512287907
10512298833
10512307377
10512313481
10512320012
10512328007
10512335332
10512342045
10512348698
10512356694
10512363774
10512371891
10512376957
10512385563
10512392521
10512398991
10512405583
10512412968
10512419499
10512426762
10512433049
10512441044
10512447880
10512456364
10512463261
10512470646
10512477421
10512485539
10512493778
10512500980
10512506840
10512514042
10512521671
10512529240
10512535099
10512542240
10512549503
10512555058
10512562199
10512569828
10512578068
10512585636
10512593326
10512598942
10512605961
10512613773
10512619144
10512626652
10512632877
10512640079
10512649479
10512655094
10512664066
10512670292
10512676822
10512682682
10512692752
10512700077
10512708133
10512715519
10512721683
10512729251
10512736820
10512742191
10512750797
10512759098
10512767032
10512774539
10512782230
10512789066
10512796085
10512803226
10512812442
10512820316
10512828983
10512836795
10512843082
10512850223
10512859378
10512866458
10512875919
10512879153
10512890628
10512895572
10512907657
10512915591
10512922671
10512931338
10512939212
10512946109
10512953982
10512961551
10512967471
10512976626
10512984988
10512994937
10513001467
10513010318
10513018679
10513024295
10513032534
10513039370
10513043215
10513055911
10513061099
10513072573
10513079165
10513085696
10513092227
10513101626
10513105959
10513117678
10513124087
10513132021
10513137820
10513146975
10513154238
10513160097
10513167910
10513176821
10513184145
10513189883
10513199587
10513205080
10513212527
10513218203
10513227602
10513233950
10513242434
10513249819
10513256777
10513262636
10513270937
10513278566
10513287111
10513291811
10513300478
10513307985
10513313539
10513321352
10513328432
10513337587
10513348024
10513354616
10513362001
10513368959
10513374941
10513383608
10513389894
10513394594
10513406191
10513414613
10513421266
10513428774
10513435060
10513441835
10513449709
10513456117
10513463563
10513471681
10513478944
10513486635
10513494386
10513501527
10513507692
10513515932
10513524415
10513531740
10513537904
10513546388
10513551027
10513560914
10513565492
10513576051
10513583192
10513592408
10513597657
10513605714
10513610109
10513619691
10513623963
10513637330
10513643434
10513651551
10513656800
10513665223
10513670167
10513679933
10513687745
10513695252
10513703248
10513709290
10513716615
10513723878
10513731141
10513736939
10513744935
10513754334
10513760072
10513768555
10513775941
10513782166
10513788941
10513797547
10513805237
10513812684
10513818421
10513826356
10513833680
10513841065
10513845643
10513853821
10513858826
10513870484
10513878907
10513885010
10513891907
10513900513
10513907715
10513913330
10513919556
10513928650
10513936341
10513943848
10513948120
10513956970
10513961792
10513971070
10513977661
10513986939
10513992066
10514000000
10514006836
10514015442
10514022095
10514029297
10514036011
10514046204
10514052612
10514059509
10514066955
10514075256
10514079895
10514088379
10514092651
10514102783
10514107788
10514116577
10514123840
10514129577
10514136352
10514144775
10514148987
10514161132
10514167236
10514174804
10514181884
10514189270
10514194580
10514201904
10514206909
10514217041
10514224792
10514232421
10514239929
10514246093
10514253478
10514259216
10514268310
10514276122
10514283019
10514290344
10514297729
10514304748
10514310424
10514317870
10514322448
10514332702
10514338866
10514346923
10514354674
10514362487
10514370238
10514375854
10514384887
10514392821
10514400085
10514407470
10514414733
10514420409
10514427916
10514436461
10514446776
10514452575
10514461669
10514467284
10514476317
10514482665
10514492064
10514497802
10514507018
10514514037
10514521849
10514528319
10514535277
10514540709
10514551024
10514558043
10514569579
10514575438
10514583373
10514590086
10514597777
10514603819
10514611144
10514617369
10514627867
10514634642
10514642699
10514648314
10514657835
10514665526
10514671568
10514679320
10514688902
10514700011
10514707152
10514714598
10514720396
10514728758
10514734068
10514742613
10514750486
10514756529
10514763487
10514771849
10514780211
10514788572
10514795347
10514804502
10514811216
10514820066
10514827024
10514835203
10514841551
10514847105
10514857481
10514863462
10514871275
10514877073
10514885191
10514892942
10514899717
10514907102
10514914243
10514922056
10514928709
10514936582
10514943113
10514950986
10514957334
10514964963
10514969968
10514978940
10514987546
10514994810
10515000547
10515007627
10515015745
10515022092
10515030393
10515038144
10515045286
10515051267
10515057370
10515065671
10515071958
10515079343
10515085080
10515095334
10515103330
10515111081
10515118100
10515126279
10515133237
10515140683
10515147580
10515154904
10515162961
10515168881
10515177670
10515183408
10515191037
10515198544
10515208127
10515216489
10515222470
10515230405
10515236874
10515242429
10515250973
10515258725
10515265988
10515273434
10515280453
10515288632
10515296567
10515302792
10515311154
10515314755
10515326474
10515333859
10515341610
10515347653
10515354916
10515359494
10515369320
10515378415
10515385861
10515392697
10515400204
10515406552
10515413876
10515420346
10515427792
10515434078
10515442501
10515450253
10515455868
10515463619
10515470638
10515476925
10515484676
10515493282
10515500790
10515507931
10515515804
10515523373
10515531124
10515537533
10515545345
10515551510
10515558956
10515567867
10515573727
10515581295
10515588497
10515594845
10515600582
10515609310
10515616817
10515623836
10515631160
10515638241
10515643795
10515652095
10515657894
10515663936
10515674007
10515680599
10515686153
10515694088
10515701290
10515708187
10515715633
10515718135
10515729305
10515737300
10515744686
10515751216
10515756587
10515765499
10515771907
10515776058
10515788081
10515794612
10515801997
10515807735
10515816097
10515824519
10515833186
10515840816
10515846858
10515854976
10515863826
10515873042
10515879878
10515887141
10515894588
10515902827
10515909297
10515918025
10515924617
10515933162
10515941646
10515949580
10515956111
10515964717
10515971736
10515981257
10515986079
10515994746
10515999873
10516009272
10516013545
10516024470
10516032527
10516038447
10516042658
10516052485
10516060603
10516067133
10516072016
10516084651
10516091670
10516099726
10516107600
10516113093
10516120722
10516126643
10516134638
10516144221
10516151667
10516158869
10516164973
10516172358
10516180231
10516187800
10516194330
10516201594
10516209223
10516214777
10516223139
10516228754
10516237482
10516244440
10516254694
10516261347
10516268854
10516275629
10516282953
10516288141
10516297663
10516303766
10516312311
10516317072
10516325067
10516331659
10516337152
10516342523
10516347650
10516353143
10516358637
10516364374
10516368463
10516374811
10516379328
10516384699
10516390253
10516395624
10516403009
10516408014
10516413934
10516418146
10516424982
10516429864
10516434747
10516440363
10516446405
10516450799
10516457513
10516462701
10516470819
10516478082
10516487237
10516489557
10516499383
10516507501
10516515436
10516522394
10516528436
10516537957
10516540948
10516551873
10516560296
10516566583
10516577630
10516585321
10516592401
10516597894
10516607049
10516613763
10516619317
10516628472
10516637383
10516642999
10516649652
10516657586
10516664605
10516669732
10516678826
10516683099
10516692742
10516699578
10516707452
10516715020
10516722710
10516730157
10516737420
10516745782
10516753350
10516758477
10516771355
10516777581
10516785515
10516791314
10516796258
10516803704
10516808037
10516815728
10516821404
10516828179
10516832940
10516838982
10516844414
10516849785
10516854119
10516860161
10516864190
10516867363
10516875359
10516878777
10516886101
10516889275
10516895989
10516900627
10516905876
10516910332
10516917717
10516923332
10516929131
10516935234
10516940056
10516947014
10516952629
10516961235
10516965996
10516973625
10516980339
10516986260
10516992241
10516998344
10517002922
10517008232
10517010063
10517019341
10517025627
10517030083
10517036613
10517041740
10517045219
10517053154
10517058220
10517063896
10517069389
10517075310
10517079948
10517085258
10517091423
10517097526
10517102470
10517106987
10517115349
10517119682
10517127372
10517131218
10517137565
10517142692
10517148552
10517152946
10517159355
10517166252
10517172416
10517178337
10517185051
10517192924
10517199333
10517204887
10517211845
10517219169
10517225700
10517232170
10517239677
10517244254
10517250602
10517255851
10517264213
10517268668
10517276786
10517282035
10517288871
10517294547
10517299918
10517304618
10517311515
10517315665
10517321464
10517327384
10517332328
10517338126
10517343986
10517350577
10517357291
10517362052
10517368156
10517372306
10517377799
10517383353
10517387931
10517393424
10517398490
10517404349
10517409537
10517414969
10517420524
10517426810
10517432120
10517438285
10517443595
10517449759
10517455924
10517461295
10517466056
10517472342
10517477286
10517483512
10517485465
10517494376
10517498221
10517505789
10517509574
10517516532
10517521475
10517527579
10517532096
10517538138
10517544180
10517550894
10517555899
10517560843
10517566763
10517571402
10517576712
10517583060
10517589774
10517595938
10517601492
10517606985
10517613638
10517618643
10517623465
10517629507
10517633780
10517641592
10517647147
10517653067
10517657767
10517663748
10517667349
10517674673
10517679617
10517687308
10517692373
10517698233
10517704275
10517710196
10517714712
10517719046
10517725943
10517729727
10517738760
10517743826
10517751150
10517756643
10517762014
10517765188
10517771963
10517776419
10517785208
10517791128
10517798452
10517802786
10517810781
10517815725
10517822317
10517826895
10517834219
10517839163
10517845693
10517850271
10517858022
10517861074
10517869375
10517873892
10517881643
10517887319
10517893484
10517898000
10517903738
10517907888
10517913869
10517918020
10517923635
10517929372
10517934621
10517940115
10517945058
10517950613
10517955801
10517959829
10517962942
10517971914
10517975820
10517982107
10517986928
10517993032
10517995901
10518003469
10518008046
10518013601
10518018361
10518024526
10518029287
10518034047
10518040639
10518045705
10518050466
10518056386
10518062612
10518069326
10518073903
10518077321
10518085195
10518090688
10518095876
10518100820
10518108815
10518114125
10518119496
10518123952
10518130178
10518135549
10518142507
10518147389
10518151784
10518161244
10518165456
10518173024
10518176808
10518183339
10518188283
10518195424
10518200429
10518206227
10518213368
10518219472
10518225880
10518231679
10518239064
10518245412
10518251149
10518259572
10518266102
10518273976
10518280812
10518285267
10518295094
10518302296
10518305531
10518316700
10518321461
10518334828
10518339650
10518349598
10518356617
10518359486
10518369618
10518376881
10518382740
10518391896
10518397816
10518406117
10518411732
10518419789
10518426441
10518434010
10518441639
10518446827
10518457874
10518463184
10518474659
10518482410
10518488636
10518499012
10518503590
10518512257
10518518848
10518527149
10518532886
10518541920
10518551380
10518559559
10518567493
10518574879
10518580494
10518587635
10518593860
10518601185
10518608631
10518613697
10518622730
10518631153
10518636646
10518643604
10518653186
10518659534
10518664356
10518673816
10518680530
10518687183
10518693408
10518702075
10518711353
10518714954
10518728443
10518735889
10518743884
10518749011
10518759021
10518766712
10518774890
10518782031
10518787219
10518797351
10518804858
10518808459
10518820239
10518828601
10518837451
10518844836
10518853747
10518860827
10518863696
10518873401
10518880847
10518886706
10518894580
10518900378
10518911731
10518918017
10518926684
10518933642
10518938586
10518946215
10518953906
10518961901
10518968798
10518974536
10518986865
10518990344
10519001330
10519006213
10519013781
10519023303
10519030688
10519037341
10519041735
10519053820
10519061511
10519068285
10519074877
10519080187
10519088610
10519095324
10519103686
10519110766
10519116259
10519125903
10519134081
10519142443
10519149340
10519156664
10519163439
10519167956
10519178637
10519185351
10519194567
10519201525
10519207201
10519216784
10519221544
10519231127
10519237963
10519245592
10519252550
10519257006
10519270128
10519275438
10519285936
10519302233
10519310411
10519318834
10519321825
10519331529
10519338671
10519349230
10519357164
10519366136
10519373216
10519382799
10519391588
10519400865
10519407884
10519416002
10519423509
10519429063
10519438951
10519444932
10519458909
10519466478
10519473558
10519481126
10519489366
10519496446
10519502549
10519512986
10519519212
10519527086
10519532762
10519542588
10519550584
10519559434
10519567063
10519574815
10519584275
10519587449
10519597947
10519603013
10519611863
10519616441
10519625413
10519632798
10519636216
10519646897
10519651780
10519660508
10519666673
10519674241
10519682420
10519685227
10519695847
10519701585
10519709580
10519716416
10519725632
10519732651
10519736069
10519746995
10519754685
10519762620
10519769333
10519780015
10519786423
10519795151
10519803879
10519811265
10519818772
10519824265
10519836411
10519840805
10519850449
10519858200
10519865342
10519871811
10519879929
10519887009
10519891892
10519903672
10519908432
10519915756
10519924729
10519931503
10519936936
10519944016
10519952500
10519959152
10519965927
10519975510
10519983261
10519988815
10519995895
10520002121
10520009933
10520017502
10520025131
10520031967
10520035019
10520048263
10520054428
10520062485
10520069076
10520074814
10520082443
10520086899
10520099045
10520105941
10520111740
10520123703
10520130905
10520137619
10520145370
10520150863
10520157516
10520162765
10520172897
10520177291
10520187118
10520194381
10520202011
10520211105
10520218856
10520227889
10520234908
10520246139
10520254867
10520265121
10520273361
10520281600
10520290694
10520298873
10520304977
10520312179
10520321212
10520329146
10520338790
10520346114
10520351302
10520360152
10520368209
10520376021
10520383224
10520388106
10520395431
10520404281
10520412948
10520419600
10520426131
10520431746
10520443038
10520451644
10520462020
10520467147
10520475936
10520483199
10520489608
10520497115
10520504805
10520511275
10520517867
10520523177
10520532759
10520540267
10520548140
10520555708
10520563643
10520570052
10520574812
10520583296
10520590620
10520597029
10520604109
10520609175
10520620039
10520628035
10520633284
10520641463
10520648482
10520656721
10520665205
10520671492
10520678206
10520685774
10520693464
10520699507
10520707197
10520713484
10520721418
10520727888
10520734724
10520742231
10520746260
10520757490
10520764326
10520771284
10520778486
10520784834
10520795332
10520803877
10520811933
10520820173
10520829756
10520836958
10520840376
10520852827
10520858015
10520866804
10520873274
10520876264
10520886884
10520891218
10520905012
10520913496
10520919477
10520926191
10520931562
10520939863
10520946454
10520953840
10520962934
10520965925
10520978498
10520988141
10520993635
10521000715
10521009137
10521015912
10521021100
10521028913
10521035688
10521044721
10521051435
10521057416
10521067670
10521075421
10521082990
10521089521
10521092511
10521103131
10521110578
10521122968
10521128522
10521138043
10521144818
10521151166
10521163007
10521168073
10521178326
10521185284
10521193219
10521199628
10521204022
10521213971
10521218304
10521229474
10521238141
10521245770
10521253338
10521260052
10521271222
10521274640
10521284588
10521291424
10521299359
10521306439
10521311749
10521319684
10521324383
10521335614
10521343426
10521348858
10521355755
10521362408
10521370282
10521376934
10521379986
10521390606
10521395062
10521405865
10521413555
10521420757
10521427776
10521434979
10521441265
10521448284
10521454998
10521461590
10521468304
10521477093
10521482891
10521490398
10521497417
10521505291
10521512188
10521515362
10521526592
10521532696
10521540813
10521551067
10521557171
10521563946
10521573162
10521580120
10521584575
10521591961
10521601177
10521603435
10521614299
10521622356
10521629680
10521636333
10521643352
10521651226
10521655864
10521663921
10521673015
10521676372
10521688457
10521694622
10521702800
10521709514
10521718120
10521725444
10521730083
10521740520
10521747295
10521755168
10521762004
10521768047
10521777141
10521784831
10521790202
10521799174
10521802165
10521812602
10521819926
10521827128
10521834270
10521842265
10521849162
10521856853
10521864970
10521871562
10521874614
10521886210
10521891276
10521900798
10521907939
10521910930
10521923076
10521928325
10521937541
10521944072
10521947123
10521970805
10521978862
10521988627
10521991130
10522003276
10522011515
10522019999
10522027690
10522037821
10522046000
10522048319
10522063456
10522071635
10522079569
10522087626
10522095744
10522102213
10522108500
10522117167
10522120341
10522133463
10522141154
10522148478
10522157877
10522166544
10522175760
10522183939
10522189066
10522198221
10522205301
10522211100
10522221293
10522225931
10522236795
10522241678
10522250895
10522257608
10522264139
10522275736
10522281351
10522289530
10522296915
10522303324
10522309854
10522317484
10522324137
10522333414
10522339456
10522344583
10522354044
10522358072
10522367899
10522374246
10522380533
10522386880
10522391763
10522402444
10522410684
10522418619
10522424966
10522430826
10522439493
10522444253
10522452005
10522458475
10522465982
10522476602
10522480142
10522489114
10522496072
10522504678
10522511453
10522517129
10522524759
10522533731
10522541848
10522547586
10522558084
10522563027
10522572976
10522580117
10522585305
10522593789
10522600808
10522605630
10522616616
10522624124
10522632302
10522636697
10522645852
10522652932
10522660256
10522667031
10522671914
10522681313
10522688027
10522695046
10522702859
10522710671
10522719033
10522725747
10522731423
10522739358
10522747536
10522754372
10522762368
10522770119
10522777016
10522782265
10522791481
10522799294
10522805275
10522812172
10522817666
10522829079
10522834450
10522844704
10522851479
10522858620
10522865517
10522870156
10522881447
10522886025
10522897866
10522904762
10522916481
10522923866
10522927406
10522938881
10522946083
10522954933
10522961220
10522966347
10522977455
10522983070
10522990395
10522996376
10523004799
10523011269
10523015968
10523024879
10523032387
10523043556
10523048439
10523057167
10523063453
10523072242
10523079078
10523089027
10523096229
10523105262
10523113685
10523119972
10523127113
10523133339
10523141334
10523149208
10523152565
10523162513
10523170021
10523180519
10523187721
10523194862
10523202491
10523207740
10523217079
10523223609
10523232337
10523239112
10523241248
10523253089
10523260841
10523268226
10523275123
10523281837
10523288551
10523296241
10523302589
10523309302
10523316993
10523327064
10523332618
10523340613
10523349647
10523354651
10523362403
10523370093
10523377234
10523384192
10523387183
10523399939
10523406653
10523413489
10523420142
10523428809
10523435889
10523441016
10523448340
10523455481
10523464148
10523473670
10523481360
10523487952
10523495520
10523502539
10523509436
10523517371
10523524512
10523528906
10523538672
10523545447
10523554968
10523561377
10523566504
10523575537
10523582434
10523588049
10523595862
10523601538
10523609717
10523619543
10523629553
10523641699
10523651098
10523658728
10523667212
10523676245
10523682287
10523690710
10523696631
10523703955
10523709021
10523714819
10523719946
10523725195
10523730017
10523735022
10523739660
10523746313
10523752539
10523758337
10523764563
10523770788
10523776220
10523782873
10523787878
10523794226
10523800512
10523805212
10523810156
10523816076
10523821630
10523829321
10523834326
10523839086
10523845190
10523850439
10523856481
10523860326
10523866125
10523871740
10523876928
10523882238
10523887060
10523892492
10523894079
10523901037
10523904150
10523912817
10523916723
10523921850
10523927404
10523931371
10523935644
10523941198
10523943639
10523952001
10523955541
10523962438
10523965307
10523971776
10523978490
10523983251
10523987462
10523994970
10524000829
10524006810
10524011083
10524017064
10524022557
10524026891
10524033055
10524038182
10524043920
10524048253
10524053319
10524061498
10524065343
10524070897
10524075963
10524081456
10524088231
10524094274
10524099095
10524103490
10524110143
10524112950
10524120885
10524125585
10524131688
10524136571
10524141271
10524149205
10524156468
10524166417
10524172581
10524178868
10524185399
10524190037
10524196385
10524201024
10524206212
10524212315
10524216649
10524222264
10524227635
10524232091
10524238072
10524243687
10524248387
10524253819
10524258946
10524263279
10524269078
10524274327
10524277989
10524284825
10524290623
10524295384
10524299900
10524305577
10524310215
10524316502
10524320774
10524328709
10524334690
10524340977
10524346104
10524352574
10524358799
10524364537
10524369236
10524375828
10524386387
10524392979
10524397923
10524402805
10524407261
10524414524
10524419407
10524424290
10524430943
10524436375
10524440769
10524444981
10524453709
10524457554
10524463779
10524469334
10524473057
10524477207
10524483677
10524486607
10524495884
10524500828
10524506016
10524510166
10524514744
10524519871
10524524448
10524529209
10524535251
10524540256
10524545872
10524550632
10524556736
10524561313
10524567356
10524571995
10524582248
10524586887
10524593479
10524598056
10524604282
10524608616
10524614414
10524618869
10524625461
10524630344
10524635593
10524639499
10524644443
10524649570
10524654331
10524659214
10524663730
10524668979
10524675266
10524683505
10524689426
10524693149
10524698337
10524704135
10524709018
10524714328
10524720126
10524724338
10524728610
10524733737
10524738437
10524743442
10524748080
10524753818
10524759677
10524765598
10524770114
10524775485
10524780856
10524791293
10524795627
10524802951
10524808749
10524814548
10524819614
10524823459
10524829562
10524834994
10524840487
10524845248
10524852389
10524858432
10524864901
10524869845
10524873874
10524887362
10524894992
10524906405
10524912265
10524921542
10524927157
10524938693
10524944064
10524951632
10524959689
10524970797
10524976290
10524987399
10524993991
10525000277
10525006808
10525016390
10525024630
10525033846
10525041354
10525048983
10525056246
10525061251
10525068697
10525076022
10525083895
10525090304
10525095919
10525107699
10525115084
10525120760
10525127535
10525136690
10525143465
10525149874
10525155977
10525163118
10525171602
10525179110
10525187899
10525194246
10525203829
10525212496
10525221346
10525228731
10525232210
10525245577
10525251436
10525260530
10525266573
10525272371
10525279634
10525284700
10525293978
10525300997
10525306856
10525313509
10525321748
10525330843
10525334627
10525348055
10525351900
10525364168
10525367830
10525380342
10525388338
10525393831
10525399934
10525407075
10525416109
10525423921
10525431062
10525434968
10525445161
10525452424
10525459627
10525465547
10525473848
10525479463
10525484102
10525493684
10525500154
10525509004
10525514985
10525523042
10525529817
10525534272
10525542329
10525548371
10525555818
10525561921
10525566438
10525577119
10525582307
10525590852
10525594758
10525602815
10525608674
10525616303
10525621186
10525627717
10525635835
10525642365
10525651154
10525657380
10525662080
10525668793
10525676911
10525680939
10525689667
10525694306
10525703339
10525710847
10525721650
10525727204
10525735993
10525742951
10525752839
10525759125
10525762177
10525774140
10525780915
10525787262
10525792572
10525803986
10525810151
10525817170
10525824433
10525833161
10525838959
10525853852
10525859101
10525869477
10525875458
10525882599
10525888092
10525893830
10525902680
10525908417
10525917816
10525922638
10525930145
10525936981
10525942596
10525949188
10525956146
10525966461
10525972259
10525981842
10525986786
10525995148
10526002167
10526007782
10526014435
10526024689
10526030975
10526038299
10526044952
10526051788
10526058563
10526065643
10526071380
10526077545
10526080291
10526095733
10526102874
10526110260
10526116058
10526125030
10526129791
10526136993
10526143768
10526149932
10526161773
10526166839
10526175079
10526181243
10526188934
10526195464
10526201507
10526210601
10526218231
10526226470
10526234039
10526243865
10526250762
10526257720
10526263335
10526270476
10526279510
10526286346
10526292876
10526303496
10526308745
10526318206
10526325042
10526332183
10526338958
10526346587
10526352996
10526359832
10526366851
10526377410
10526384246
10526390838
10526395659
10526405364
10526412200
10526419341
10526427459
10526432280
10526442290
10526449004
10526456877
10526463774
10526471648
