10527059598
10527064664
10527070157
10527074491
10527080472
10527086575
10527092557
10527098050
10527103970
10527114163
10527120816
10527128507
10527133389
10527137112
10527144559
10527149564
10527155423
10527165494
10527170743
10527177701
10527184781
10527190518
10527195767
10527201138
10527207547
10527213162
10527218350
10527224820
10527230435
10527234646
10527242154
10527248257
10527253811
10527259732
10527265164
10527271084
10527277615
10527283291
10527288968
10527293972
10527299893
10527305325
10527310086
10527314968
10527320156
10527324612
10527329800
10527334744
10527338650
10527344082
10527350369
10527355557
10527360806
10527367398
10527372158
10527378872
10527383633
10527389492
10527396145
10527401638
10527409817
10527413418
10527421352
10527426907
10527432034
10527437222
10527443264
10527450527
10527456142
10527462795
10527467983
10527473232
10527478725
10527485744
10527493679
10527499599
10527505886
10527511806
10527517361
10527522060
10527530178
10527537380
10527542080
10527549160
10527554958
10527560512
10527567348
10527572109
10527578518
10527584987
10527590725
10527596889
10527602260
10527608303
10527613491
10527620449
10527626064
10527633754
10527637111
10527645290
10527651088
10527655849
10527662807
10527667995
10527675014
10527681728
10527687465
10527693385
10527700466
10527706386
10527712489
10527717922
10527723598
10527728786
10527735194
10527739894
10527746547
10527751796
10527758449
10527763576
10527772792
10527781398
10527787929
10527794398
10527800807
10527807094
10527813136
10527818568
10527823939
10527829799
10527837428
10527842860
10527849818
10527855128
10527862513
10527868678
10527874476
10527883998
10527890162
10527896144
10527902247
10527908168
10527914759
10527921778
10527929469
10527935206
10527940943
10527948756
10527955531
10527962367
10527969569
10527976954
10527984889
10527990260
10527998072
10528004176
10528011195
10528016749
10528023585
10528033900
10528039149
10528042994
10528051539
10528058741
10528063990
10528071070
10528076136
10528085230
10528090601
10528098048
10528106287
10528113489
10528118555
10528125940
10528131251
10528140894
10528147181
10528153345
10528162073
10528171167
10528175257
10528183069
10528189905
10528198267
10528202906
10528210779
10528214685
10528222742
10528227747
10528236231
10528243311
10528250330
10528257593
10528264612
10528270838
10528278040
10528284326
10528291101
10528298792
10528305322
10528313684
10528321619
10528327661
10528336511
10528346460
10528352930
10528360681
10528366785
10528372400
10528380517
10528386499
10528395227
10528400720
10528409753
10528414209
10528423364
10528428308
10528438379
10528447107
10528452661
10528463830
10528469568
10528478845
10528484277
10528492883
10528498864
10528505761
10528511987
10528520715
10528527612
10528535974
10528542077
10528550439
10528553979
10528564538
10528570886
10528579492
10528585290
10528593163
10528601464
10528607934
10528613488
10528621789
10528628808
10528639367
10528645592
10528652367
10528660485
10528668298
10528674401
10528683007
10528689355
10528700829
10528707360
10528716027
10528721886
10528729943
10528738122
10528744347
10528751366
10528762413
10528769005
10528777733
10528783837
10528791771
10528797936
10528806054
10528813805
10528822838
10528831261
10528839806
10528846092
10528855370
10528862633
10528869652
10528880272
10528888329
10528896568
10528904198
10528910606
10528919090
10528926781
10528932945
10528941551
10528948021
10528956383
10528963341
10528971580
10528978722
10528984520
10528992454
10528999595
10529008873
10529016197
10529023765
10529031517
10529036400
10529046531
10529054039
10529060020
10529067039
10529074913
10529081627
10529090721
10529095543
10529105186
10529112266
10529119529
10529126365
10529135215
10529143455
10529150474
10529158103
10529165550
10529173484
10529182029
10529190818
10529200095
10529211936
10529220359
10529228111
10529236839
10529245628
10529254111
10529263450
10529270286
10529277244
10529284507
10529291953
10529300132
10529308433
10529318320
10529325828
10529332175
10529340415
10529347617
10529353476
10529359763
10529365989
10529375266
10529381491
10529390769
10529398154
10529405539
10529411765
10529420554
10529430991
10529436484
10529444052
10529452719
10529459616
10529465964
10529474692
10529482871
10529488974
10529498068
10529503745
10529512961
10529519553
10529527060
10529533652
10529541525
10529549033
10529558493
10529566244
10529573569
10529580832
10529589743
10529595724
10529605734
10529613791
10529622152
10529629599
10529640768
10529648764
10529656637
10529663229
10529670187
10529676840
10529685202
10529694113
10529701498
10529708212
10529716146
10529723898
10529730612
10529740011
10529748007
10529755331
10529763387
10529770223
10529777914
10529785482
10529792989
10529800008
10529808614
10529815878
10529823995
10529830709
10529839498
10529845235
10529852254
10529860677
10529868917
10529875814
10529883382
10529889486
10529897970
10529904134
10529911703
10529919881
10529928060
10529934347
10529943441
10529949483
10529957845
10529963887
10529968587
10529979085
10529985372
10529996053
10530002584
10530011495
10530016194
10530025411
10530030110
10530040059
10530048543
10530056539
10530061482
10530072835
10530079488
10530087483
10530095784
10530105183
10530112996
10530118855
10530126973
10530134114
10530140767
10530146626
10530155904
10530163777
10530174031
10530181233
10530189656
10530195637
10530204182
10530210469
10530219441
10530226277
10530235371
10530241658
10530251362
10530257527
10530265461
10530271443
10530279011
10530287678
10530295063
10530302204
10530310566
10530316548
10530325520
10530331440
10530341206
10530348835
10530357075
10530365681
10530373310
10530380573
10530389546
10530394306
10530402668
10530412190
10530419270
10530426106
10530433918
10530441914
10530448078
10530456867
10530463764
10530472065
10530478535
10530488117
10530493732
10530504597
10530512470
10530521259
10530529072
10530535846
10530544269
10530550373
10530559894
10530566364
10530573932
10530580280
10530589679
10530596027
10530603778
10530611591
10530618183
10530626117
10530631854
10530640644
10530648334
10530654926
10530661884
10530668537
10530673969
10530680133
10530687274
10530695453
10530702533
10530710346
10530716632
10530721515
10530728046
10530734821
10530740619
10530748187
10530754047
10530761554
10530770282
10530776080
10530782123
10530788959
10530796039
10530800616
10530808429
10530816607
10530823260
10530830035
10530836871
10530845294
10530851397
10530861834
10530868121
10530875079
10530882098
10530891314
10530897906
10530904498
10530912677
10530922930
10530927691
10530936480
10530943133
10530949664
10530957659
10530964068
10530972491
10530981341
10530987750
10530995318
10531001421
10531009417
10531015826
10531024126
10531032244
10531039507
10531048724
10531054949
10531060442
10531071306
10531080706
10531087908
10531098528
10531105486
10531115923
10531122881
10531130938
10531139666
10531147051
10531154680
10531162798
10531169939
10531178545
10531183184
10531193560
10531202715
10531210955
10531217790
10531225481
10531234575
10531240129
10531248613
10531254717
10531262224
10531270830
10531277483
10531285600
10531292192
10531299699
10531309465
10531318132
10531325273
10531331682
10531342302
10531349626
10531357500
10531364641
10531371721
10531377946
10531385820
10531393083
10531400651
10531408098
10531413774
10531420915
10531428117
10531435563
10531441057
10531451555
10531457414
10531464006
10531471330
10531478166
10531485185
10531491410
10531497209
10531505448
10531513810
10531521134
10531528337
10531534745
10531540849
10531548844
10531556291
10531562211
10531569474
10531577226
10531584977
10531592057
10531599564
10531607377
10531613725
10531622025
10531628739
10531637040
10531642533
10531649491
10531658036
10531664139
10531672135
10531679886
10531686539
10531694474
10531700089
10531707474
10531715226
10531721879
10531728287
10531738480
10531744767
10531752823
10531759720
10531766678
10531774063
10531781205
10531790848
10531800125
10531809403
10531815506
10531823929
10531832108
10531838761
10531846695
10531856888
10531864090
10531869705
10531877823
10531885635
10531890213
10531901260
10531909805
10531917557
10531924393
10531932327
10531935074
10531944961
10531952652
10531958572
10531967605
10531975906
10531982681
10531990005
10531996536
10532004043
10532010025
10532015579
10532025223
10532033401
10532040176
10532047439
10532054031
10532059951
10532067459
10532073562
10532082046
10532090042
10532096511
10532103775
10532111221
10532117385
10532124099
10532131607
10532140151
10532147659
10532154678
10532160232
10532167312
10532174941
10532181838
10532189773
10532198928
10532206313
10532214004
10532219680
10532228103
10532232925
10532240798
10532246535
10532255019
10532262588
10532268874
10532275832
10532282668
10532287856
10532296401
10532302321
10532310195
10532317336
10532324782
10532332717
10532339614
10532346450
10532352187
10532361464
10532368544
10532376418
10532382705
10532389846
10532397902
10532404311
10532410903
10532420485
10532427138
10532434096
10532440322
10532449111
10532455336
10532462172
10532470473
10532476637
10532484816
10532490981
10532498061
10532507704
10532514662
10532521925
10532529921
10532539015
10532545729
10532553969
10532558607
10532568129
10532572523
10532581312
10532586622
10532596693
10532604262
10532612196
10532617079
10532627638
10532637281
10532643507
10532653395
10532658949
10532668104
10532675001
10532682753
10532689283
10532697218
10532705946
10532714308
10532721449
10532727125
10532735365
10532743482
10532749891
10532759046
10532765638
10532772596
10532781263
10532787489
10532795850
10532802686
10532810316
10532817396
10532825391
10532831434
10532840650
10532848707
10532856641
10532862256
10532869825
10532878675
10532886304
10532893323
10532900586
10532906263
10532913465
10532920911
10532926709
10532936475
10532943128
10532950452
10532958326
10532964734
10532970166
10532977979
10532984265
10532993970
10533000257
10533008496
10533016309
10533022290
10533030591
10533038648
10533045484
10533053357
10533060010
10533067029
10533074841
10533080640
10533086072
10533093335
10533101331
10533109998
10533116101
10533124768
10533131848
10533140576
10533147717
10533156262
10533163647
10533170972
10533177868
10533185803
10533192822
10533199292
10533207043
10533213696
10533221875
10533228833
10533237195
10533244091
10533250622
10533257641
10533265271
10533273449
10533284497
10533291272
10533298596
10533303112
10533310742
10533317211
10533325329
10533332470
10533341381
10533346081
10533354199
10533360363
10533368542
10533375195
10533382214
10533389294
10533398998
10533406078
10533413342
10533419689
10533426647
10533432629
10533440380
10533446484
10533456798
10533463207
10533470043
10533475597
10533483105
10533488537
10533497326
10533505687
10533513195
10533519054
10533527294
10533533519
10533541698
10533548351
10533556347
10533564220
10533571910
10533578868
10533587352
10533594310
10533603832
10533609203
10533620128
10533629466
10533635082
10533643077
10533650462
10533658885
10533664989
10533671764
10533679332
10533688060
10533696361
10533702892
10533710033
10533716502
10533723888
10533730296
10533735973
10533745860
10533751903
10533759044
10533766795
10533775157
10533780894
10533788096
10533796092
10533804637
10533810679
10533817393
10533824717
10533832042
10533839610
10533846019
10533854075
10533862315
10533869944
10533877208
10533882884
10533890940
10533898387
10533904673
10533910105
10533925425
10533931895
10533939707
10533946055
10533956492
10533963755
10533971873
10533979014
10533989268
10533995921
10534003794
10534010691
10534018320
10534026072
10534034495
10534042429
10534048777
10534057017
10534063975
10534071604
10534076731
10534087534
10534093210
10534102732
10534111582
10534117197
10534126902
10534132761
10534139719
10534146250
10534153818
10534159983
10534171457
10534176340
10534185678
10534190683
10534199900
10534208750
10534216684
10534221933
10534230173
10534234506
10534242868
10534248850
10534256540
10534263742
10534273691
10534281259
10534286997
10534293100
10534300607
10534307687
10534316049
10534325265
10534332773
10534339670
10534345712
10534350351
10534359384
10534367807
10534375375
10534382455
10534390939
10534398263
10534404367
10534412240
10534418283
10534427377
10534435617
10534445138
10534453195
10534460214
10534466684
10534474557
10534482064
10534487863
10534495370
10534503793
10534511300
10534518563
10534526498
10534532662
10534540902
10534547982
10534554635
10534564401
10534572274
10534578256
10534586007
10534591805
10534600167
10534607674
10534614022
10534621529
10534628976
10534635140
10534643319
10534648812
10534658578
10534663582
10534673409
10534682198
10534689950
10534695015
10534705269
10534709786
10534720101
10534727852
10534736031
10534744637
10534750618
10534758919
10534764901
10534773140
10534781136
10534787178
10534794441
10534801583
10534809456
10534817452
10534823372
10534830818
10534839363
10534846932
10534854500
10534861519
10534868599
10534877815
10534885994
10534893196
10534900032
10534906197
10534917549
10534924202
10534931709
10534937691
10534945442
10534951851
10534961006
10534967232
10534976570
10534983101
10534990974
10534996528
10535004707
10535010383
10535017708
10535023140
10535035225
10535041694
10535048469
10535053779
10535062324
10535068428
10535075935
10535083808
10535093086
10535098884
10535107063
10535112739
10535119758
10535127693
10535136360
10535142646
10535151801
10535160224
10535166816
10535172492
10535180244
10535188239
10535195136
10535204230
10535213142
10535219489
10535225898
10535231513
10535239631
10535245124
10535254584
10535260444
10535271247
10535277717
10535284553
10535290107
10535297919
10535305427
10535312934
10535319404
10535328376
10535334235
10535341986
10535347602
10535355536
10535363715
10535371039
10535377814
10535386542
10535393012
10535400214
10535406928
10535415473
10535422492
10535428595
10535435309
10535442999
10535449469
10535459052
10535467108
10535474921
10535482062
10535490790
10535499091
10535505926
10535512518
10535520697
10535526800
10535532843
10535542853
10535550665
10535558417
10535564825
10535572272
10535578436
10535588202
10535594000
10535601446
10535609808
10535617132
10535624884
10535630682
10535639044
10535644415
10535651922
10535657354
10535669073
10535675665
10535682318
10535688299
10535696417
10535701971
10535710028
10535716131
10535724615
10535730474
10535738348
10535745794
10535752813
10535758917
10535766058
10535773931
10535782232
10535790289
10535798345
10535804510
10535812322
10535819341
10535826238
10535834356
10535842535
10535848577
10535856206
10535863225
10535869329
10535876714
10535885564
10535894536
10535902227
10535908696
10535915777
10535923589
10535930852
10535937627
10535944951
10535951970
10535961431
10535968511
10535974797
10535980229
10535987554
10535995671
10536001775
10536007939
10536017705
10536023686
10536031377
10536039372
10536046208
10536051762
10536060002
10536066472
10536075444
10536081914
10536089604
10536095708
10536104741
10536110478
10536117802
10536123296
10536132512
10536138554
10536147221
10536153142
10536161381
10536169011
10536175603
10536181462
10536191716
10536198735
10536207036
10536212590
10536220219
10536227665
10536235234
10536241093
10536249333
10536256352
10536264958
10536271000
10536278385
10536287113
10536294682
10536301213
10536308842
10536314945
10536322758
10536329106
10536337406
10536342350
10536351688
10536360416
10536368229
10536374943
10536383122
10536392765
10536399418
10536408756
10536418888
10536425907
10536431950
10536439823
10536447941
10536455265
10536461979
10536469486
10536477421
10536485843
10536492740
10536500675
10536508060
10536510624
10536520755
10536527897
10536533695
10536542423
10536550541
10536553287
10536563480
10536568668
10536576908
10536581180
10536590335
10536599491
10536607181
10536614322
10536620487
10536627506
10536635196
10536639591
10536648685
10536654178
10536663638
10536673587
10536679630
10536688297
10536694339
10536702823
10536711795
10536720523
10536727237
10536734866
10536741092
10536747439
10536755557
10536761661
10536768069
10536776431
10536785220
10536791079
10536798953
10536804751
10536810489
10536818423
10536827945
10536835940
10536842349
10536849673
10536856082
10536862674
10536871157
10536877688
10536884646
10536894168
10536901431
10536908694
10536914553
10536924075
10536930850
10536937869
10536946047
10536953188
10536960574
10536969241
10536976382
10536984805
10536992556
10537002077
10537009646
10537016299
10537024294
10537031618
10537038088
10537045351
10537051943
10537059939
10537068056
10537073855
10537082216
10537087771
10537095034
10537101015
10537109377
10537115603
10537125063
10537133181
10537140566
10537146120
10537153810
10537159609
10537167421
10537175173
10537182680
10537190920
10537198061
10537203920
10537211244
10537219545
10537225466
10537231569
10537243959
10537251283
10537258363
10537264345
10537273134
10537279176
10537286378
10537293947
10537301820
10537307802
10537316713
10537328432
10537335573
10537342103
10537351198
10537356874
10537366090
10537374330
10537382142
10537388856
10537394471
10537398683
10537409120
10537418153
10537425294
10537429811
10537440126
10537446839
10537454408
10537461244
10537467103
10537477967
10537483522
10537491944
10537497682
10537506715
10537512391
10537519044
10537526429
10537534730
10537541871
10537548768
10537556214
10537562684
10537570313
10537577454
10537583192
10537590333
10537598878
10537605530
10537613526
10537618104
10537627503
10537635010
10537640870
10537649964
10537658570
10537666932
10537673707
10537679200
10537686829
10537693482
10537701355
10537708435
10537716248
10537722046
10537730286
10537736939
10537743042
10537751404
10537758972
10537768311
10537775208
10537783570
10537788086
10537797180
10537805725
10537811341
10537820313
10537828186
10537835816
10537841736
10537849243
10537855591
10537863403
10537870117
10537877930
10537884033
10537892639
10537899902
10537905579
10537911743
10537919617
10537926880
10537935242
10537941711
10537948730
10537955017
10537962524
10537968200
10537975281
10537984375
10537991760
10537998474
10538006164
10538012329
10538019836
10538027404
10538033996
10538041503
10538048767
10538056152
10538065185
10538071411
10538078186
10538084350
10538093017
10538098022
10538107910
10538115112
10538120178
10538126830
10538135986
10538141052
10538148681
10538155944
10538165588
10538172301
10538180358
10538186217
10538193114
10538199340
10538208312
10538213744
10538222472
10538229796
10538237853
10538243590
10538255370
10538267150
10538275023
10538285827
10538292724
10538302550
10538308837
10538315917
10538325072
10538331237
10538339598
10538349608
10538357421
10538365172
10538372863
10538381102
10538387389
10538394957
10538403075
10538408629
10538418456
10538424864
10538431151
10538438719
10538447752
10538455565
10538462645
10538470152
10538479063
10538485777
10538491942
10538498900
10538507933
10538513304
10538522581
10538527952
10538536986
10538544859
10538551756
10538560057
10538566343
10538576475
10538582701
10538591307
10538597471
10538604918
10538610411
10538619200
10538642271
10538650572
10538657896
10538667234
10538673887
10538682920
10538690977
10538699705
10538705015
10538716367
10538725767
10538732847
10538741941
10538748960
10538757932
10538767149
10538776792
10538787168
10538796140
10538799924
10538814634
10538823789
10538832395
10538842405
10538853757
10538863035
10538873655
10538882383
10538889402
10538898374
10538907224
10538917905
10538926572
10538935117
10538949765
10538956784
10538967099
10538975583
10538985654
10538994748
10539001950
10539014584
10539025083
10539035825
10539045102
10539049191
10539062192
10539069028
10539081357
10539091367
10539100644
10539109799
10539123898
10539133176
10539141965
10539150815
10539160641
10539169613
10539178647
10539187863
10539197079
10539205197
10539216732
10539228207
10539235836
10539244686
10539253475
10539265805
10539273373
10539283138
10539292843
10539307247
10539317745
10539327572
10539336361
10539343197
10539354122
10539364742
10539373837
10539382503
10539396847
10539407162
10539411007
10539427181
10539434810
10539444393
10539454036
10539465999
10539475155
10539485042
10539500789
10539507930
10539518612
10539528743
10539538509
10539547481
10539557003
10539565670
10539574092
10539586238
10539595516
10539606563
10539615474
10539623409
10539635310
10539645503
10539655757
10539665462
10539676997
10539689510
10539693965
10539709163
10539716914
10539728206
10539734614
10539745357
10539754634
10539769648
10539779048
10539785945
10539796260
10539804866
10539813533
10539822566
10539829402
10539844844
10539852900
10539863887
10539874568
10539883723
10539896296
10539905818
10539915156
10539921076
10539933833
10539943537
10539954768
10539963801
10539973811
10539982844
10539990229
10540002375
10540008662
10540022333
10540031733
10540044245
10540053217
10540060297
10540072077
10540079523
10540091730
10540098078
10540109797
10540119013
10540131952
10540142084
10540149164
10540162104
10540169123
10540180597
10540189874
10540200067
10540209345
10540217340
10540229120
10540239191
10540247980
10540256647
10540265741
10540274408
10540281366
10540293878
10540304498
10540318475
10540327875
10540332208
10540345086
10540355218
10540364496
10540373956
10540383661
10540393731
10540402948
10540416070
10540423822
10540436822
10540445428
10540457147
10540463494
10540475823
10540484674
10540496636
10540506463
10540516534
10540526605
10540535638
10540545159
10540554681
10540562676
10540574822
10540587517
10540596795
10540606316
10540615960
10540627434
10540637383
10540646172
10540653130
10540664238
10540674614
10540684929
10540694695
10540705010
10540714165
10540721428
10540732964
10540743401
10540752556
10540763542
10540778008
10540787468
10540795159
10540807549
10540814995
10540826225
10540836113
10540846672
10540856010
10540861015
10540875359
10540885612
10540895866
10540905998
10540915153
10540923759
10540931022
10540941948
10540953605
10540965873
10540973076
10540984001
10540995597
10540999809
10541011467
10541021415
10541030632
10541041313
10541053703
10541063590
10541067619
10541082084
10541093253
10541100028
10541108695
10541119499
10541128227
10541142081
10541152274
10541159110
10541172904
10541182670
10541192313
10541201408
10541205680
10541219596
10541227653
10541239615
10541252921
10541260550
10541269950
10541279899
10541289176
10541296683
10541308219
10541318900
10541332450
10541341910
10541351493
10541360465
10541367362
10541379935
10541385977
10541395255
10541408560
10541413565
10541428519
10541437674
10541446646
10541458365
10541465750
10541475272
10541484366
10541503409
10541513846
10541524588
10541532889
10541549734
10541557730
10541570791
10541577993
10541593985
10541604361
10541618032
10541628836
10541638723
10541647451
10541658560
10541667715
10541674490
10541684927
10541693044
10541706167
10541715078
10541723501
10541732290
10541741933
10541751760
10541760427
10541770681
10541779348
10541789114
10541802602
10541814321
10541823476
10541830861
10541842946
10541852285
10541856618
10541872731
10541883840
10541892263
10541899221
10541911245
10541920522
10541930532
10541940297
10541950673
10541961537
10541971303
10541980336
10541992543
10542002248
10542010610
10542019093
10542028554
10542039967
10542051564
10542063893
10542073964
10542081471
10542095509
10542102040
10542113209
10542122731
10542127003
10542140309
10542151539
10542163014
10542173390
10542184193
10542194081
10542201100
10542213124
10542219593
10542231495
10542240711
10542253834
10542265248
10542274769
10542283558
10542290638
10542300282
10542308949
10542319080
10542331410
10542344044
10542353992
10542361011
10542373585
10542383472
10542392811
10542402027
10542411365
10542420582
10542428760
10542442798
10542449634
10542461109
10542470264
10542477894
10542490467
10542501148
10542511402
10542521900
10542532154
10542541736
10542553760
10542562366
10542568836
10542579517
10542585498
10542596485
10542604846
10542618030
10542626819
10542630603
10542646350
10542653918
10542665149
10542671985
10542684436
10542694995
10542707934
10542724719
10542735522
10542744250
10542752429
10542766406
10542774218
10542786120
10542792468
10542803881
10542812976
10542822924
10542831958
10542838244
10542852954
10542860156
10542873217
10542885485
10542894091
10542902514
10542913622
10542922045
10542930041
10542942248
10542951708
10542962756
10542974108
10542984728
10542993700
10543003527
10543011950
10543018419
10543029589
10543039477
10543050768
10543056261
10543070787
10543080004
10543088549
10543100573
10543104540
10543117174
10543126818
10543136949
10543142626
10543155809
10543165575
10543176927
10543185777
10543193041
10543204637
10543214586
10543222765
10543231310
10543244127
10543253404
10543260667
10543271654
10543281602
10543290758
10543299119
10543309190
10543318651
10543333177
10543342393
10543351182
10543361436
10543368455
10543378892
10543387132
10543398606
10543407701
10543417894
10543426866
10543438157
10543446946
10543454087
10543465989
10543472215
10543482224
10543491563
10543505113
10543515916
10543523423
10543535874
10543546494
10543557908
10543565171
10543577195
10543585496
10543596055
10543607957
10543611924
10543624497
10543634202
10543642991
10543652634
10543656785
10543672348
10543678269
10543694016
10543705063
10543718125
10543729050
10543741135
10543751877
10543762863
10543773606
10543785141
10543795151
10543806809
10543815781
10543822495
10543833969
10543844589
10543854172
10543862656
10543878769
10543888534
10543900314
10543908859
10543918136
10543927170
10543934067
10543947983
10543955673
10543969406
10543977768
10543988021
10543997909
10544007980
10544016647
10544026474
10544035812
10544043807
10544056503
10544063705
10544075240
10544083968
10544093795
10544102462
10544109359
10544119796
10544130233
10544140670
10544150497
10544158675
10544167342
10544178451
10544188277
10544195235
10544204574
10544212874
10544228133
10544237472
10544247298
10544255660
10544266768
10544275374
10544285262
10544294051
10544303206
10544314986
10544324141
10544331221
10544344039
10544350752
10544360274
10544368758
10544378645
10544387984
10544396040
10544410017
10544416914
10544427473
10544438521
10544450240
10544460799
10544469649
10544475325
10544491194
10544501082
10544510725
10544519575
10544523482
10544539351
10544545637
10544564680
10544570784
10544584944
10544593916
10544604170
10544612654
10544624006
10544632612
10544639265
10544650434
10544656660
10544673017
10544682111
10544691694
10544700544
10544707014
10544720014
10544729597
10544739545
10544748823
10544758100
10544770795
10544776472
10544789899
10544796796
10544806440
10544814618
10544824262
10544832502
10544845746
10544854535
10544861127
10544871930
10544881452
10544890119
10544901654
10544906354
10544921613
10544930219
10544944501
10544953168
10544964704
10544971784
10544984235
10544991925
10545002484
10545008160
10545021161
10545033246
10545037701
10545052167
10545059491
10545069684
10545079388
10545088177
10545097821
10545110089
10545119427
10545130108
10545141095
10545146466
10545160565
10545167462
10545177899
10545187848
10545197613
10545207257
10545217694
10545227093
10545236676
10545244488
10545251568
10545263165
10545274151
10545285320
10545295574
10545305096
10545314312
10545322552
10545333660
10545340679
10545351665
10545357403
10545372295
10545382122
10545385906
10545400188
10545407696
10545418316
10545428142
10545437542
10545446331
10545459209
10545468914
10545472942
10545487346
10545497905
10545507915
10545516765
10545527751
10545536540
10545544841
10545556377
10545567363
10545577556
10545583415
10545594951
10545603069
10545611064
10545624065
10545637309
10545646220
10545653484
10545666362
10545675212
10545683024
10545691813
10545702739
10545711406
10545719462
10545730143
10545740580
10545751140
10545760783
10545769450
10545778361
10545786235
10545798686
10545806071
10545818217
10545828776
10545838175
10545846964
10545858683
10545868022
10545875468
10545886271
10545895854
10545911173
10545920329
10545929118
10545937357
10545944865
10545957865
10545965800
10545978800
10545984965
10545998942
10546007914
10546018839
10546028971
10546035868
10546047464
10546058023
10546067972
10546079081
10546090311
10546100992
10546110392
10546118875
10546129618
10546138468
10546144998
10546157999
10546165445
10546178446
10546189249
10546198404
10546207620
10546216531
10546225504
10546236673
10546244424
10546254678
10546265909
10546275857
10546285379
10546294412
10546301004
10546314432
10546320901
10546331704
10546340677
10546355081
10546365884
10546376382
10546385537
10546391946
10546404763
10546411172
10546420816
10546432534
10546437539
10546452126
10546459329
10546471108
10546480935
10546491311
10546500954
10546508096
10546519387
10546530618
10546541054
10546550637
10546561501
10546569985
10546573647
10546589882
10546597085
10546607888
10546619057
10546628396
10546637429
10546648842
10546657326
10546665688
10546675209
10546685158
10546694924
10546704567
10546717079
10546726113
10546729897
10546744850
10546751503
10546763100
10546772316
10546779213
10546790443
10546800331
10546809731
10546817238
10546827553
10546837746
10546847450
10546856544
10546866554
10546875343
10546883034
10546900184
10546908485
10546917763
10546926307
10546936989
10546945656
10546952308
10546964637
10546972633
10546984962
10546994728
10547004982
10547014137
10547018409
10547031654
10547040809
10547050697
10547061012
10547074622
10547082313
10547093482
10547103614
10547110450
10547124000
10547134193
10547143653
10547155250
10547169837
10547179603
10547192054
10547205787
10547210914
10547228614
10547233924
10547247901
10547258338
10547269141
10547278968
10547289588
10547299842
10547309851
10547318640
10547330176
10547339575
10547351111
10547360449
10547371924
10547380591
10547387549
10547398352
10547407446
10547417761
10547426123
10547440100
10547449744
10547453406
10547469397
10547476050
10547488074
10547493872
10547505896
10547514319
10547525244
10547533728
10547544470
10547552649
10547560644
10547573034
10547583654
10547592565
10547601538
10547615698
10547626257
10547630407
10547644445
10547653234
10547664465
10547674047
10547683630
10547692175
10547704015
10547713903
10547720434
10547733678
10547742834
10547753515
10547759435
10547771520
10547780004
10547791173
10547801305
10547808080
10547817235
10547825719
10547837987
10547846837
10547854894
10547863805
10547870946
10547885289
10547895360
10547906713
10547918187
10547928807
10547939122
10547950231
10547960790
10547970250
10547980199
10547993687
10548002293
10548011754
10548020604
10548027135
10548039708
10548049535
10548063267
10548073094
10548082005
10548090672
10548101536
10548110570
10548117344
10548127537
10548136570
10548151280
10548158787
10548170018
10548178746
10548185337
10548197483
10548204319
10548215672
10548224461
10548237339
10548247532
10548259495
10548267918
10548276524
10548286594
10548292820
10548305882
10548317112
10548329990
10548340794
10548351475
10548361790
10548369724
10548378025
10548384556
10548396152
10548406528
10548418003
10548429233
10548437656
10548446384
10548458225
10548466709
10548476841
10548485446
10548493320
10548507541
10548516391
10548529697
10548541294
10548552524
10548559970
10548571933
10548583347
10548591830
10548600925
10548611606
10548624179
10548628390
10548642429
10548652865
10548662936
10548672458
10548684726
10548694858
10548705783
10548714816
10548721530
10548730990
10548739352
10548749606
10548758273
10548765841
10548778903
10548785617
10548798434
10548808139
10548816744
10548824923
10548829012
10548844332
10548848910
10548863009
10548870150
10548881381
10548891024
10548899020
10548908236
10548917879
10548926546
10548933626
10548946871
10548957979
10548966891
10548975374
10548985262
10548993929
10549001009
10549013277
10549019442
10549032259
10549041536
10549052523
10549061007
10549067903
10549079866
10549086763
10549098238
10549107332
10549113252
10549128328
10549132173
10549148226
10549157869
10549166109
10549173067
10549183260
10549193697
10549204622
10549214876
10549223970
10549232576
10549241548
10549251497
10549258211
10549268526
10549277315
10549290254
10549301790
10549305696
10549318208
10549325227
10549337007
10549346650
10549355928
10549371247
10549383332
10549393830
10549404634
10549413484
10549424470
10549433808
10549440888
10549454560
10549465424
10549477509
10549487153
10549497773
10549505952
10549515839
10549525056
10549531647
10549542268
10549553620
10549567353
10549574982
10549586701
10549595795
10549603913
10549614289
10549621125
10549630280
10549638092
10549651886
10549660675
10549664521
10549677338
10549687592
10549697785
10549707367
10549717804
10549726532
10549739227
10549747650
10549758820
10549766754
10549772858
10549783722
10549792755
10549802826
10549810822
10549823212
10549832428
10549842255
10549850860
10549858246
10549868683
10549877472
10549888397
10549897796
10549911102
10549921234
10549929290
10549938324
10549949066
10549958038
10549964874
10549977569
10549986846
10549997833
10550007842
10550016815
10550026031
10550035369
10550044219
10550053436
10550062347
10550071014
10550083709
10550091705
10550098113
10550113067
10550123443
10550132232
10550139312
10550151946
10550159820
10550172149
10550183074
10550193145
10550202117
10550208770
10550219634
10550223540
10550237883
10550245208
10550257842
10550268523
10550278533
10550287749
10550297026
10550305571
10550312346
10550323821
10550334014
10550342192
10550351592
10550361357
10550372160
10550381072
10550389250
10550395964
10550408110
10550418852
10550428435
10550437712
10550448271
10550458769
10550466154
10550477263
10550487272
10550498076
10550507719
10550519438
10550528593
10550538664
10550547697
10550554350
10550567045
10550572599
10550584745
10550593656
10550606047
10550615019
10550623991
10550635404
10550642423
10550653654
10550663664
10550671964
10550680692
10550694669
10550704557
10550711088
10550724393
10550731473
10550742399
10550752469
10550762540
10550771451
10550783658
10550792631
10550796476
10550810636
10550819669
10550830350
10550836087
10550846280
10550855497
10550868619
10550877103
10550884000
10550897122
10550905301
10550919644
10550926419
10550937711
10550946561
10550961697
10550968900
10550980374
10550986417
10550999722
10551008633
10551017483
10551025662
10551033230
10551045682
10551055447
10551065823
10551075345
10551084012
10551092984
10551100796
10551112271
10551119961
10551132840
10551143032
10551151089
10551159329
10551170803
10551179043
10551185635
10551195889
10551209133
10551219082
10551228481
10551240139
10551249111
10551257961
10551267056
10551273953
10551287014
10551292690
10551307644
10551317532
10551324306
10551335964
10551339626
10551353725
10551363430
10551373928
10551379787
10551393947
10551404018
10551408535
10551423122
10551432521
10551441310
10551448696
10551459560
10551469020
10551480007
10551489650
10551498867
10551508022
10551517238
10551526332
10551534816
10551545802
10551556606
10551566127
10551577419
10551587306
10551597194
10551604640
10551619472
10551627528
10551637782
10551646205
10551661281
10551670619
10551681056
10551691249
10551699244
10551708094
10551720301
10551728968
10551737086
10551750941
10551758631
10551769862
10551779566
10551790431
10551799098
10551803126
10551817103
10551824732
10551836024
10551846949
10551857203
10551866297
10551874415
10551883448
10551894556
10551903040
10551911219
10551926356
10551933497
10551944239
10551952784
10551960718
10551971949
10551980555
10551989710
10551999720
10552008936
10552017908
10552027674
10552038904
10552047266
10552056177
10552063623
10552076502
10552087610
10552100611
10552108179
10552119104
10552128076
10552137109
10552146448
10552155481
10552164636
10552173242
10552184045
10552193384
10552202234
10552213892
10552220850
10552232202
10552241846
10552250085
10552258630
10552270654
10552279321
10552289514
10552300866
10552309778
10552318506
10552325280
10552337854
10552343408
10552356652
10552366479
10552375146
10552386437
10552392968
10552403710
10552412805
10552421533
10552429772
10552440514
10552452721
10552462243
10552470666
10552477929
10552489526
10552499474
10552507043
10552516564
10552529015
10552537926
10552546654
10552555138
10552565880
10552575402
10552581627
10552592675
10552601403
10552605919
10552620263
10552627465
10552638085
10552648705
10552656945
10552670494
10552674950
10552688195
10552700157
10552708824
10552720970
10552730065
10552737267
10552749291
10552759483
10552771202
10552778648
10552793724
10552801903
10552812767
10552822166
10552830833
10552839256
10552846397
10552856590
10552867210
10552878380
10552888145
10552895958
10552907249
10552910972
10552925804
10552932640
10552942283
10552952293
10552961875
10552971946
10552981163
10552992393
10553002036
10553010215
10553017112
10553027305
10553035789
10553048118
10553059592
10553069114
10553077903
10553085044
10553095298
10553105918
10553115378
10553123862
10553137473
10553146628
10553156699
10553165305
10553172934
10553183860
10553193015
10553202964
10553212363
10553223655
10553232932
10553240317
10553253318
10553260276
10553269980
10553278708
10553287131
10553298239
10553307089
10553320334
10553329062
10553340048
10553350119
10553358420
10553366782
10553376059
10553384665
10553394858
10553405295
10553415488
10553423117
10553431357
10553440512
10553448874
10553459433
10553468466
10553479330
10553491659
10553498373
10553510397
10553518637
10553527548
10553535788
10553542623
10553555075
10553566366
10553580587
10553590536
10553599386
10553608541
10553616781
10553625021
10553632040
10553644918
10553654806
10553663351
10553672445
10553683675
10553692342
10553696371
10553709005
10553718526
10553728841
10553740926
10553751912
10553762533
10553772176
10553783040
10553793599
10553802877
10553817098
10553823018
10553837972
10553848104
10553853109
10553866963
10553876851
10553885457
10553892354
10553904561
10553914754
10553926167
10553935506
10553945210
10553953572
10553965352
10553973714
10553980550
10553992635
10553998311
10554013264
10554019978
10554031209
10554039509
10554046284
10554057759
10554067769
10554078511
10554087666
10554100117
10554109517
10554113301
10554129475
10554136799
10554147602
10554154011
10554163960
10554172993
10554180744
10554191975
10554202168
10554211018
10554219502
10554232807
10554241413
10554250507
10554259296
10554267048
10554281818
10554289631
10554300861
10554310383
10554319172
10554331074
10554334980
10554347370
10554358478
10554370014
10554379780
10554388630
10554397236
10554406513
10554415241
10554422321
10554434467
10554444782
10554456256
10554467243
10554476093
10554484760
10554493305
10554504169
10554510822
10554523883
10554529804
10554544635
10554554401
10554563739
10554575641
10554584064
10554593097
10554602740
10554611468
10554620196
10554633441
10554642657
10554652179
10554660418
10554667193
10554677813
10554686664
10554697833
10554706134
10554717242
10554726458
10554738360
10554747210
10554754779
10554765704
10554775775
10554784075
10554795367
10554805987
10554814898
10554823504
10554833941
10554841509
10554853106
10554859209
10554870745
10554879839
10554887591
10554901079
10554909807
10554921099
10554931597
10554939348
10554948076
10554954668
10554966326
10554976458
10554986284
10554996233
10555004412
10555015703
10555024126
10555033037
10555039690
10555049150
10555058733
10555071123
10555079912
10555090593
10555099932
10555111955
10555120500
10555126543
10555139726
10555149187
10555161333
10555170305
10555179399
10555188310
10555199235
10555208391
10555214128
10555226396
10555234697
10555248186
10555257341
10555267228
10555275956
10555282548
10555294511
10555305314
10555317399
10555326005
10555339128
10555348283
10555357072
10555365556
10555374955
10555385392
10555394608
10555403336
10555411759
10555425614
10555434647
10555442521
10555452531
10555462357
10555471024
10555480180
10555489091
10555500504
10555505082
10555518571
10555529496
10555539933
10555549515
10555558304
10555567399
10555575394
10555586503
10555593827
10555607438
10555614090
10555624527
10555633133
10555643143
10555651810
10555658707
10555670304
10555681107
10555694718
10555705460
10555714615
10555723770
10555733231
10555742020
10555748856
10555760086
10555768570
10555781387
10555790665
10555799881
10555808365
10555814957
10555825516
10555835220
10555843826
10555854995
10555867508
10555876114
10555886917
10555895523
10555902053
10555916214
10555923233
10555932815
10555941360
10555955825
10555965957
10555974868
10555985671
10555996047
10556005020
10556011978
10556022659
10556031448
10556043411
10556052871
10556062881
10556073196
10556081679
10556089919
10556097060
10556109878
10556117751
10556133193
10556141067
10556150832
10556159926
10556170791
10556179763
10556188918
10556198500
10556205214
10556219802
10556226332
10556237136
10556248061
10556256972
10556265944
10556273329
10556282729
10556291396
10556303359
10556312636
10556316542
10556329237
10556338942
10556347853
10556356154
10556366530
10556375197
10556382704
10556395521
10556402235
10556413710
10556420790
10556435194
10556442824
10556454725
10556464918
10556476820
10556487440
10556496168
10556505507
10556511854
10556524122
10556530653
10556541944
10556550367
10556562147
10556571363
10556580885
10556592664
10556596998
10556608595
10556617994
10556628919
10556638746
10556651075
10556659498
10556671156
10556680921
10556690565
10556701673
10556709791
10556719190
10556729871
10556739454
10556749219
10556758375
10556766858
10556776990
10556785474
10556792432
10556804700
10556815320
10556827466
10556833753
10556844739
10556856153
10556860181
10556871961
10556881360
10556891126
10556899610
10556909985
10556921338
10556925488
10556939710
10556946729
10556957959
10556967786
10556974255
10556985547
10556990063
10557005627
10557013379
10557024182
10557035351
10557043774
10557053418
10557064160
10557073681
10557083203
10557097241
10557104199
10557119519
10557126721
10557138806
10557144665
10557156872
10557165600
10557173596
10557187145
10557194653
10557206249
10557215527
10557225353
10557233959
10557242016
10557250927
10557258190
10557272350
10557279858
10557289745
10557297924
10557306835
10557318188
10557327343
10557336254
10557347301
10557358532
10557368541
10557376354
10557385326
10557394298
10557403026
10557409618
10557423473
10557429821
10557444286
10557454051
10557463085
10557471630
10557481212
10557490062
10557496654
10557507518
10557513316
10557526744
10557536815
10557540477
10557556773
10557565379
10557574596
10557581309
10557594859
10557600719
10557614146
10557624278
10557634471
10557643016
10557649608
10557661265
10557670787
10557680613
10557694468
10557705394
10557714488
10557718272
10557734019
10557737681
10557751109
10557760264
10557770335
10557778452
10557790293
10557799387
10557810435
10557819468
10557826365
10557838511
10557844187
10557856455
10557864939
10557876108
10557885203
10557897043
10557906382
10557914133
10557930369
10557938852
10557951731
10557961557
10557967722
10557974863
10557981028
10557986948
10557994516
10558001474
10558009104
10558016611
10558027597
10558035532
10558042368
10558049265
10558054331
10558060678
10558069956
10558076608
10558081552
10558093088
10558100534
10558111093
10558120126
10558129709
10558138864
10558142831
10558158762
10558162302
10558176645
10558185190
10558193063
10558198617
10558208993
10558216867
10558222238
10558229013
10558234872
10558248300
10558254037
10558263864
10558271981
10558278756
10558286630
10558292062
10558300851
10558308969
10558318124
10558326547
10558334481
10558341928
10558349191
10558358407
10558363351
10558372933
10558380197
10558386239
10558396005
10558404000
10558410836
10558417977
10558425057
10558432015
10558439523
10558445504
10558453011
10558462411
10558471078
10558474496
10558484139
10558491769
10558497201
10558503609
10558508858
10558518502
10558523995
10558533455
10558540780
10558547921
10558555062
10558561593
10558569588
10558573922
10558582283
10558588997
10558594796
10558604073
10558609627
10558617440
10558627144
10558634163
10558640999
10558649544
10558657051
10558663582
10558676155
10558682198
10558689095
10558696602
10558706184
10558712776
10558715889
10558728889
10558734993
10558743904
10558752327
10558757454
10558767036
10558773445
10558779671
10558786629
10558795112
10558801948
10558808418
10558817512
10558825691
10558832710
10558839363
10558844612
10558853523
10558860969
10558868354
10558875496
10558881538
10558891182
10558899116
10558906501
10558913337
10558916328
10558926338
10558933845
10558940803
10558947761
10558953498
10558966804
10558972419
10558980781
10558985786
10558997138
10559003913
10559010139
10559017707
10559024787
10559036628
10559044746
10559055610
10559062324
10559066230
10559078315
10559082892
10559090156
10559095893
10559104560
10559111396
10559118049
10559123725
10559128669
10559137214
10559143927
10559149299
10559157782
10559167487
10559174140
10559179206
10559189093
10559196418
10559201545
10559210639
10559213813
10559224799
10559229376
10559238959
10559246833
10559249701
10559261725
10559267035
10559274603
10559281073
10559288519
10559295661
10559303900
10559312750
10559320746
10559328497
10559335394
10559340887
10559349432
10559356024
10559365546
10559372198
10559375494
10559389044
10559397284
10559408697
10559417059
10559425238
10559434942
10559443182
10559449835
10559455450
10559463202
10559469061
10559474676
10559480719
10559485479
10559490911
10559495977
10559500860
10559506231
10559510626
10559515875
10559520819
10559525457
10559530645
10559535223
10559539739
10559545294
10559550787
10559555609
10559561102
10559567510
10559571966
10559579351
10559584905
10559590765
10559596380
10559600897
10559607549
10559613348
10559617986
10559622442
10559628729
10559634344
10559639410
10559645635
10559649786
10559654485
10559660223
10559665533
10559671026
10559677373
10559683294
10559688726
10559692754
10559696050
10559703679
10559707220
10559714239
10559719488
10559726262
10559732305
10559739080
10559744634
10559749944
10559755315
10559763128
10559767827
10559775701
10559781438
10559786016
10559790227
10559796636
10559800969
10559805486
10559811528
10559816411
10559822026
10559827458
10559831548
10559836858
10559842473
10559847600
10559851995
10559858037
10559863957
10559868657
10559873906
10559879949
10559884221
10559890569
10559895268
10559903203
10559907658
10559912663
10559918401
10559923283
10559928899
10559934392
10559940495
10559944035
10559950871
10559954655
10559962529
10559965703
10559972600
10559975896
10559984379
10559989689
10559996342
10560000004
10560006169
10560011113
10560017338
10560022099
10560028508
10560033391
10560038640
10560044987
10560050297
10560054631
10560060551
10560065312
10560070378
10560076481
10560080998
10560090153
10560094487
10560101689
10560105229
10560111576
10560116642
10560121830
10560128788
10560134831
10560140019
10560146244
10560151310
10560157963
10560162968
10560166935
10560174503
10560178288
10560186405
10560192143
10560197880
10560203068
10560208683
10560213261
10560220402
10560225163
10560229008
10560236942
10560240910
10560247990
10560251774
10560258182
10560263431
10560269657
10560274357
10560282413
10560287479
10560293156
10560298099
10560302128
10560311954
10560315555
10560323490
10560327701
10560336185
10560343448
10560349796
10560356083
10560361637
10560367618
10560372257
10560376407
10560382450
10560388370
10560393863
10560398563
10560402896
10560409549
10560414310
10560420475
10560424259
10560433170
10560436710
10560442691
10560447818
10560454349
10560458988
10560464420
10560469303
10560474674
10560479556
10560486087
10560490787
10560497012
10560501102
10560506961
10560512515
10560518619
10560524173
10560529666
10560535159
10560539371
10560545108
10560550296
10560556583
10560561893
10560568668
10560574405
10560580447
10560586368
10560591311
10560597354
10560603335
10560608340
10560617251
10560623782
10560629092
10560635196
10560638736
10560645572
10560650638
10560656314
10560660891
10560669192
10560674197
10560680850
10560686038
10560692385
10560696963
10560700625
10560708743
10560712954
10560719546
10560725283
10560730593
10560737185
10560741519
10560747561
10560753481
10560758242
10560763308
10560772524
10560776675
10560782900
10560787905
10560795168
10560800234
10560804751
10560811709
10560817751
10560822878
10560829775
10560834780
10560840456
10560845095
10560851748
10560856509
10560861941
10560869509
10560873720
10560881106
10560886599
10560892336
10560896914
10560903444
10560908632
10560912783
10560923586
10560929018
10560936770
10560942934
10560950075
10560956728
10560962160
10560967470
10560976259
10560980715
10560986635
10560990969
10560994387
10561001345
10561005007
10561011965
10561017641
10561025087
10561028993
10561037233
10561041567
10561046877
10561052675
10561057436
10561062746
10561068971
10561074526
10561080690
10561086122
10561091921
10561096681
10561102235
10561106935
10561113405
10561117738
10561124391
10561128725
10561134828
10561139345
10561142946
10561151125
10561154909
10561162599
10561166933
10561174562
10561179750
10561185243
10561189882
10561196596
10561201478
10561208864
10561215211
10561220704
10561227052
10561233095
10561240175
10561247010
10561252870
10561257753
10561266603
10561273866
10561280641
10561288026
10561296144
10561306825
10561312318
10561327333
10561335877
10561356385
10561368592
10561378785
10561389222
10561392213
10561402406
10561410889
10561417115
10561421326
10561431336
10561438599
10561445985
10561452821
10561458192
10561467835
10561475464
10561481202
10561488404
10561494141
10561506592
10561514527
10561530457
10561543030
10561551636
10561555726
10561564820
10561571167
10561574097
10561585999
10561591553
10561599976
10561607788
10561614197
10561623535
10561626404
10561637329
10561642578
10561656189
10561662415
10561671082
10561678101
10561680969
10561694275
10561699524
10561707459
10561715149
10561725708
10561733887
10561737122
10561749084
10561753052
10561764892
10561769836
10561778320
10561783508
10561792663
10561800415
10561807251
10561816162
10561822693
10561828857
10561835815
10561842224
10561849121
10561857849
10561865051
10561869995
10561878173
10561885498
10561893188
10561899414
10561906799
10561913330
10561918823
10561928283
10561934936
10561942504
10561949829
10561955749
10561961669
10561966247
10561974548
10561981567
10561992065
10561996948
10562005065
10562011901
10562019897
10562027160
10562033996
10562041381
10562048217
10562053649
10562065063
10562070495
10562079650
10562086425
10562092223
10562099486
10562106933
10562114318
10562121154
10562126952
10562139220
10562147277
10562155578
10562162474
10562170409
10562176757
10562181945
10562190551
10562197020
10562200621
10562214049
10562217833
10562226073
10562232665
10562241210
10562247679
10562252745
10562260802
10562267149
10562270628
10562283629
10562289244
10562297850
10562304503
10562309386
10562317625
10562320189
10562329405
10562336790
10562345335
10562353453
10562360350
10562367003
10562377012
10562383482
10562391905
10562399351
10562405089
10562414732
10562420897
10562429014
10562436094
10562444273
10562450621
10562455931
10562471861
10562480284
10562490171
10562498716
10562505918
10562512754
10562515989
10562527220
10562531736
10562540769
10562547483
10562553404
10562565305
10562572569
10562583067
10562590513
10562593748
10562612608
10562621702
10562629636
10562638486
10562649961
10562657529
10562663328
10562669370
10562675229
10562681150
10562689329
10562697568
10562705503
10562713315
10562718747
10562725400
10562730832
10562735959
10562743406
10562747678
10562753843
10562762021
10562767820
10562772397
10562777646
10562784360
10562789182
10562794919
10562800290
10562805966
10562809995
10562816831
10562821469
10562826718
10562830930
10562836484
10562841977
10562847775
10562854001
10562860166
10562865048
10562871579
10562877988
10562884641
10562888791
10562896664
10562901181
10562906186
10562912045
10562918027
10562922971
10562928097
10562933713
10562938596
10562944272
10562950070
10562954282
10562960202
10562964596
10562969113
10562974667
10562979306
10562987057
10562992306
10562997983
10563002621
10563007931
10563012692
10563018673
10563024960
10563031003
10563037045
10563039364
10563047665
10563051693
10563058712
10563063778
10563069149
10563073849
10563082821
10563092465
10563114193
10563119198
10563132870
10563140438
10563147946
10563157162
10563165463
10563174740
10563180416
10563186764
10563190975
10563195675
10563201656
10563207272
10563212337
10563217159
10563222530
10563228817
10563234249
10563238827
10563246395
10563250667
10563258480
10563266292
10563269588
10563277035
10563282162
10563285579
10563290767
10563295528
10563300899
10563304806
10563310360
10563313595
10563320858
10563325313
10563330867
10563336727
10563341793
10563346798
10563350826
10563354061
10563361141
10563367061
10563372493
10563376949
10563380916
10563386409
10563391780
10563395137
10563401851
10563407344
10563411190
10563416377
10563421504
10563426570
10563432125
10563435359
10563443416
10563446834
10563452632
10563457271
10563463374
10563467525
10563473384
10563479366
10563485774
10563490230
10563496700
10563501582
10563507320
10563513484
10563519466
10563524470
10563531612
10563536616
10563542049
10563547481
10563553401
10563559016
10563565120
10563570491
10563578059
10563581355
10563588923
10563595515
10563599055
10563606013
10563610835
10563617915
10563621455
10563628535
10563634456
10563639949
10563645076
10563650691
10563656855
10563661494
10563667475
10563673213
10563680110
10563684870
10563690425
10563697077
10563704524
10563710993
10563717158
10563721858
10563728572
10563734797
10563740840
10563749995
10563756953
10563763300
10563770991
10563774104
10563787837
10563791621
10563802912
10563809321
10563819453
10563829340
10563835444
10563842951
10563849055
10563854243
10563862849
10563870051
10563877436
10563884699
10563892756
10563898981
10563904352
10563912775
10563919428
10563925165
10563931086
10563939447
10563945734
10563950800
10563959284
10563966242
10563972467
10563978632
10563985956
10563994318
10563999872
10564008783
10564014032
10564020868
10564027216
10564032953
10564042108
10564049188
10564056146
10564062372
10564069513
10564078485
10564085626
10564091791
10564097345
10564109491
10564115167
10564125299
10564130121
10564139215
10564146478
10564152032
10564161066
10564168634
10564171869
10564181756
10564189508
10564201654
10564211053
10564219598
10564228753
10564234796
10564242791
10564252496
10564259088
10564262139
10564275384
10564281427
10564292108
10564298516
10564306268
10564313348
10564320794
10564326776
10564331658
10564338860
10564345147
10564356072
10564363641
10564370171
10564376885
10564384698
10564389581
10564398797
10564401849
10564411736
10564419854
10564429742
10564437005
10564445122
10564452141
10564457085
10564466302
10564470757
10564479424
10564486016
10564491570
10564502312
10564507622
10564516533
10564522393
10564525506
10564534600
10564541069
10564546868
10564553154
10564564141
10564570366
10564575737
10564585930
10564594658
10564600456
10564610955
10564621147
10564626396
10564638176
10564649712
10564657768
10564667656
10564675163
10564683647
10564690361
10564698296
10564703300
10564717033
10564721977
10564730888
10564737480
10564743828
10564751457
10564759147
10564765617
10564771965
10564778007
10564789238
10564794548
10564803459
10564809562
10564816032
10564822685
10564827385
10564836235
10564842338
10564851005
10564857780
10564864250
10564872428
10564877372
10564885124
10564891471
10564897941
10564904472
10564909172
10564920280
10564927665
10564934013
10564940788
10564946220
10564955741
10564963432
10564970878
10564977592
10564985831
10564993461
10564999625
10565008903
10565015617
10565023368
10565030265
10565035514
10565044425
10565051261
10565055167
10565064994
10565071342
10565083915
10565089530
10565100089
10565108451
10565116874
10565124015
10565127372
10565138297
10565146964
10565156119
10565163321
10565166617
10565178702
10565184256
10565192679
10565200064
10565210440
10565218070
10565223197
10565231436
10565239188
10565245657
10565252677
10565257864
10565267630
10565275687
10565283621
10565291861
10565298819
10565305838
10565310965
10565320914
10565325857
10565335379
10565342337
10565347586
10565355948
10565364065
10565372183
10565379019
10565384756
10565393057
10565400686
10565407766
10565414602
10565420340
10565430838
10565439261
10565446157
10565453238
10565459585
10565467947
10565475820
10565482656
10565489492
10565496817
10565504934
10565512503
10565526663
10565533254
10565545156
10565553335
10565561575
10565569387
10565577993
10565590810
10565597280
10565606680
10565614065
10565620840
10565628408
10565634023
10565645376
10565653249
10565664724
10565673208
10565680471
10565687124
10565692495
10565700307
10565706716
10565714528
10565720937
10565725698
10565736989
10565744374
10565751149
10565758046
10565765248
10565771535
10565778798
10565785573
10565791921
10565799550
10565808522
10565812306
10565823415
10565828847
10565837270
10565844106
10565847157
10565856923
10565864735
10565873891
10565881154
10565889455
10565896291
10565901845
10565911916
10565918935
10565921986
10565931691
10565939503
10565947194
10565954579
10565964162
10565970814
10565977467
10565984669
10565992116
10565997365
10566006581
10566009572
10566019459
10566027028
10566034291
10566041188
10566044300
10566053273
10566060292
10566066700
10566073353
10566083485
10566090260
10566096058
10566103871
10566110768
10566118092
10566124439
10566130299
10566138355
10566145558
10566153187
10566160755
10566163990
10566173328
10566178761
10566187550
10566194508
10566197681
10566210804
10566217091
10566225819
10566233997
10566241749
10566248096
10566254505
10566261158
10566269031
10566275989
10566282276
10566290088
10566297291
10566303150
10566313038
10566317615
10566326160
10566332752
10566335621
10566347278
10566352527
10566365284
10566370594
10566378101
10566384815
10566390796
10566398609
10566407337
10566414356
10566421863
10566424732
10566440418
10566451526
10566458362
10566468127
10566476978
10566486865
10566493701
10566496814
10566509387
10566517261
10566525928
10566533557
10566542346
10566549426
10566552356
10566561999
10566570422
10566579394
10566586535
10566593738
10566600085
10566604907
10566615466
10566619555
10566627307
10566635485
10566638232
10566651171
10566656970
10566664782
10566671984
10566679553
10566686083
10566688891
10566698901
10566706408
10566717150
10566724658
10566731005
10566737841
10566746874
10566753771
10566758471
10566767687
10566774523
10566780138
10566789233
10566797778
10566805102
10566812365
10566818896
10566827318
10566831896
10566842089
10566848742
10566851794
10566866137
10566871813
10566880419
10566887194
10566890246
10566902269
10566907702
10566915758
10566922411
10566929857
10566939135
10566946459
10566953722
10566958361
10566966722
10566973802
10566978868
10566989183
10566994127
10567004015
10567011278
10567016588
10567026048
10567033190
10567040880
10567047533
10567055528
10567062303
10567067674
10567078600
10567084215
10567092393
10567101366
10567107774
10567115221
10567119371
10567127122
10567136156
10567143358
10567152696
10567159776
10567165880
10567172716
10567180162
10567186815
10567195604
10567200975
10567207689
10567216417
10567225816
10567233812
10567239915
10567246873
10567253709
10567260545
10567263475
10567273484
10567281175
10567289964
10567308274
10567314317
10567325730
10567331956
10567341782
10567349595
10567361192
10567372178
10567380357
10567388474
10567393235
10567402146
10567405930
10567413071
10567419663
10567424729
10567436570
10567442002
10567449082
10567454941
10567464280
10567470139
10567476304
10567482163
10567486741
10567498093
10567504990
10567511033
10567517258
10567526047
10567532761
10567538254
10567546128
10567553025
10567562912
10567569687
10567575669
10567584580
10567591660
10567598252
10567604538
10567607346
10567616806
10567623825
10567634689
10567642014
10567647751
10567654404
10567659164
10567668686
10567675705
10567681015
10567687546
10567692917
10567705307
10567710617
10567719711
10567724167
10567732895
10567739120
10567744125
10567754745
10567760177
10567769333
10567777084
10567785385
10567792465
10567798019
10567807541
10567812118
10567821762
10567828476
10567833908
10567845321
10567850204
10567858383
10567865585
10567870712
10567880477
10567888229
10567895553
10567902572
10567909957
10567917220
