10644447969
10644453035
10644457857
10644462068
10644467256
10644472017
10644476961
10644481478
10644486177
10644491121
10644496065
10644501192
10644505159
10644509676
10644514681
10644519441
10644523531
10644529329
10644534029
10644538118
10644543001
10644548372
10644552095
10644557466
10644561800
10644566255
10644570284
10644575716
10644580171
10644584871
10644589387
10644593477
10644597749
10644603181
10644608186
10644614046
10644619966
10644625642
10644632112
10644636506
10644641511
10644647798
10644654451
10644662813
10644666902
10644673921
10644678193
10644682710
10644688325
10644695466
10644701936
10644707185
10644713166
10644718965
10644724580
10644729341
10644736665
10644741853
10644748933
10644754853
10644760163
10644766206
10644773286
10644779206
10644784333
10644790620
10644797212
10644802583
10644808137
10644816132
10644821870
10644827851
10644834992
10644840485
10644846284
10644851838
10644857209
10644863862
10644871918
10644877167
10644883271
10644889191
10644896638
10644902314
10644910737
10644916962
10644922455
10644927277
10644933930
10644941437
10644948151
10644954621
10644959443
10644966218
10644970856
10644976594
10644982880
10644989350
10644996308
10645002961
10645009003
10645015534
10645021271
10645027802
10645032502
10645039826
10645046295
10645052460
10645057099
10645063202
10645069733
10645075226
10645082489
10645089264
10645095123
10645100983
10645107392
10645111786
10645118561
10645123505
10645131989
10645138947
10645145355
10645152252
10645160431
10645166779
10645173004
10645180756
10645187225
10645193695
10645201141
10645207184
10645213714
10645221039
10645225433
10645234588
10645240631
10645246429
10645254913
10645260650
10645266998
10645273102
10645281769
10645288482
10645295074
10645303009
10645309784
10645314666
10645324798
10645331878
10645337982
10645343109
10645351593
10645358551
10645364227
10645368499
10645377471
10645383575
10645389984
10645398040
10645404388
10645412750
10645420379
10645427642
10645435943
10645443755
10645449004
10645456084
10645464263
10645473052
10645478728
10645485503
10645494598
10645501433
10645509551
10645517364
10645523528
10645530730
10645538177
10645547454
10645555022
10645562102
10645568267
10645575164
10645583098
10645590056
10645596038
10645604888
10645611541
10645618377
10645624358
10645632964
10645638274
10645647185
10645653044
10645660308
10645667754
10645674773
10645683440
10645690825
10645696379
10645704924
10645712248
10645720305
10645727324
10645732207
10645739470
10645746794
10645754729
10645759184
10645767485
10645776701
10645783903
10645791472
10645798003
10645805449
10645813322
10645821013
10645826445
10645837370
10645843657
10645851164
10645857512
10645865751
10645871855
10645878508
10645887175
10645892851
10645901335
10645908049
10645916716
10645924162
10645931547
10645939299
10645948210
10645958586
10645965910
10645974638
10645982206
10645990385
10646000639
10646008878
10646012968
10646024931
10646037321
10646046781
10646054777
10646065885
10646072782
10646084623
10646090482
10646101591
10646109464
10646124296
10646134550
10646141691
10646154447
10646160550
10646171781
10646181669
10646189969
10646200345
10646209317
10646217313
10646228910
10646241117
10646249784
10646258145
10646270902
10646279569
10646287564
10646301907
10646312589
10646321988
10646326444
10646339749
10646350980
10646360501
10646368619
10646380643
10646393765
10646404446
10646411770
10646424893
10646433011
10646444607
10646454678
10646464749
10646474453
10646484402
10646496975
10646505276
10646516262
10646523526
10646535305
10646541165
10646553494
10646563259
10646572781
10646582058
10646589504
10646601040
10646610561
10646618008
10646629788
10646637661
10646647610
10646654995
10646667812
10646674282
10646686184
10646696682
10646705166
10646716091
10646723293
10646734340
10646745022
10646756740
10646767482
10646774929
10646785671
10646794094
10646803432
10646812954
10646822780
10646832485
10646841457
10646854885
10646862941
10646871059
10646881191
10646888820
10646899501
10646908351
10646917934
10646931972
10646942470
10646949855
10646957790
10646968776
10646980189
10646989406
10646996913
10647009425
10647017848
10647029628
10647039454
10647048793
10647058680
10647066737
10647078761
10647087611
10647097560
10647109462
10647119838
10647130275
10647140712
10647149928
10647158656
10647169459
10647177882
10647187831
10647195582
10647209437
10647221583
10647229884
10647240992
10647253321
10647261927
10647271143
10647284022
10647293909
10647305323
10647315699
10647334559
10647343348
10647351648
10647362574
10647373987
10647382776
10647395594
10647407007
10647414209
10647432093
10647441980
10647452967
10647460535
10647473413
10647486841
10647496240
10647502954
10647518274
10647527368
10647535730
10647547449
10647556116
10647565881
10647578332
10647589075
10647601343
10647611291
10647620935
10647630395
10647639001
10647647241
10647655298
10647667383
10647677697
10647685022
10647692224
10647704736
10647713220
10647724450
10647732629
10647744226
10647755273
10647765588
10647774987
10647783837
10647794091
10647805505
10647814904
10647822961
10647834557
10647842187
10647854028
10647864892
10647873803
10647884240
10647894311
10647905297
10647913781
10647922265
10647930260
10647941552
10647950951
10647958275
10647970055
10647981041
10647989403
10647998314
10648010460
10648019799
10648029381
10648041039
10648051293
10648058373
10648070214
10648078331
10648087608
10648094200
10648106651
10648116905
10648125938
10648137413
10648148460
10648157738
10648165062
10648173973
10648183739
10648195091
10648203026
10648217674
10648226341
10648236778
10648245384
10648254417
10648265953
10648273338
10648280479
10648293235
10648304771
10648316001
10648325462
10648333641
10648344566
10648351463
10648360557
10648370140
10648382347
10648392051
10648402244
10648412498
10648419822
10648431175
10648442344
10648449973
10648460715
10648469199
10648479697
10648489402
10648501609
10648511741
10648519248
10648529502
10648538047
10648547507
10648557822
10648567832
10648577720
10648587668
10648599570
10648611960
10648622092
10648631003
10648642661
10648653342
10648664267
10648676718
10648684470
10648696738
10648705588
10648713889
10648724265
10648734335
10648743674
10648752463
10648763388
10648771689
10648784140
10648792074
10648804342
10648814413
10648823385
10648833273
10648844992
10648853659
10648867758
10648876730
10648888205
10648897970
10648906332
10648914511
10648925863
10648934530
10648944235
10648955831
10648966390
10648976888
10648984152
10648996542
10649004781
10649014730
10649021688
10649034872
10649045065
10649057088
10649066793
10649075277
10649085836
10649092855
10649103536
10649112569
10649121358
10649131002
10649145528
10649156942
10649164083
10649176412
10649186483
10649194966
10649204976
10649216329
10649226461
10649241658
10649252156
10649259358
10649272298
10649278340
10649289754
10649299764
10649308492
10649318684
10649330098
10649338399
10649348836
10649357014
10649366902
10649374593
10649389851
10649399922
10649406575
10649419392
10649428731
10649439045
10649446614
10649457539
10649465535
10649474385
10649480488
10649491108
10649502400
10649513447
10649523762
10649530232
10649540119
10649550251
10649558857
10649566242
10649575581
10649585590
10649595173
10649605366
10649615498
10649626728
10649637714
10649646442
10649659748
10649667438
10649678181
10649687092
10649697651
10649707050
10649715839
10649723713
10649731952
10649740375
10649752216
10649760639
10649772052
10649781269
10649789997
10649794574
10649805561
10649813251
10649826374
10649834735
10649845355
10649852985
10649862079
10649871234
10649880512
10649888446
10649899432
10649908344
10649915973
10649926288
10649935992
10649945148
10649951068
10649962848
10649968707
10649976581
10649989032
10649998065
10650010882
10650019488
10650028460
10650038226
10650045184
10650054095
10650064166
10650073443
10650081500
10650091937
10650102374
10650110308
10650120745
10650128619
10650135638
10650146746
10650156146
10650163043
10650173480
10650188433
10650197955
10650205767
10650215472
10650225787
10650233050
10650245745
10650255633
10650265581
10650273516
10650283465
10650292925
10650299944
10650310320
10650320086
10650329546
10650339251
10650346636
10650359575
10650368914
10650380999
10650389788
10650402849
10650414263
10650426409
10650434831
10650444414
10650455156
10650463213
10650471697
10650480119
10650486406
10650498552
10650509416
10650516740
10650527605
10650535417
10650545854
10650552263
10650563676
10650569719
10650588396
10650597795
10650605363
10650617631
10650625810
10650635392
10650643754
10650654863
10650661454
10650672685
10650683000
10650692582
10650702653
10650710221
10650718827
10650727433
10650736039
10650747331
10650756547
10650764420
10650773881
10650786149
10650795548
10650802445
10650814469
10650822343
10650831437
10650841996
10650852128
10650861588
10650871964
10650880143
10650887894
10650900162
10650912552
10650921952
10650929215
10650940140
10650947709
10650957352
10650964127
10650970475
10650982804
10650994278
10651002762
10651013199
10651022599
10651032669
10651038956
10651048050
10651057022
10651066361
10651075577
10651083756
10651096207
10651104813
10651113358
10651125626
10651135696
10651146744
10651154556
10651166763
10651175247
10651185623
10651191971
10651202896
10651209610
10651220169
10651231216
10651238418
10651249527
10651260147
10651269302
10651279495
10651286209
10651299148
10651308059
10651315872
10651329360
10651336257
10651347427
10651357376
10651367507
10651376479
10651383376
10651391982
10651404617
10651414260
10651424453
10651433669
10651439956
10651449111
10651457168
10651469192
10651478042
10651490188
10651498488
10651509292
10651518203
10651525710
10651537673
10651545302
10651555312
10651568496
10651577956
10651585219
10651594802
10651604323
10651614394
10651622573
10651634474
10651643447
10651654189
10651663527
10651673293
10651681716
10651691786
10651700575
10651707106
10651716811
10651726576
10651733595
10651743727
10651754530
10651763747
10651773512
10651780531
10651791151
10651798720
10651808485
10651818190
10651827223
10651838759
10651847548
10651857557
10651865309
10651876295
10651884962
10651894606
10651906324
10651913160
10651925245
10651931837
10651941541
10651949354
10651957655
10651969434
10651980665
10651989149
10651999342
10652009596
10652017164
10652026258
10652032728
10652045179
10652054822
10652064466
10652073560
10652080640
10652091504
10652098707
10652107618
10652117750
10652125684
10652138257
10652147840
10652158277
10652165540
10652174390
10652181592
10652191541
10652202283
10652210767
10652224256
10652236829
10652243726
10652256116
10652263196
10652275342
10652285108
10652295544
10652306226
10652318616
10652328687
10652337231
10652346448
10652354382
10652362012
10652368970
10652376599
10652383313
10652390088
10652396741
10652403515
10652410718
10652417981
10652424878
10652432873
10652440136
10652447339
10652455456
10652462170
10652470044
10652478344
10652485302
10652490612
10652498852
10652507580
10652513317
10652521557
10652527416
10652532849
10652540234
10652548901
10652558727
10652565258
10652571362
10652579235
10652586926
10652592602
10652601269
10652608593
10652614941
10652621899
10652630444
10652635998
10652643871
10652651073
10652659069
10652664684
10652672741
10652680187
10652688305
10652693798
10652702282
10652709728
10652718883
10652725597
10652734386
10652739940
10652749462
10652755382
10652764598
10652770031
10652777111
10652786083
10652794994
10652800182
10652808910
10652816478
10652822032
10652829235
10652835155
10652843883
10652853038
10652858531
10652865367
10652872630
10652879588
10652886913
10652893749
10652902049
10652910899
10652916331
10652925548
10652931041
10652938243
10652945567
10652953136
10652962169
10652969371
10652976573
10652984813
10652992198
10652999095
10653006053
10653013316
10653021983
10653027659
10653037547
10653044261
10653052012
10653057689
10653065806
10653072642
10653082347
10653088694
10653096568
10653104808
10653110911
10653119090
10653123973
10653131480
10653141429
10653148448
10653155528
10653161082
10653169077
10653175120
10653182261
10653189951
10653199961
10653206065
10653215281
10653221629
10653227183
10653234995
10653241953
10653249583
10653259714
10653266123
10653273081
10653279307
10653287058
10653292490
10653297983
10653306528
10653315989
10653322336
10653330637
10653336802
10653344492
10653350046
10653357370
10653365549
10653374399
10653380503
10653388742
10653395151
10653402414
10653409494
10653417734
10653424021
10653433603
10653440561
10653449045
10653455454
10653464365
10653470041
10653477426
10653484140
10653492929
10653501169
10653507333
10653515573
10653522104
10653530588
10653537912
10653543283
10653553049
10653560373
10653567331
10653571847
10653581430
10653587716
10653595651
10653603219
10653611581
10653618539
10653626718
10653633798
10653639474
10653647775
10653653451
10653662728
10653669809
10653676644
10653685800
10653692025
10653698556
10653704415
10653711373
10653720712
10653728890
10653735665
10653743112
10653749276
10653756722
10653762216
10653769540
10653778146
10653785348
10653794991
10653800546
10653808663
10653814034
10653822030
10653829598
10653837289
10653844918
10653850899
10653858956
10653868477
10653876290
10653882638
10653889290
10653897713
10653904854
10653911690
10653920235
10653926949
10653934334
10653940072
10653947945
10653957894
10653964730
10653972664
10653981148
10653989693
10653997322
10654005501
10654016060
10654021919
10654032234
10654039253
10654045540
10654053414
10654059944
10654067757
10654074837
10654082649
10654089241
10654096565
10654102913
10654111641
10654118477
10654126045
10654132637
10654139595
10654147102
10654156563
10654164436
10654172432
10654179939
10654186592
10654195137
10654203071
10654210823
10654219429
10654224434
10654231575
10654239631
10654248359
10654255439
10654264839
10654270149
10654278572
10654283821
10654292366
10654299873
10654307380
10654316657
10654323493
10654330818
10654338935
10654344184
10654351875
10654359260
10654366035
10654372260
10654380256
10654387397
10654394477
10654401557
10654408027
10654415534
10654424018
10654433601
10654440253
10654447883
10654455878
10654462958
10654469428
10654476691
10654483466
10654491584
10654498298
10654505500
10654512153
10654519416
10654528083
10654534186
10654541694
10654551154
10654558905
10654564948
10654572028
10654578864
10654585944
10654595282
10654603217
10654608832
10654616095
10654623847
10654631964
10654638190
10654646002
10654652777
10654661688
10654668280
10654676581
10654684943
10654692267
10654698126
10654705756
10654711920
10654721075
10654727057
10654732184
10654741217
10654746466
10654755316
10654762457
10654768439
10654776068
10654783148
10654789984
10654798102
10654803290
10654810797
10654818243
10654826788
10654837103
10654844305
10654852789
10654859442
10654868231
10654873785
10654883001
10654888372
10654897222
10654904669
10654912969
10654919439
10654926946
10654933294
10654942083
10654947515
10654957281
10654964117
10654973821
10654982061
10654989385
10654996587
10655005926
10655014837
10655021368
10655028997
10655036138
10655043951
10655052556
10655060369
10655066900
10655076726
10655082952
10655090459
10655098882
10655106206
10655112737
10655122197
10655129033
10655136907
10655143987
10655152288
10655158818
10655166448
10655172124
10655181279
10655188054
10655195623
10655202153
10655209600
10655215825
10655223210
10655229558
10655236821
10655244267
10655251775
10655258794
10655266728
10655273137
10655280461
10655288518
10655293767
10655302434
10655310490
10655317021
10655324467
10655330937
10655338689
10655344975
10655352544
10655365483
10655374577
10655379765
10655388859
10655396733
10655405766
10655413762
10655422856
10655428532
10655436222
10655444889
10655451847
10655459233
10655466191
10655473881
10655482914
10655494389
10655499394
10655507450
10655514591
10655522465
10655528813
10655536991
10655544865
10655555363
10655560673
10655570011
10655576908
10655584721
10655591312
10655598331
10655608524
10655616032
10655624210
10655633793
10655642155
10655650028
10655657352
10655664615
10655675236
10655684818
10655695743
10655708805
10655716983
10655726871
10655734623
10655744571
10655749820
10655759342
10655765934
10655771854
10655778385
10655786197
10655792179
10655800785
10655808414
10655815555
10655825015
10655834842
10655843021
10655850711
10655859805
10655868961
10655875430
10655882449
10655890628
10655897586
10655903934
10655911258
10655918582
10655924869
10655932315
10655939517
10655946048
10655951236
10655958194
10655966800
10655974368
10655980594
10655987796
10655994937
10656002139
10656008487
10656015139
10656022281
10656029178
10656035647
10656042727
10656048770
10656056338
10656062564
10656071231
10656079287
10656086306
10656095217
10656102053
10656107363
10656115603
10656122683
10656131960
10656136782
10656147219
10656154116
10656160220
10656168093
10656176089
10656182558
10656190310
10656198489
10656207583
10656215334
10656221743
10656228274
10656234560
10656241274
10656250307
10656257570
10656264773
10656271853
10656277712
10656286013
10656291750
10656299624
10656306887
10656316042
10656322512
10656330385
10656336550
10656343935
10656349672
10656355593
10656366213
10656373903
10656380983
10656389467
10656396059
10656402895
10656408815
10656416689
10656423036
10656433473
10656440187
10656447817
10656457033
10656463503
10656469545
10656478273
10656486879
10656494142
10656501283
10656509523
10656516786
10656525270
10656533205
10656540773
10656547792
10656556154
10656563234
10656569703
10656574281
10656585084
10656592592
10656599489
10656607484
10656614137
10656621766
10656627748
10656635804
10656642030
10656650270
10656657045
10656664186
10656671205
10656679994
10656687318
10656694337
10656701539
10656708314
10656716859
10656724915
10656730164
10656738343
10656745789
10656753846
10656761598
10656767884
10656775513
10656784669
10656789307
10656797486
10656804871
10656810609
10656818482
10656825867
10656835877
10656841920
10656850770
10656856202
10656864930
10656871094
10656876282
10656885926
10656894715
10656903077
10656907776
10656915345
10656922181
10656930481
10656939026
10656945252
10656954163
10656961060
10656969361
10656975647
10656982117
10656990235
10656996887
10657005005
10657013489
10657020081
10657028870
10657036438
10657042542
10657049500
10657057434
10657064453
10657072754
10657081055
10657088623
10657095032
10657102600
10657109497
10657118164
10657127380
10657135681
10657143432
10657151428
10657157226
10657165893
10657174866
10657182861
10657191284
10657197754
10657206726
10657213806
10657220825
10657227905
10657235412
10657244567
10657250244
10657258300
10657264099
10657271057
10657278869
10657284423
10657293273
10657301147
10657307372
10657314758
10657322143
10657327941
10657336181
10657343444
10657350097
10657359435
10657365600
10657373962
10657379577
10657387878
10657394164
10657401000
10657408752
10657416869
10657422973
10657430175
10657437804
10657445067
10657452392
10657458312
10657465453
10657474914
10657483458
10657488952
10657497252
10657502684
10657510985
10657516478
10657523436
10657534118
10657541198
10657548033
10657554503
10657562743
10657572875
10657580260
10657587950
10657597411
10657604674
10657611266
10657618712
10657627196
10657635375
10657642210
10657651732
10657657958
10657665587
10657671690
10657679320
10657686522
10657693663
10657701903
10657710203
10657716917
10657724852
10657730589
10657737608
10657746214
10657754820
10657761900
10657770018
10657776243
10657783629
10657791868
10657798399
10657805296
10657812498
10657819578
10657828611
10657835691
10657844053
10657851377
10657859983
10657868650
10657875120
10657883787
10657890745
10657898374
10657905638
10657913145
10657920286
10657927488
10657933958
10657941648
10657950254
10657957578
10657964903
10657970152
10657977903
10657985288
10657991331
10657998960
10658006712
10658013792
10658020383
10658027585
10658033994
10658041074
10658049436
10658057981
10658065549
10658072629
10658079831
10658087034
10658094053
10658101255
10658107358
10658115232
10658124326
10658129392
10658138303
10658143003
10658150449
10658160092
10658167539
10658175168
10658183530
10658190366
10658196591
10658203977
10658209958
10658217954
10658226743
10658233640
10658241086
10658248288
10658256284
10658262631
10658268552
10658277036
10658284421
10658292905
10658300168
10658307065
10658314938
10658321835
10658328427
10658333432
10658342770
10658350583
10658357724
10658371396
10658378354
10658385190
10658393307
10658400570
10658409298
10658415219
10658424008
10658432064
10658439022
10658445431
10658453854
10658461300
10658468869
10658476803
10658483517
10658490658
10658497067
10658503720
10658514095
10658524227
10658532345
10658541073
10658548092
10658555660
10658563656
10658572018
10658579037
10658586910
10658593868
10658601192
10658608028
10658615719
10658622249
10658631954
10658637325
10658646786
10658654537
10658662411
10658670284
10658676082
10658685543
10658691097
10658699215
10658708187
10658715328
10658723201
10658728450
10658737362
10658742549
10658751155
10658759761
10658767635
10658773494
10658781917
10658789058
10658795650
10658803462
10658810909
10658821468
10658827815
10658834590
10658842525
10658850826
10658857906
10658865596
10658875056
10658883540
10658890620
10658896846
10658904170
10658910945
10658920161
10658927730
10658937434
10658943965
10658951106
10658958980
10658964473
10658973140
10658980952
10658987849
10658996882
10659005427
10659012141
10659017939
10659025935
10659032466
10659041743
10659048762
10659058406
10659064936
10659071894
10659078242
10659085322
10659092036
10659099726
10659107539
10659115473
10659121943
10659128474
10659136530
10659143794
10659149897
10659157893
10659164729
10659174006
10659178767
10659189387
10659199030
10659204951
10659211176
10659219965
10659225153
10659234308
10659242914
10659250178
10659256708
10659263239
10659269648
10659280024
10659285151
10659294794
10659302729
10659309626
10659317255
10659324884
10659332697
10659339411
10659349787
10659359857
10659366815
10659372675
10659380304
10659388971
10659396295
10659405573
10659412714
10659419855
10659427362
10659434931
10659441400
10659448602
10659458307
10659466180
10659474908
10659481683
10659488763
10659496515
10659502924
10659510858
10659518487
10659528192
10659535089
10659542962
10659549371
10659557001
10659564447
10659571832
10659579034
10659587335
10659594232
10659601434
10659607293
10659614740
10659622979
10659627557
10659638482
10659646905
10659653070
10659661370
10659667169
10659675164
10659681390
10659688836
10659696832
10659704644
10659710687
10659719476
10659725213
10659732659
10659740106
10659745538
10659753289
10659762505
10659770257
10659777398
10659783196
10659790520
10659797845
10659805169
10659811516
10659819390
10659827752
10659833916
10659842644
10659849846
10659856133
10659863701
10659870537
10659878777
10659886956
10659894585
10659901604
10659906914
10659914360
10659921624
10659928521
10659936089
10659945305
10659951165
10659959282
10659966301
10659971916
10659979363
10659987114
10659994438
10660002007
10660007988
10660016838
10660024162
10660030327
10660039665
10660045891
10660055229
10660063713
10660069389
10660077812
10660085014
10660090813
10660099419
10660106254
10660116142
10660123222
10660130730
10660137321
10660144768
10660150749
10660156120
10660166801
10660172600
10660181022
10660189384
10660195121
10660203544
10660209770
10660217460
10660226493
10660233818
10660241325
10660249687
10660255973
10660262931
10660269157
10660278007
10660283317
10660293083
10660301017
10660307853
10660314323
10660321708
10660327934
10660335685
10660342643
10660350822
10660357169
10660364982
10660371207
10660378226
10660384757
10660392020
10660399345
10660408378
10660415153
10660422416
10660429252
10660436820
10660443290
10660449882
10660457389
10660465629
10660472342
10660480521
10660486808
10660494559
10660500907
10660509757
10660516593
10660523124
10660529715
10660537284
10660545401
10660552359
10660558646
10660565055
10660571280
10660582389
10660589774
10660596243
10660601737
10660610526
10660616751
10660624869
10660632620
10660639639
10660646658
10660655692
10660662039
10660670279
10660677298
10660684622
10660692068
10660700186
10660707449
10660715750
10660722891
10660729544
10660736990
10660747366
10660755423
10660762259
10660772635
10660780264
10660788809
10660798636
10660804434
10660812979
10660822927
10660829580
10660838613
10660845571
10660852957
10660861196
10660867788
10660872244
10660882315
10660891165
10660897756
10660903982
10660910940
10660916555
10660925588
10660931631
10660942068
10660948843
10660955373
10660961599
10660969900
10660976369
10660984060
10660991628
10661000051
10661006399
10661013235
10661019704
10661027639
10661033986
10661041433
10661048025
10661058278
10661065114
10661072744
10661079213
10661087880
10661093923
10661100637
10661106801
10661117299
10661123830
10661130910
10661137441
10661144521
10661150685
10661158376
10661166921
10661174794
10661181325
10661188161
10661193776
10661201711
10661209950
10661214955
10661224721
10661232961
10661239552
10661246938
10661253163
10661259206
10661268788
10661274403
10661282216
10661291432
10661298451
10661307240
10661314076
10661322255
10661329091
10661337086
10661345631
10661351674
10661358876
10661368519
10661375538
10661382313
10661390980
10661397084
10661406849
10661414051
10661421070
10661426747
10661434559
10661442555
10661447865
10661456471
10661464466
10661471363
10661478199
10661485096
10661493031
10661499317
10661507435
10661515736
10661525501
10661530811
10661539539
10661546742
10661553150
10661560230
10661569874
10661575428
10661585377
10661592396
10661600025
10661606495
10661614429
10661621021
10661631031
10661637684
10661646229
10661654163
10661660755
10661670093
10661675770
10661683033
10661688648
10661699085
10661705005
10661712268
10661717945
10661725269
10661732959
10661738575
10661746875
10661754138
10661763233
10661768665
10661777637
10661784900
10661791065
10661799304
10661806873
10661815418
10661823840
10661828540
10661838245
10661843066
10661851062
10661858752
10661865405
10661875537
10661885791
10661906787
10661917956
10661928393
10661939013
10661947070
10661953662
10661960315
10661967273
10661973803
10661979052
10661985461
10661991626
10661998950
10662005847
10662013598
10662020190
10662025073
10662031909
10662038378
10662043933
10662050769
10662059863
10662066882
10662072131
10662079638
10662087939
10662093798
10662099536
10662107043
10662115588
10662121752
10662130236
10662136095
10662142443
10662149584
10662157153
10662167162
10662171984
10662180529
10662187121
10662195849
10662202807
10662210192
10662216295
10662228625
10662235705
10662242479
10662251452
10662256212
10662266222
10662274950
10662282518
10662290453
10662297411
10662305651
10662311693
10662319200
10662327318
10662335131
10662341967
10662349413
10662355638
10662363085
10662371141
10662377489
10662385057
10662392931
10662399584
10662407579
10662413988
10662422411
10662428758
10662436083
10662442918
10662450670
10662457140
10662464220
10662472398
10662479539
10662486314
10662491868
10662503099
10662511644
10662518358
10662524644
10662532762
10662540208
10662546617
10662554002
10662561326
10662570543
10662576951
10662584398
10662590623
10662597947
10662604661
10662613267
10662620103
10662629258
10662634141
10662642747
10662649949
10662656114
10662662339
10662671372
10662679734
10662686631
10662694077
10662701158
10662708665
10662715501
10662722276
10662729661
10662734788
10662743760
10662751328
10662758530
10662767197
10662775010
10662782761
10662790330
10662797349
10662808152
10662815781
10662822739
10662830491
10662837205
10662845444
10662852707
10662860947
10662868210
10662875657
10662881821
10662889267
10662895798
10662903305
10662910324
10662919663
10662926316
10662935349
10662943222
10662949814
10662955612
10662966843
10662976120
10662984604
10662991989
10662998215
10663005417
10663014389
10663024765
10663032028
10663040024
10663047348
10663055038
10663063889
10663071274
10663078903
10663085556
10663095810
10663104355
10663112350
10663118576
10663126022
10663132431
10663139023
10663146652
10663155868
10663162704
10663170334
10663177231
10663184188
10663192428
10663199936
10663208480
10663216842
10663223312
10663229965
10663236251
10663243881
10663250289
10663258773
10663265548
10663273544
10663280990
10663288680
10663296249
10663302047
10663309127
10663317367
10663322982
10663333297
10663340926
10663348067
10663355758
10663362838
10663370711
10663379195
10663386642
10663394576
10663409408
10663415877
10663420516
10663430343
10663437179
10663443343
10663452804
10663460128
10663468245
10663474959
10663479842
10663489302
10663496444
10663504378
10663512801
10663520369
10663527693
10663534774
10663541793
10663549178
10663555892
10663565108
10663572493
10663580062
10663586470
10663594466
10663600691
10663609175
10663619856
10663626387
10663635237
10663642744
10663649825
10663656416
10663663557
10663670149
10663678755
10663686812
10663692854
10663701826
10663709151
10663715315
10663723005
10663731611
10663740767
10663749128
10663756697
10663763594
10663770430
10663779097
10663785688
10663791609
10663800215
10663808882
10663815229
10663824446
10663830366
10663840254
10663846968
10663853681
10663862348
10663869917
10663878889
10663886396
10663893598
10663900678
10663908735
10663916486
10663924604
10663929975
10663938764
10663944257
10663953779
10663961103
10663968183
10663975324
10663982587
10663990461
10663997175
10664005720
10664012067
10664020551
10664030073
10664036908
10664044355
10664051557
10664058637
10664064496
10664071698
10664079450
10664087445
10664095929
10664103009
10664110089
10664117414
10664124982
10664130597
10664139142
10664147321
10664153852
10664162030
10664167768
10664176312
10664182050
10664189862
10664195477
10664205304
10664211285
10664219098
10664224835
10664232037
10664239056
10664246259
10664254498
10664264935
10664272198
10664277447
10664287030
10664291730
10664299420
10664308026
10664314252
10664324689
10664330731
10664336468
10664346661
10664352398
10664360455
10664365704
10664373028
10664384625
10664391400
10664398907
10664406048
10664414471
10664421063
10664428143
10664438092
10664445355
10664451885
10664459881
10664466961
10664475567
10664482830
10664489605
10664499004
10664505840
10664514813
10664520672
10664528667
10664536968
10664544598
10664551800
10664561443
10664569195
10664576397
10664583660
10664589702
10664597454
10664605205
10664613506
10664621929
10664629070
10664635174
10664642437
10664652019
10664660137
10664667400
10664674968
10664683818
10664690532
10664698101
10664705974
10664713542
10664720684
10664725749
10664739421
10664746196
10664754070
10664761333
10664768413
10664776348
10664784221
10664792400
10664800395
10664807658
10664816753
10664822856
10664829814
10664837627
10664846233
10664854350
10664861674
10664869609
10664876628
10664886516
10664891215
10664898784
10664909282
10664915324
10664923442
10664931193
10664938334
10664944316
10664951152
10664959025
10664966716
10664973002
10664981303
10664987651
10664993449
10665001078
10665007548
10665017924
10665024516
10665031657
10665038249
10665045695
10665051798
10665058634
10665067118
10665074870
10665081767
10665089335
10665095805
10665104594
10665111918
10665121928
10665129191
10665136454
10665145304
10665153727
10665161051
10665170267
10665177531
10665184672
10665192179
10665200358
10665207010
10665214335
10665220987
10665229899
10665236673
10665245279
10665252909
10665259501
10665266275
10665274271
10665280619
10665288065
10665295206
10665305094
10665309854
10665318827
10665325357
10665332559
10665339273
10665348184
10665355631
10665363992
10665371622
10665378702
10665385843
10665391519
10665397867
10665406778
10665413736
10665421732
10665428568
10665435709
10665443094
10665452005
10665458292
10665465982
10665473062
10665481119
10665488382
10665495706
10665502664
10665510049
10665516214
10665524942
10665532388
10665539956
10665546670
10665554788
10665561502
10665569436
10665577859
10665584512
10665591592
10665601968
10665606912
10665615152
10665622048
10665630471
10665637490
10665645242
10665655679
10665664468
10665671243
10665677529
10665684243
10665693276
10665700295
10665706277
10665716103
10665725747
10665731667
10665738381
10665746133
10665753213
10665759865
10665767861
10665775307
10665782387
10665790444
10665798073
10665804787
10665812111
10665819130
10665830178
10665836953
10665844521
10665850930
10665860390
10665867226
10665878334
10665884499
10665895302
10665902382
10665909828
10665917519
10665924782
10665932717
10665939736
10665948464
10665956703
10665964516
10665970925
10665980019
10665986794
10665993935
10666001320
10666011025
10666018654
10666024879
10666031105
10666038795
10666045692
10666055458
10666060524
10666070412
10666075294
10666083900
10666090065
10666097572
10666104164
10666112343
10666118995
10666127968
10666134804
10666141761
10666148719
10666156471
10666162941
10666176429
10666183998
10666190956
10666198280
10666207435
10666214332
10666221717
10666229469
10666236854
10666245887
10666255165
10666261756
10666268836
10666275977
10666282874
10666290504
10666298377
10666305457
10666313453
10666320472
10666327979
10666335609
10666342200
10666349342
10666357947
10666366920
10666372352
10666380591
10666386085
10666394568
10666400001
10666408668
10666415687
10666423987
10666431434
10666438697
10666446998
10666453345
10666461463
10666467627
10666477027
10666484778
10666492224
10666498633
10666504615
10666520240
10666527625
10666533850
10666542761
10666550452
10666558142
10666565894
10666572669
10666577612
10666585852
10666595129
10666604163
10666613501
10666620886
10666631323
10666638769
10666645605
10666655432
10666662695
10666672217
10666679419
10666686743
10666694678
10666701513
10666708166
10666717627
10666725134
10666732092
10666739355
10666745886
10666753454
10666762671
10666770178
10666776342
10666785864
10666792150
10666800817
10666806555
10666814184
10666819799
10666829992
10666836584
10666843542
10666849096
10666858495
10666864782
10666869543
10666879308
10666884191
10666894323
10666901891
10666908056
10666916052
10666922643
10666927404
10666934850
10666946874
10666952673
10666961950
10666969213
10666975622
10666980810
10666988805
10666995031
10667003515
10667010229
10667017370
10667026037
10667032140
10667038549
10667044774
10667052160
10667059850
10667065831
10667075109
10667082616
10667088353
10667096837
10667103124
10667111180
10667119847
10667126805
10667133397
10667139867
10667145848
10667153172
10667161717
10667169713
10667177220
10667183995
10667191258
10667196751
10667205846
10667212804
10667220494
10667227086
10667234044
10667240086
10667248448
10667257115
10667263646
10667272740
10667279515
10667286351
10667292515
10667302403
10667308812
10667316075
10667326512
10667335301
10667343419
10667350682
10667358311
10667365452
10667373082
10667384678
10667392125
10667399449
10667405308
10667414158
10667420689
10667427952
10667434117
10667441380
10667451939
10667456761
10667464146
10667472202
10667478123
10667485386
10667494114
10667503391
10667510227
10667514988
10667523289
10667531773
10667538120
10667546055
10667552463
10667560825
10667569492
10667576511
10667582554
10667588047
10667597751
10667603489
10667610752
10667619236
10667625522
10667634433
10667640659
10667649082
10667655185
10667663059
10667669223
10667679782
10667686130
10667693088
10667701389
10667707309
10667713840
10667720615
10667728305
10667739108
10667745822
10667753269
10667759250
10667764621
10667774265
10667779025
10667786777
10667797580
10667804843
10667812167
10667818576
10667826022
10667832004
10667839877
10667848849
10667855746
10667862399
10667870212
10667876681
10667885348
10667889804
10667899508
10667907199
10667914462
10667922091
10667929721
10667938449
10667945773
10667954501
10667961093
10667970736
10667978915
10667984286
10667992892
10668000399
10668007785
10668014926
10668020968
10668028842
10668037020
10668044589
10668051425
10668059725
10668068026
10668076022
10668085360
10668092989
10668099398
10668109347
10668116610
10668123995
10668131380
10668137850
10668145480
10668152376
10668160311
10668168734
10668174105
10668182162
10668190645
10668200228
10668207552
10668214510
10668222078
10668228304
10668236361
10668242403
10668252291
10668259310
10668267855
10668275423
10668282198
10668289095
10668295748
10668302400
10668311373
10668316378
10668325350
10668333345
10668341280
10668348909
10668355989
10668363130
10668370027
10668375154
10668384432
10668391451
10668399080
10668406587
10668413118
10668422334
10668428316
10668438264
10668445344
10668453279
10668459627
10668467927
10668475801
10668482332
10668491243
10668498384
10668506135
10668513643
10668520784
10668527864
10668535005
10668542451
10668551118
10668559480
10668567292
10668573457
10668580537
10668586702
10668593965
10668601777
10668611054
10668617280
10668624421
10668632783
10668638276
10668646272
10668654450
10668660432
10668670381
10668678803
10668686616
10668693086
10668700166
10668707185
10668716340
10668723664
10668731721
10668739106
10668746735
10668753876
10668760712
10668768159
10668774750
10668781891
10668790070
10668798249
10668806061
10668813691
10668820710
10668828217
10668835114
10668842377
10668852692
10668859406
10668867951
10668875336
10668883637
10668889313
10668897187
10668904572
10668910980
10668918183
10668926056
10668931488
10668941376
10668949494
10668955597
10668964203
10668971771
10668980438
10668986664
10668992706
10669001068
10669008148
10669014923
10669023346
10669031769
10669040497
10669047333
10669054413
10669060760
10669065582
10669076080
10669082733
10669089813
10669098541
10669105926
10669112030
10669118438
10669126495
10669134124
10669143341
10669150909
10669159027
10669166412
10669173614
10669180877
10669190094
10669196319
10669205780
10669213409
10669219696
10669227447
10669233795
10669242950
10669252899
10669261138
10669268585
10669275115
10669282317
10669289947
10669295318
10669302886
10669311614
10669318084
10669326446
10669334930
10669341338
10669347320
10669355681
10669361480
10669371062
10669379424
10669386687
10669393218
10669397857
10669403838
10669411590
10669422210
10669428801
10669436492
10669442229
10669451629
10669457915
10669466094
10669473540
10669481475
10669489592
10669496916
10669503752
10669512908
10669519866
10669527190
10669534270
10669542510
10669549529
10669557219
10669563994
10669571684
10669579985
10669586089
10669591765
10669600981
10669608305
10669615935
10669622282
10669630156
10669635832
10669644194
10669649992
10669656340
10669667082
10669672941
10669678679
10669686430
10669694487
10669699736
10669707670
10669716581
10669723723
10669728605
10669736967
10669742582
10669751982
10669759977
10669765593
10669773710
10669782133
10669788420
10669794157
10669803373
10669809721
10669817472
10669823759
10669832426
10669840910
10669848783
10669855192
10669862333
10669868620
10669876981
10669885648
10669892301
10669898954
10669906828
10669913114
10669920499
10669925993
10669935575
10669941129
10669952054
10669959135
10669967008
10669973295
10669981168
10669987333
10669993986
10670000028
10670010221
10670016752
10670023282
10670031400
10670038602
10670044950
10670051908
10670057584
10670069547
10670076810
10670084195
10670090421
10670097379
10670103177
10670110623
10670118314
10670126737
10670133512
10670142117
10670147855
10670156033
10670161832
10670168790
10670176663
10670186429
10670192227
10670201749
10670207852
10670214810
10670222317
10670227689
10670234952
10670245145
10670252774
10670260098
10670267239
10670274258
10670281705
10670289883
10670298428
10670304715
10670314663
10670320767
10670328274
10670337429
10670345791
10670353299
10670360684
10670368435
10670375576
10670380276
10670389920
10670394741
10670404873
10670409817
10670419705
10670427517
10670433621
10670440640
10670446743
10670452969
10670460781
10670468227
10670478542
10670483364
10670492397
10670499538
10670505581
10670512966
10670519680
10670527004
10670535366
10670543423
10670550564
10670558010
10670565334
10670569973
10670577419
10670586513
10670594143
10670602566
10670609829
10670615139
10670624355
10670633388
10670637233
10670646877
10670655727
10670663173
10670668422
10670677150
10670683498
10670691188
10670698268
10670706508
10670713222
10670720485
10670726772
10670735744
10670742030
10670749782
10670757411
10670765407
10670772304
10670779933
10670786220
10670794337
10670800807
10670807887
10670814113
10670824367
10670844508
10670850734
10670858974
10670867152
10670877101
10670885035
10670892604
10670898829
10670907252
10670915065
10670923121
10670930201
10670938868
10670949000
10670955592
10670964076
10670970423
10670979090
10670987818
10670996119
10671006800
10671012904
10671020777
10671029566
10671037074
10671044154
10671050318
10671060145
10671069788
10671077906
10671083155
10671092005
10671097803
10671106226
10671112391
10671121363
10671127467
10671136500
10671144984
10671152247
10671160670
10671168116
10671175806
10671182459
10671190577
10671199244
10671204554
10671214197
10671219568
10671228968
10671233973
10671243311
10671250635
10671257959
10671265039
10671272608
10671278772
10671287195
10671295984
10671301172
10671310877
10671320764
10671327966
10671332971
10671340662
10671348169
10671355493
10671362756
10671369226
10671377588
10671384424
10671391870
10671402246
10671408105
10671418848
10671425500
10671435937
10671448999
10671457483
10671465478
10671476037
10671482629
10671494409
10671503869
10671508447
10671521264
10671531030
10671542321
10671549707
10671561181
10671571374
10671579248
10671590417
10671599389
10671610620
10671618798
10671631249
10671638513
10671647057
10671659448
10671670495
10671678552
10671685754
10671697533
10671703698
10671717675
10671730675
10671738976
10671747887
10671755089
10671767357
10671773644
10671785119
10671795189
10671804039
10671817772
10671825585
10671833519
10671845604
10671854210
10671864403
10671871483
10671885094
10671894310
10671906273
10671919945
10671931603
10671940575
10671953880
10671963097
10671969688
10671982201
10671992271
10672002586
10672013145
10672025658
10672035728
10672042686
10672054100
10672062950
10672071617
10672082969
10672090721
10672103294
10672114952
10672123253
10672133018
10672144920
10672154441
10672161827
10672170677
10672184288
10672192344
10672201316
10672213645
10672222923
10672231468
10672241599
10672252586
10672260276
10672271079
10672284385
10672294151
10672302451
10672313071
10672319968
10672331077
10672341147
10672348655
10672358359
10672364219
10672373191
10672380454
10672386680
10672393088
10672399497
10672405600
10672412436
10672418784
10672426902
10672433066
10672441062
10672446860
10672454734
10672460105
10672469931
10672476950
10672488364
10672498374
10672504782
10672511618
10672520224
10672527426
10672534079
10672542807
10672550681
10672559958
10672568259
10672577658
10672584067
10672592307
10672597861
10672605612
10672613974
10672622153
10672630087
10672638266
10672642416
10672649924
10672658774
10672664877
10672672140
10672678488
10672687277
10672695334
10672702536
10672710043
10672717611
10672725912
10672732077
10672741720
10672749655
10672758017
10672765951
10672771261
10672779135
10672784811
10672792135
10672797506
10672806478
10672813375
10672823141
10672833212
10672841085
10672846822
10672856771
10672863912
10672870504
10672880209
10672889242
10672897359
10672903158
10672912435
10672921346
10672928060
10672936605
10672943319
10672952596
10672959859
10672970418
10672977071
10672982564
10672989766
10672997274
10673003804
10673010518
10673016744
10673022664
10673032308
10673038594
10673045491
10673050374
10673056111
10673062825
10673068135
10673073873
10673080220
10673085408
10673090352
10673096700
10673102071
10673107076
10673111775
10673117085
10673121236
10673129170
10673133260
10673139485
10673144063
10673150899
10673155110
10673161275
10673165547
10673171956
10673178426
10673183858
10673188741
10673193928
10673198628
10673203938
10673208333
10673213338
10673220906
10673225972
10673231099
10673235676
10673242634
10673246968
10673250813
10673258076
10673266316
10673270649
10673274556
10673281331
10673286702
10673292439
10673296834
10673303242
10673308918
10673314534
10673320210
10673325947
10673332783
10673337727
10673343037
10673349873
10673357624
10673363484
10673368244
10673373310
10673378254
10673383747
10673389240
10673395649
10673400898
10673408833
10673417439
10673422444
10673429279
10673436848
10673442219
10673449482
10673456562
10673468769
10673474140
10673482563
10673490498
10673496540
10673501728
10673510456
10673514973
10673527363
10673538288
10673544636
10673553242
10673561970
10673568622
10673575397
10673584552
10673591449
10673599079
10673606342
10673617206
10673623615
10673630024
10673637592
10673642170
10673649921
10673656757
10673664630
10673671039
10673676898
10673684589
10673689472
10673698932
10673705646
10673711994
10673717975
10673726032
10673732807
10673740985
10673747516
10673752460
10673759784
10673765887
10673771381
10673779864
10673789264
10673797259
10673803241
10673813373
10673819110
10673829608
10673837726
10673844501
10673854327
10673861468
10673870868
10673877032
10673885821
10673893084
10673900042
10673909747
10673916949
10673926837
10673933001
10673940875
10673950762
10673957232
10673964740
10673973712
10673980731
10673988421
10673994403
10674003436
10674011187
10674020342
10674026202
10674034441
10674040789
10674047137
10674055254
10674060748
10674070208
10674074786
10674085528
10674093829
10674100237
10674108416
10674113604
10674122332
10674128985
10674134783
10674142290
10674147845
10674159380
10674164507
10674170427
10674179583
10674188006
10674194902
10674202837
10674208330
10674217730
10674225237
10674233904
10674239824
10674245317
10674255083
10674264971
10674270403
10674278398
10674286272
10674294451
10674306597
10674314043
10674321123
10674328508
10674333757
10674339250
10674348344
10674356462
10674364214
10674369646
10674379289
10674384660
10674390337
10674399797
10674405962
10674414628
10674423845
10674429826
10674437578
10674447404
10674453386
10674460039
10674469194
10674474809
10674483720
10674490861
10674499223
10674504899
10674510637
10674518388
10674524736
10674529496
10674535356
10674541032
10674544572
10674550859
10674555986
10674564469
10674570329
10674574540
10674579362
10674584977
10674589189
10674593644
10674599809
10674607072
10674611955
10674617936
10674622147
10674627702
10674632340
10674637772
10674644364
10674652787
10674658524
10674664018
10674669083
10674674516
10674680680
10674685258
10674691666
10674695817
10674703995
10674709672
10674715226
10674720414
10674726700
10674731278
10674737260
10674744279
10674750748
10674755631
10674761429
10674767472
10674773758
10674780167
10674787003
10674794083
10674798844
10674809281
10674814408
10674821061
10674827408
10674835953
10674842728
10674849259
10674855484
10674865921
10674875321
10674879654
10674889054
10674898819
10674905838
10674914078
10674923416
10674930924
10674939713
10674947098
10674955704
10674961380
10674970963
10674977127
10674983231
10674989944
10674997452
10675004471
10675011063
10675021438
10675028885
10675037063
10675043533
10675050186
10675057205
10675063675
10675069839
10675079971
10675086990
10675093582
10675102920
10675108169
10675117385
10675125076
10675131240
10675140945
10675148086
10675159805
10675171218
10675178848
10675185317
10675192031
10675199905
10675205398
10675218765
10675224746
10675234329
10675239822
10675249221
10675257949
10675265090
10675269241
10675276199
10675284377
10675289748
10675293838
10675300918
10675305068
10675310866
10675316115
10675321792
10675326003
10675331679
10675337356
10675342116
10675347610
10675353469
10675358291
10675364394
10675369460
10675375625
10675380385
10675386672
10675391066
10675396499
10675402297
10675406203
10675411818
10675417617
10675424025
10675430007
10675434340
10675439589
10675445082
10675450515
10675455641
10675459853
10675468093
10675474562
10675480178
10675484816
10675490920
10675496413
10675502394
10675507948
10675514540
10675520155
10675526686
10675531691
10675536879
10675543288
10675548415
10675552138
10675558485
10675565199
10675572401
10675576918
10675583083
10675589918
10675594557
10675599623
10675606276
10675609389
10675616713
10675621596
10675628248
10675633070
10675638930
10675644728
10675649244
10675655043
10675661268
10675667860
10675674025
10675678724
10675684156
10675689894
10675694532
10675701063
10675705641
10675713453
10675718885
10675724745
10675729933
10675735426
10675741102
10675746962
10675752760
10675760267
10675767591
10675771559
10675778089
10675783277
10675790357
10675797010
10675801161
10675809828
10675816602
10675823316
10675826795
10675833387
10675840406
10675847303
10675851026
10675857984
10675864149
10675868177
10675874952
10675879224
10675885389
10675889905
10675894483
10675898267
10675906873
10675911695
10675917066
10675921216
10675926710
10675932264
10675936292
10675942274
10675946912
10675953565
10675959119
10675964368
10675970289
10675975232
10675979932
10675986036
10675991102
10675997571
10676002637
10676008069
10676012281
10676017835
10676023572
10676027661
10676032849
10676039685
10676046216
10676050428
10676056104
10676062329
10676068677
10676074536
10676078870
10676084363
10676091077
10676096509
10676102185
10676107434
10676114575
10676119092
10676125195
10676130994
10676135144
10676143140
10676149182
10676154980
10676160291
10676165234
10676169873
10676176160
10676183606
10676189038
10676195691
10676201672
10676206677
10676212659
10676217847
10676222912
10676228284
10676232922
10676239880
10676246960
10676251050
10676258252
10676263012
10676269604
10676273205
10676280285
10676285962
10676291882
10676297253
10676301037
10676309033
10676313000
10676318310
10676324231
10676330517
10676337475
10676343823
10676349133
10676356457
10676363110
10676370739
10676376843
10676387036
10676392834
10676403393
10676409496
10676421276
10676430248
10676437817
10676445995
10676449535
10676459667
10676470104
10676478222
10676484569
10676494945
10676502941
10676510204
10676517956
10676523205
10676531811
10676538708
10676545116
10676552868
10676560619
10676567943
10676575817
10676582409
10676588146
10676595470
10676599865
10676611400
10676618785
10676623973
10676631053
10676638988
10676644176
10676651683
10676656871
10676665172
10676674999
10676681041
10676688609
10676695445
10676702648
10676708873
10676717601
10676723338
10676731212
10676738048
10676746654
10676754283
10676759776
10676768382
10676772960
10676780833
10676788768
10676794627
10676801158
10676808909
10676817210
10676824657
10676832713
10676838634
10676845592
10676852061
10676858592
10676866649
10676873179
10676878245
10676888621
10676896128
10676899546
10676909251
10676917491
10676923106
10676930125
10676937449
10676943858
10676950755
10676959422
10676968516
10676973643
10676980845
10676988780
10676995555
10677001902
10677007823
10677015757
10677023386
10677031382
10677036326
10677045237
10677052012
10677059580
10677066904
10677073069
10677079478
10677086924
10677096384
10677102244
10677111277
10677116160
10677124644
10677130991
10677139109
10677147043
10677151682
10677161142
10677171091
10677177439
10677185740
10677193308
10677198984
10677206064
10677215158
10677222238
10677227671
10677234323
10677244516
10677251352
10677260385
10677266001
10677273264
10677280771
10677289316
10677296762
10677306650
10677312326
10677319528
10677326059
10677333322
10677340097
10677349558
10677356210
10677364694
10677370248
10677378793
10677386301
10677393930
10677399545
10677405099
10677413217
10677420663
10677427316
10677437143
10677443002
10677450204
10677456491
10677462838
10677470956
10677477731
10677482370
10677489755
10677496225
10677505990
10677513436
10677518441
10677525094
10677533334
10677540414
10677547921
10677554452
10677561044
10677568429
10677576608
10677581979
10677590341
10677597177
10677602364
10677609872
10677618295
10677624703
10677632516
10677639962
10677646981
10677653268
10677660104
10677668160
10677675362
10677679696
10677688729
10677694894
10677703927
10677711678
10677716805
10677725350
10677732125
10677738350
10677744820
10677750924
10677757943
10677765389
10677773812
10677780770
10677786812
10677795906
10677801888
10677809517
10677813729
10677822152
10677828438
10677836983
10677844429
10677850472
10677856636
10677864815
10677872872
10677879952
10677884957
10677892159
10677898873
10677909432
10677917610
10677924019
10677930367
10677937813
10677945503
10677952644
10677958931
10677965523
10677974129
10677982490
10677990181
10677995491
10678003303
10678011543
10678019234
10678024788
10678031257
10678039802
10678047737
10678056587
10678066292
10678074775
10678080452
10678086921
10678097664
10678104621
10678117988
10678125129
10678133613
10678141670
10678157783
10678163215
10678174812
10678183540
10678191841
10678199836
10678209663
10678217353
10678226691
10678236518
10678245429
10678249641
10678260139
10678269660
10678276801
10678282783
10678295539
10678304145
10678310248
10678316779
10678322577
10678330695
10678335639
10678343879
10678350470
10678357489
10678366645
10678374762
10678379950
10678387336
10678393134
10678402716
10678408515
10678414740
10678422126
10678429084
10678437812
10678443732
10678451361
10678459601
10678465888
10678473212
10678476325
10678486090
10678497138
10678503851
10678513129
10678519476
10678527716
10678533820
10678543829
10678551459
10678562445
10678572882
10678580572
10678589911
10678597174
10678604986
10678612616
10678622198
10678631598
10678638678
10678644598
10678655218
10678660711
10678669195
10678676886
10678682684
10678690313
10678697088
10678703619
10678712835
10678718756
10678728704
10678734869
10678740057
10678748968
10678757086
10678763983
10678769415
10678778692
10678783697
10678792852
10678801519
10678809576
10678815740
10678821233
10678828802
10678835088
10678843267
10678849004
10678856451
10678865667
10678870367
10678876714
10678885564
10678891546
10678900457
10678907720
10678914312
10678920537
10678927312
10678935552
10678941533
10678948797
10678955694
10678961431
10678969671
10678974981
10678983403
10678989751
10678996953
10679006414
10679015386
10679025701
10679031926
10679044499
10679054265
10679061833
10679071721
10679078252
10679084599
10679094975
10679101628
10679111638
10679117497
10679125981
10679135014
10679150700
10679159856
10679167851
10679175297
10679182561
10679192570
10679203129
10679211857
10679217961
10679229802
10679235112
10679244511
10679251408
10679257939
10679266179
10679271489
10679276493
10679285832
10679293766
10679303715
10679310429
10679319035
10679324284
10679331852
10679337712
10679343327
10679351383
10679357670
10679366032
10679371159
10679379460
10679386540
10679391544
10679397831
10679405277
10679411503
10679418339
10679427067
10679433903
10679439091
10679447453
10679453190
10679460819
10679465763
10679473881
10679480228
10679489323
10679495548
10679501407
10679507694
10679515079
10679523502
10679530338
10679537174
10679544620
10679550297
10679558536
10679566532
10679572147
10679579105
10679587467
10679593753
10679600833
10679604190
10679614994
10679621646
10679629215
10679634769
10679642703
10679650333
10679656681
10679664615
10679669559
10679678775
10679686405
10679695010
10679702823
10679708621
10679717288
10679723453
10679730533
10679737796
10679744327
10679750613
10679757022
10679764651
10679774173
10679782779
10679791507
10679798221
10679807010
10679813113
10679822818
10679834170
10679841739
10679847537
10679857852
10679865298
10679872500
10679879947
10679888369
10679897036
10679905093
10679912478
10679927798
10679936221
10679942813
10679948977
10679958193
10679964358
10679972476
10679978579
10679990481
10679998843
10680008303
10680015871
10680022524
10680031252
10680036318
10680042910
10680049258
10680057131
10680062807
10680070071
10680074892
10680079226
10680086062
10680091372
10680095888
10680101809
10680107790
10680113405
10680118593
10680124087
10680129030
10680134524
10680138613
10680143618
10680152102
10680157961
10680162417
10680166994
10680172854
10680177065
10680183596
10680187807
10680193789
10680199709
10680203615
10680209841
10680215578
10680220278
10680225893
10680231935
10680235781
10680246034
10680249941
10680256716
10680261720
10680265810
10680275026
10680278810
10680284425
10680290773
10680296816
10680303102
10680309694
10680314638
10680320131
10680330141
10680334901
10680341371
10680348268
10680352418
10680363222
10680370119
10680374879
10680380067
10680387330
10680393007
10680399599
10680405214
10680410036
10680416749
10680420534
10680427308
10680431642
10680438478
10680444825
10680451234
10680455690
10680460634
10680466005
10680471742
10680476991
10680484193
10680489381
10680496583
10680501832
10680505616
10680511720
10680517457
10680523439
10680528077
10680534608
10680538148
10680546327
10680550111
10680556214
10680562318
10680569398
10680574159
10680581727
10680586854
10680594849
10680602296
10680608460
10680612916
10680619019
10680624757
10680628480
10680636109
10680641358
10680648804
10680654664
10680658570
10680664551
10680669007
10680675904
10680681092
10680687256
10680692139
10680697388
10680704041
10680709290
10680714295
10680719727
10680724671
10680730530
10680736634
10680740418
10680747071
10680750550
10680757386
10680762085
10680767395
10680771668
10680778443
10680785096
10680788941
10680794861
10680800721
10680805664
10680811280
10680817871
10680822571
10680828491
10680834778
10680840393
10680846192
10680851441
10680856507
10680862305
10680867188
10680874512
10680879700
10680883972
10680892029
10680896729
10680903137
10680909485
10680919800
10680926209
10680932678
10680937317
10680943481
10680949219
10680953918
10680959289
10680963135
10680967163
10680974304
10680979614
10680985718
10680990417
10680995056
10680999389
10681004638
10681009765
10681015747
10681021057
10681027038
10681031860
10681037292
10681043091
10681049743
10681054992
10681061584
10681067077
10681073974
10681079223
10681084777
10681090026
10681094299
10681100463
10681104797
10681113220
10681118469
10681123657
10681128417
10681134216
10681138854
10681144653
10681150878
10681158569
10681163757
10681173766
10681177856
10681184264
10681189208
10681195068
10681199828
10681207946
10681213805
10681220092
10681225890
10681230285
10681235595
10681241698
10681247741
10681254882
10681258544
10681264281
10681269591
10681273742
10681278808
10681284606
10681292235
10681297301
10681301391
10681308349
10681311706
10681316710
10681322082
10681327697
10681334350
10681338439
10681344909
10681350829
10681355224
10681361571
10681365538
10681371154
10681377379
10681383178
10681387206
10681393065
10681397521
10681401305
10681408141
10681415343
10681421996
10681426146
10681430968
10681437071
10681442382
10681446227
10681452880
10681458678
10681463378
10681468321
10681472960
10681477843
10681482298
10681488646
10681495055
10681499876
10681507262
10681512450
10681517088
10681522581
10681529478
10681534422
10681540709
10681546385
10681552977
10681556944
10681562376
10681570311
10681575804
10681580504
10681585020
10681590758
10681596739
10681600462
10681606627
10681611632
10681616148
10681622862
10681627745
10681632933
10681637694
10681646483
10681652220
10681658873
10681663145
10681669859
10681678465
10681686949
10681695799
10681706480
10681712217
10681717955
10681726683
10681736570
10681745176
10681750364
10681761289
10681766355
10681779051
10681787656
10681794614
10681801389
10681808225
10681815611
10681823789
10681829588
10681836973
10681846189
10681853635
10681858884
10681866453
10681874998
10681881467
10681888364
10681893552
10681901304
10681907651
10681917295
10681923276
10681931760
10681936033
10681944455
10681952390
10681957761
10681965757
10681972776
10681980283
10681994931
10682004331
10682012143
10682021421
10682031064
10682039060
10682047788
10682054318
10682060300
10682066831
10682074094
10682079343
10682084470
10682088986
10682093869
10682099057
10682104550
10682109128
10682113705
10682118222
10682123044
10682127560
10682132016
10682136288
10682141659
10682145200
10682152035
10682156857
10682161374
10682166073
10682171139
10682177304
10682183346
10682188779
10682194455
10682202023
10682206112
10682211789
10682218136
10682223691
10682229611
10682236935
10682241696
10682247250
10682252804
10682258664
10682264462
10682270749
