10971147695
10971152760
10971157277
10971162770
10971168141
10971173085
10971178029
10971183522
10971188649
10971193349
10971199330
10971204518
10971209523
10971215321
10971220387
10971226613
10971233205
10971238759
10971244679
10971250355
10971255788
10971262196
10971268422
10971274281
10971280812
10971287587
10971293934
10971300587
10971305653
10971312916
10971320240
10971326893
10971333363
10971340016
10971347279
10971354725
10971361561
10971367543
10971377613
10971384816
10971391224
10971396412
10971402821
10971408619
10971414601
10971422596
10971429920
10971435414
10971443531
10971448841
10971455372
10971463062
10971467518
10971474354
10971481861
10971487721
10971495228
10971500660
10971506519
10971512867
10971525379
10971532947
10971539600
10971547108
10971555042
10971562244
10971571155
10971579334
10971586109
10971591053
10971598987
10971603748
10971610950
10971617969
10971625049
10971630237
10971637256
10971642505
10971649219
10971654407
10971661731
10971666919
10971673389
10971678638
10971685718
10971690906
10971699268
10971703113
10971711414
10971717395
10971724658
10971728382
10971737903
10971741626
10971750476
10971754199
10971762256
10971770435
10971776599
10971782642
10971788928
10971794605
10971800830
10971806018
10971812549
10971819873
10971826221
10971832446
10971838855
10971845447
10971850268
10971857715
10971864673
10971870776
10971876941
10971883349
10971890185
10971896533
10971901294
10971908008
10971915088
10971921435
10971928271
10971935290
10971940722
10971947802
10971953112
10971960131
10971967639
10971975390
10971980517
10971986682
10971993273
10971998461
10972006335
10972012927
10972019824
10972026721
10972032641
10972039660
10972045702
10972052660
10972059252
10972065234
10972072558
10972077807
10972084887
10972090136
10972097887
10972103930
10972109301
10972115527
10972123949
10972130907
10972138232
10972142504
10972151415
10972159838
10972165880
10972177965
10972184130
10972193407
10972197985
10972206347
10972213671
10972220507
10972227648
10972234057
10972240404
10972247301
10972253283
10972259996
10972265612
10972272814
10972280504
10972286364
10972294176
10972299913
10972306383
10972314012
10972320909
10972327318
10972334093
10972341661
10972348253
10972354051
10972361986
10972367662
10972374742
10972380541
10972388902
10972394090
10972401414
10972408861
10972415330
10972420763
10972428758
10972436571
10972442735
10972448411
10972457994
10972464281
10972473314
10972479600
10972488695
10972494981
10972502855
10972508653
10972516404
10972523973
10972529466
10972537584
10972545274
10972552781
10972557298
10972566697
10972571092
10972580430
10972586900
10972595262
10972601670
10972609727
10972616136
10972624925
10972631516
10972638841
10972645066
10972653489
10972659776
10972666673
10972674973
10972683152
10972691941
10972699448
10972705735
10972713609
10972721787
10972728684
10972737351
10972746506
10972752793
10972757554
10972768235
10972773240
10972782883
10972790879
10972798691
10972805771
10972813096
10972821946
10972828843
10972835068
10972844101
10972850449
10972858445
10972867295
10972879624
10972886887
10972896469
10972904404
10972912949
10972920517
10972929306
10972937363
10972946884
10972958115
10972965378
10972971848
10972979782
10972988266
10972995651
10973002182
10973011154
10973019577
10973026779
10973033005
10973040024
10973049423
10973057480
10973065414
10973072067
10973079941
10973086593
10973094955
10973101364
10973108383
10973115158
10973123642
10973130172
10973139572
10973145858
10973151962
10973160263
10973166427
10973172287
10973181442
10973187118
10973194259
10973201889
10973208114
10973215682
10973223861
10973229843
10973237167
10973244796
10973251083
10973258651
10973263107
10973272567
10973277206
10973287643
10973295638
10973304061
10973309737
10973318954
10973325851
10973334884
10973341964
10973349044
10973357894
10973365462
10973371688
10973379134
10973387496
10973394393
10973402938
10973407882
10973418685
10973423690
10973433699
10973441207
10973449813
10973456832
10973465682
10973472518
10973480269
10973486495
10973495406
10973505293
10973512862
10973518904
10973528426
10973534712
10973543074
10973549361
10973557478
10973565840
10973570845
10973580306
10973587447
10973595137
10973601302
10973610152
10973616621
10973626326
10973632612
10973641463
10973650313
10973657759
10973664229
10973676375
10973686140
10973695967
10973703291
10973717207
10973724531
10973733931
10973742292
10973750471
10973756880
10973764387
10973772383
10973780012
10973786177
10973793745
10973798323
10973806745
10973813276
10973822370
10973829878
10973837690
10973842329
10973851240
10973857832
10973865705
10973872236
10973880354
10973887373
10973896894
10973903364
10973910566
10973916242
10973924238
10973932538
10973938093
10973945722
10973953962
10973959577
10973967267
10973974897
10973981916
10973990400
10973996625
10974004377
10974012189
10974019696
10974026105
10974033551
10974041364
10974047101
10974055280
10974063336
10974068280
10974077252
10974081708
10974092145
10974099042
10974106915
10974113873
10974122357
10974128705
10974136823
10974145062
10974153302
10974159711
10974168195
10974176740
10974184003
10974192181
10974199933
10974206403
10974215131
10974221417
10974228375
10974237775
10974244733
10974252179
10974258404
10974267499
10974273907
10974282574
10974290875
10974297345
10974305768
10974314251
10974322735
10974329632
10974338055
10974342999
10974353009
10974361065
10974367474
10974374432
10974382611
10974391644
10974397808
10974406841
10974412823
10974421124
10974428387
10974436810
10974443524
10974452068
10974463909
10974473125
10974480572
10974487652
10974498638
10974505840
10974513409
10974522076
10974536907
10974543804
10974552105
10974558452
10974565594
10974570354
10974580242
10974588421
10974596050
10974600567
10974610027
10974614483
10974623699
10974630169
10974637676
10974644695
10974652446
10974658977
10974668071
10974674419
10974682292
10974688640
10974696636
10974703105
10974713359
10974719585
10974728191
10974734416
10974740337
10974751079
10974758220
10974763713
10974771281
10974779643
10974784465
10974794536
10974801738
10974809123
10974818095
10974823772
10974833049
10974840983
10974847270
10974855998
10974864360
10974870524
10974878825
10974884746
10974894572
10974899882
10974910746
10974915873
10974924601
10974931559
10974939372
10974948344
10974955241
10974964152
10974970439
10974978800
10974986735
10974993205
10975002299
10975008647
10975013590
10975024333
10975045573
10975055888
10975064372
10975074137
10975083598
10975092326
10975098978
10975106791
10975114176
10975120585
10975126932
10975133463
10975141031
10975147806
10975155375
10975161783
10975168375
10975175089
10975181864
10975188578
10975196390
10975204508
10975211344
10975218119
10975225870
10975231607
10975240213
10975247904
10975254435
10975267862
10975274759
10975282938
10975290567
10975298746
10975306436
10975313638
10975321939
10975327188
10975335977
10975341409
10975348245
10975355875
10975363260
10975368509
10975376260
10975381448
10975388834
10975395792
10975402689
10975410379
10975417154
10975422891
10975430582
10975438882
10975445047
10975453226
10975458963
10975466531
10975473916
10975481790
10975488138
10975495706
10975503152
10975509012
10975517007
10975522805
10975530130
10975537210
10975544534
10975553384
10975557778
10975567727
10975574075
10975581155
10975587503
10975595376
10975604043
10975611489
10975617776
10975625283
10975631082
10975638650
10975644509
10975653054
10975660683
10975668374
10975674111
10975681557
10975689248
10975695657
10975703347
10975708230
10975718362
10975723672
10975733010
10975741433
10975747719
10975754677
10975763833
10975770852
10975778542
10975785744
10975793435
10975799843
10975808144
10975816445
10975824379
10975830727
10975839272
10975847756
10975857338
10975865456
10975873024
10975879494
10975887978
10975894325
10975901711
10975911537
10975918556
10975927223
10975934181
10975941994
10975949074
10975956154
10975962441
10975972084
10975978554
10975988136
10975997536
10976000954
10976013710
10976019264
10976029457
10976034645
10976045875
10976051552
10976061317
10976066017
10976076698
10976081337
10976089882
10976096229
10976105507
10976114906
10976120765
10976127967
10976135841
10976143104
10976150550
10976156837
10976163124
10976172035
10976179664
10976186134
10976193702
10976199439
10976206581
10976214332
10976221412
10976229163
10976236121
10976243568
10976251197
10976256873
10976265723
10976271583
10976279761
10976288123
10976295570
10976301429
10976309424
10976317237
10976322364
10976331641
10976339454
10976345252
10976351905
10976360511
10976366797
10976375770
10976382789
10976391150
10976398352
10976406531
10976416053
10976423377
10976429541
10976437476
10976445777
10976454261
10976460547
10976467505
10976475867
10976484961
10976491248
10976496253
10976507666
10976512549
10976522070
10976528967
10976536475
10976546668
10976553320
10976562476
10976570349
10976576758
10976584082
10976592505
10976598852
10976607458
10976612402
10976621863
10976628882
10976638769
10976643713
10976653662
10976660742
10976668249
10976675207
10976685644
10976691992
10976699316
10976707739
10976714392
10976722815
10976727758
10976737829
10976747778
10976754187
10976763342
10976769384
10976777136
10976785253
10976793188
10976800878
10976811010
10976823278
10976833837
10976840368
10976849401
10976855749
10976865270
10976871130
10976879613
10976887304
10976893346
10976900976
10976905492
10976915563
10976920324
10976928930
10976935460
10976943273
10976949621
10976958166
10976964513
10976972020
10976980382
10976986730
10976995153
10977001989
10977007726
10977015966
10977023534
10977031041
10977036779
10977044530
10977052281
10977054784
10977065587
10977073705
10977079869
10977088353
10977094701
10977101781
10977109776
10977120091
10977127538
10977134007
10977143163
10977149388
10977158238
10977164769
10977173741
10977180028
10977184911
10977196568
10977201634
10977210850
10977217992
10977225438
10977234471
10977240758
10977247349
10977257664
10977263951
10977271702
10977280064
10977287693
10977294285
10977303441
10977309788
10977320225
10977326573
10977331456
10977342076
10977349339
10977357090
10977366062
10977372349
10977382664
10977389439
10977398533
10977404392
10977412876
10977420017
10977428501
10977435459
10977444553
10977454197
10977460667
10977465672
10977476292
10977481113
10977491611
10977496494
10977506626
10977511814
10977522800
10977527744
10977536899
10977543857
10977553745
10977558689
10977570408
10977579075
10977588047
10977591526
10977605075
10977614231
10977621128
10977626743
10977638340
10977647007
10977655551
10977662754
10977671482
10977675937
10977685703
10977692233
10977699863
10977706272
10977713535
10977721896
10977729648
10977736057
10977742648
10977748447
10977757480
10977763583
10977771457
10977779208
10977785678
10977793185
10977800632
10977808261
10977815829
10977824435
10977832248
10977840976
10977848300
10977854831
10977862826
10977870273
10977877231
10977886142
10977893954
10977902133
10977909213
10977916049
10977924594
10977931552
10977939913
10977947543
10977955966
10977964266
10977970492
10977975375
10977986727
10977991549
10978002230
10978007479
10978017062
10978023715
10978033480
10978039645
10978047640
10978056002
10978063143
10978071322
10978077914
10978086336
10978091341
10978101351
10978106356
10978117403
10978122408
10978131441
10978137789
10978146700
10978155977
10978163363
10978169588
10978177828
10978186068
10978193209
10978201571
10978208040
10978216402
10978221651
10978232576
10978237459
10978246248
10978253511
10978261690
10978267977
10978277132
10978283479
10978292085
10978300325
10978307344
10978315706
10978321504
10978330904
10978339693
10978346162
10978357149
10978365816
10978372896
10978381319
10978387727
10978396089
10978401277
10978414888
10978425630
10978435151
10978444124
10978451204
10978461030
10978468232
10978477083
10978483613
10978493196
10978501741
10978506623
10978515107
10978522370
10978530793
10978537751
10978547151
10978554475
10978561921
10978567903
10978576997
10978583589
10978592622
10978601045
10978607026
10978615632
10978624299
10978632783
10978640412
10978648774
10978653840
10978664094
10978671296
10978679414
10978686677
10978694062
10978700288
10978708649
10978717316
10978725495
10978732026
10978740143
10978748505
10978753449
10978763764
10978768952
10978779023
10978786042
10978793305
10978802521
10978808380
10978817536
10978824799
10978831208
10978839447
10978848419
10978854462
10978863129
10978871857
10978878327
10978885529
10978893280
10978900360
10978909638
10978916840
10978925140
10978931793
10978939789
10978965424
10978974029
10978980804
10978989838
10978998138
10979003021
10979013641
10979023529
10979031891
10979040741
10979047882
10979057708
10979064483
10979069427
10979080413
10979088897
10979095672
10979102935
10979112335
10979119415
10979127471
10979134002
10979142425
10979151397
10979159576
10979167877
10979176055
10979182342
10979190643
10979199066
10979205779
10979214202
10979222564
10979228851
10979236358
10979244659
10979254974
10979263396
10979271209
10979279998
10979286834
10979298064
10979305083
10979313079
10979321319
10979328155
10979333892
10979341399
10979349212
10979357146
10979362822
10979371245
10979379058
10979385955
10979391631
10979396087
10979408110
10979415557
10979421233
10979425811
10979436003
10979440459
10979450713
10979455474
10979464507
10979470671
10979478362
10979484953
10979495024
10979499419
10979508452
10979514922
10979522551
10979529387
10979537322
10979545744
10979551787
10979560088
10979566801
10979572600
10979581450
10979589995
10979595915
10979604216
10979609892
10979617705
10979625212
10979632902
10979640288
10979646818
10979656401
10979662809
10979667997
10979678556
10979683439
10979694670
10979699675
10979709440
10979716520
10979724882
10979731291
10979740751
10979747099
10979755644
10979761808
10979769865
10979778349
10979786649
10979792936
10979797880
10979809416
10979817350
10979824491
10979831510
10979840788
10979847807
10979855070
10979864103
10979871915
10979878141
10979886686
10979892972
10979902067
10979910734
10979919156
10979925382
10979934537
10979940580
10979949796
10979955777
10979963712
10979972257
10979980741
10979987577
10979995572
10980003995
10980009183
10980019559
10980024930
10980036100
10980044034
10980052457
10980064786
10980073331
10980082852
10980090543
10980100247
10980106717
10980115933
10980124417
10980127347
10980138516
10980143399
10980154141
10980161649
10980168423
10980177701
10980185574
10980191861
10980199002
10980207486
10980216031
10980222500
10980227688
10980238186
10980247159
10980253567
10980260647
10980268948
10980275967
10980283780
10980292935
10980300808
10980307156
10980315640
10980321743
10980330288
10980338589
10980345425
10980353970
10980362026
10980368618
10980377346
10980383755
10980390957
10980398769
10980407864
10980413967
10980423000
10980430813
10980437222
10980445339
10980453579
10980460781
10980469082
10980475613
10980484035
10980492946
10980499904
10980508205
10980516323
10980523708
10980532680
10980540554
10980548916
10980556667
10980564602
10980571499
10980579067
10980587368
10980594814
10980603420
10980606227
10980618007
10980626552
10980633022
10980640468
10980648830
10980655971
10980664211
10980671352
10980678798
10980687892
10980694972
10980705287
10980713832
10980720180
10980727199
10980735866
10980744044
10980750575
10980758510
10980766994
10980771815
10980780849
10980787868
10980797023
10980803981
10980810939
10980820277
10980827785
10980834193
10980842616
10980850917
10980858668
10980868129
10980874781
10980883509
10980891505
10980901393
10980909266
10980917628
10980922694
10980931971
10980938624
10980947169
10980953517
10980960719
10980969813
10980976466
10980984644
10980991969
10980997828
10981005579
10981011378
10981020716
10981026576
10981034510
10981042933
10981049586
10981057520
10981064539
10981072230
10981078882
10981086756
10981094752
10981100489
10981105005
10981114954
10981119410
10981129481
10981136500
10981143641
10981154017
10981160547
10981167383
10981177637
10981182703
10981193323
10981198816
10981209986
10981217981
10981224207
10981231165
10981239282
10981248438
10981255091
10981261316
10981270288
10981276941
10981286524
10981294824
10981302210
10981310632
10981317163
10981325586
10981330408
10981341089
10981346155
10981356653
10981363550
10981372644
10981379663
10981387598
10981393945
10981402429
10981411828
10981419336
10981428552
10981434472
10981442956
10981451379
10981457849
10981466760
10981473352
10981483056
10981489221
10981497949
10981503991
10981512475
10981520532
10981528527
10981534936
10981540795
10981551660
10981560327
10981566735
10981571679
10981582421
10981587426
10981597802
10981607446
10981613854
10981618920
10981629296
10981636620
10981642907
10981650170
10981660241
10981675011
10981682152
10981689599
10981696557
10981705285
10981714867
10981724511
10981731652
10981740990
10981747338
10981752221
10981764245
10981769188
10981779503
10981787011
10981792809
10981799462
10981807030
10981815392
10981822594
10981828270
10981835839
10981844200
10981851036
10981857201
10981865441
10981873131
10981881004
10981886681
10981895287
10981901695
10981910729
10981917198
10981926598
10981933006
10981939964
10981948509
10981955528
10981964622
10981971519
10981978905
10981988060
10981995323
10982001549
10982010948
10982019188
10982027122
10982037559
10982044822
10982053306
10982060936
10982069358
10982077293
10982083580
10982088523
10982099754
10982107749
10982115135
10982122886
10982131248
10982138023
10982145591
10982155113
10982162986
10982170188
10982177268
10982183677
10982194114
10982200401
10982209434
10982215904
10982224448
10982230796
10982239036
10982247398
10982252341
10982262656
10982270957
10982281028
10982288108
10982296104
10982302390
10982310630
10982319358
10982326865
10982333152
10982341819
10982350303
10982355185
10982364768
10982372702
10982380515
10982387778
10982397788
10982402671
10982411765
10982418845
10982427390
10982433737
10982442832
10982449362
10982459433
10982465659
10982475363
10982482871
10982488181
10982500571
10982506125
10982517050
10982524924
10982534201
10982542441
10982550803
10982557333
10982567221
10982573569
10982582114
10982587973
10982596213
10982603842
10982611349
10982618979
10982625387
10982633322
10982640402
10982648275
10982655294
10982662863
10982667379
10982675741
10982682028
10982690512
10982697409
10982706137
10982713278
10982722067
10982729086
10982736471
10982745565
10982752340
10982761434
10982767477
10982776693
10982784567
10982790975
10982797872
10982806478
10982815145
10982821554
10982830465
10982837118
10982844320
10982853597
10982860738
10982873495
10982878316
10982888814
10982895711
10982903402
10982910787
10982920919
10982927572
10982935018
10982940999
10982947713
10982955587
10982962484
10982970357
10982978597
10982984517
10982992635
10982998494
10983006246
10983011922
10983018209
10983026692
10983034383
10983043355
10983049642
10983057393
10983063741
10983071492
10983079915
10983086018
10983092549
10983101888
10983108235
10983116475
10983122273
10983130574
10983136555
10983144856
10983150716
10983156331
10983168111
10983172749
10983180867
10983187215
10983195210
10983201741
10983208455
10983217610
10983224690
10983231099
10983239827
10983245625
10983253499
10983261311
10983271626
10983279805
10983291584
10983302693
10983312031
10983320942
10983328572
10983338581
10983346943
10983354145
10983363423
10983369587
10983375202
10983383625
10983391499
10983398335
10983406269
10983414082
10983419941
10983427692
10983436115
10983444172
10983450581
10983455463
10983466144
10983474995
10983482807
10983489948
10983497150
10983503742
10983512104
10983521198
10983528217
10983535419
10983543903
10983552204
10983559711
10983568134
10983575397
10983581623
10983588764
10983597187
10983604694
10983613361
10983620258
10983628986
10983635517
10983643573
10983650104
10983658771
10983667804
10983675067
10983683429
10983691547
10983697772
10983706378
10983714984
10983720416
10983729633
10983737323
10983746234
10983755206
10983762775
10983772174
10983780414
10983787555
10983795367
10983802997
10983811786
10983819659
10983825946
10983833514
10983842120
10983848407
10983856891
10983863238
10983872149
10983878436
10983887591
10983894122
10983901019
10983910845
10983915789
10983924639
10983933673
10983939593
10983948687
10983955035
10983964190
10983972003
10983978228
10983986834
10983995196
10984003436
10984011736
10984018633
10984026873
10984033404
10984041888
10984046954
10984056292
10984064959
10984073443
10984078509
10984087359
10984094866
10984104082
10984111529
10984121843
10984128191
10984139727
10984148455
10984158159
10984163958
10984172503
10984176958
10984186418
10984195330
10984202898
10984207415
10984217485
10984221941
10984230852
10984237444
10984244768
10984253496
10984261125
10984267595
10984275224
10984281755
10984289934
10984295732
10984303484
10984309526
10984317400
10984324968
10984331621
10984339433
10984347673
10984353227
10984361650
10984369401
10984376481
10984384172
10984390153
10984397661
10984406144
10984412309
10984420488
10984428361
10984435380
10984443803
10984450761
10984458268
10984464433
10984474687
10984480851
10984488053
10984496293
10984505387
10984511735
10984520890
10984529313
10984536210
10984542497
10984550797
10984560136
10984568742
10984576615
10984585526
10984592545
10984597489
10984608353
10984616959
10984623612
10984631547
10984640641
10984646867
10984654801
10984661820
10984671769
10984678849
10984686600
10984692948
10984701615
10984707963
10984716507
10984724808
10984733231
10984739640
10984744584
10984755204
10984760453
10984770951
10984778153
10984785294
10984792496
10984802262
10984809342
10984817093
10984824173
10984832352
10984840897
10984848465
10984854996
10984863480
10984871964
10984876907
10984885941
10984901566
10984909073
10984918411
10984925369
10984934586
10984943741
10984952103
10984958572
10984966385
10984973953
10984981888
10984987808
10984995498
10985003555
10985011917
10985017776
10985026504
10985032242
10985040970
10985046890
10985054763
10985062515
10985067093
10985076492
10985084121
10985091751
10985096328
10985105239
10985111709
10985120254
10985126846
10985134170
10985140579
10985149307
10985155715
10985164260
10985170791
10985177566
10985186782
10985193740
10985200637
10985210647
10985217117
10985221999
10985232680
10985241286
10985247573
10985254653
10985262954
10985270034
10985278396
10985284621
10985294204
10985300734
10985310439
10985316665
10985324965
10985333510
10985341384
10985347731
10985352614
10985363967
10985368911
10985379348
10985384597
10985393691
10985401869
10985411513
10985418532
10985425917
10985432509
10985441847
10985448195
10985457350
10985464003
10985473097
10985479323
10985488295
10985494765
10985501784
10985510695
10985517714
10985525282
10985534804
10985540846
10985550001
10985556227
10985564711
10985572218
10985580824
10985587843
10985596327
10985604933
10985611097
10985616102
10985626661
10985633864
10985641615
10985648817
10985657667
10985664259
10985674696
10985681593
10985688795
10985695753
10985705763
10985712721
10985722547
10985731764
10985739698
10985748792
10985755995
10985767835
10985773817
10985782423
10985788587
10985797193
10985803968
10985809644
10985818983
10985824903
10985832655
10985840467
10985848157
10985853895
10985862134
10985869947
10985876356
10985884168
10985890149
10985897779
10985902234
10985912488
10985920118
10985927808
10985932447
10985941541
10985948011
10985956250
10985963330
10985970960
10985981397
10985988660
10985997876
10986004712
10986010938
10986019727
10986027967
10986035657
10986041944
10986051465
10986057691
10986066968
10986073254
10986080518
10986088940
10986096143
10986105054
10986112439
10986121472
10986128491
10986134778
10986143445
10986152112
10986158459
10986163342
10986174451
10986182629
10986189099
10986196057
10986205090
10986212292
10986220837
10986228039
10986236584
10986242932
10986250988
10986260083
10986267224
10986273510
10986281811
10986290234
10986297253
10986305920
10986315319
10986321667
10986329540
10986337719
10986345593
10986351696
10986359570
10986368176
10986376904
10986382946
10986391491
10986399670
10986405712
10986413830
10986422131
10986428661
10986438671
10986444775
10986453197
10986459362
10986467541
10986475719
10986484630
10986491039
10986500927
10986507885
10986516979
10986523754
10986533641
10986540477
10986548778
10986557750
10986566356
10986576183
10986583324
10986590160
10986599376
10986606334
10986612804
10986621959
10986628612
10986638744
10986644542
10986648998
10986659557
10986664989
10986673229
10986681529
10986689159
10986693919
10986703685
10986711314
10986717906
10986724925
10986733409
10986740611
10986748118
10986757152
10986764476
10986770885
10986779735
10986786021
10986794261
10986802684
10986807567
10986817149
10986825145
10986833079
10986840037
10986847606
10986853892
10986862986
10986869273
10986877146
10986885630
10986893321
10986901621
10986908396
10986916758
10986921702
10986932017
10986940257
10986948130
10986955515
10986962901
10986969187
10986977793
10986986826
10986994395
10987000803
10987009898
10987016245
10987024912
10987033457
10987040232
10987046641
10987053965
10987064219
10987071238
10987079600
10987087107
10987094980
10987101328
10987110483
10987116831
10987123850
10987132822
10987137949
10987148630
10987158396
10987164560
10987171823
10987180490
10987187448
10987196176
10987203440
10987211313
10987217478
10987227670
10987234079
10987241281
10987249826
10987257578
10987265878
10987272531
10987280893
10987289743
10987296274
10987303415
10987312753
10987320383
10987330026
10987337717
10987345468
10987356332
10987364511
10987377206
10987387887
10987396493
10987402780
10987411935
10987417917
10987425363
10987432870
10987437570
10987447641
10987452157
10987462167
10987469552
10987476754
10987483346
10987492318
10987499703
10987506478
10987512887
10987520883
10987527108
10987534127
10987542489
10987549874
10987555612
10987563241
10987569344
10987579049
10987585275
10987593453
10987601998
10987608895
10987617257
10987622079
10987633065
10987638314
10987648324
10987655282
10987662789
10987670540
10987679818
10987686654
10987693978
10987700387
10987709542
10987717965
10987724312
10987735238
10987743538
10987750130
10987754952
10987766732
10987773201
10987783028
10987789925
10987799385
10987806893
10987814827
10987821114
10987829781
10987836250
10987844795
10987853096
10987861763
10987868233
10987873299
10987884041
10987892647
10987900948
10987907722
10987916389
10987919685
10987931831
10987936836
10987948128
10987952888
10987963508
10987970527
10987977119
10987986213
10987993232
10987999641
10988009407
10988015937
10988025032
10988031440
10988036628
10988048225
10988053108
10988062812
10988070869
10988077766
10988085090
10988094367
10988101325
10988110114
10988117072
10988125129
10988131721
10988140754
10988151801
10988161994
10988169746
10988177619
10988187446
10988196174
10988203864
10988213142
10988219367
10988228461
10988236701
10988242866
10988251227
10988259406
10988267829
10988273078
10988283881
10988288703
10988299323
10988307868
10988314338
10988321357
10988329413
10988339240
10988345588
10988354743
10988361212
10988369635
10988376166
10988384589
10988391425
10988399848
10988407843
10988414313
10988421271
10988429633
10988436713
10988446539
10988453558
10988461615
10988468146
10988476202
10988485480
10988492743
10988499274
10988507696
10988516241
10988522223
10988530829
10988539740
10988548102
10988552923
10988561285
10988568304
10988578131
10988585333
10988593512
10988600592
10988608099
10988614386
10988623175
10988631842
10988641363
10988649725
10988658026
10988664617
10988669683
10988681158
10988686041
10988695989
10988703131
10988710943
10988718023
10988726019
10988735906
10988743597
10988750311
10988760015
10988766668
10988775579
10988782110
10988790716
10988799200
10988808294
10988814580
10988823247
10988831548
10988836736
10988844854
10988854070
10988861455
10988868719
10988877019
10988883428
10988891607
10988899907
10988907964
10988914495
10988923101
10988929631
10988938482
10988947148
10988952092
10988962712
10988969915
10988979192
10988986943
10988995488
10989002507
10989016728
10989022222
10989032597
10989040410
10989048406
10989054936
10989063603
10989072820
10989080266
10989086430
10989095403
10989103947
10989110966
10989117497
10989126836
10989138005
10989144597
10989153203
10989161748
10989167607
10989175236
10989183659
10989188786
10989197514
10989204533
10989213994
10989220890
10989228886
10989235112
10989243718
10989250248
10989259220
10989267521
10989276188
10989282536
10989290653
10989299259
10989305790
10989314396
10989319401
10989329472
10989336491
10989344364
10989351566
10989360111
10989366459
10989376286
10989382816
10989391361
10989397953
10989407597
10989416080
10989424015
10989430302
10989435184
10989444828
10989452152
10989460270
10989467472
10989478153
10989483219
10989491581
10989500553
10989508121
10989514591
10989523136
10989531681
10989540409
10989546939
10989554996
10989563541
10989569522
10989578067
10989582950
10989594119
10989599124
10989608158
10989615177
10989623538
10989630557
10989639407
10989645816
10989654239
10989660648
10989670596
10989677005
10989684573
10989693118
10989699100
10989709109
10989713992
10989724063
10989732059
10989740054
10989747195
10989755557
10989762759
10989771121
10989777652
10989786075
10989795962
10989803897
10989811526
10989820742
10989832522
10989841311
10989849124
10989858706
10989865969
10989875430
10989884646
10989890689
10989898989
10989907534
10989916079
10989923098
10989931582
10989938174
10989946597
10989951663
10989961916
10989966799
10989977297
10989985415
10989992251
10990000368
10990012331
10990019167
10990029177
10990036135
10990043764
10990050783
10990057985
10990067080
10990073305
10990081606
10990089663
10990096010
10990104616
10990113039
10990121645
10990129946
10990138002
10990146486
10990151491
10990161562
10990166506
10990177126
10990181826
10990192079
10990199098
10990207216
10990214235
10990223390
10990230348
10990236940
10990246706
10990253542
10990262697
10990270937
10990277773
10990283144
10990293336
10990297731
10990307741
10990312440
10990321229
10990327882
10990336976
10990343751
10990350526
10990356080
10990364381
10990372194
10990378419
10990386293
10990394532
10990400514
10990408265
10990414186
10990422364
10990428163
10990434449
10990443116
10990450257
10990458924
10990466065
10990475038
10990482362
10990489015
10990495362
10990503358
10990510133
10990519410
10990526246
10990532166
10990539918
10990547242
10990554871
10990561341
10990567262
10990577271
10990585633
10990591798
10990599610
10990604554
10990615174
10990625367
10990631531
10990641846
10990654297
10990662720
10990672364
10990679078
10990688843
10990695313
10990704163
10990710144
10990719544
10990726868
10990736145
10990743164
10990751343
10990758484
10990767395
10990774475
10990781861
10990791016
10990797425
10990805786
10990812500
10990822144
10990829773
10990837830
10990844666
10990852295
10990857849
10990866882
10990871277
10990880249
10990889893
10990895874
10990902100
10990910034
10990917175
10990928161
10990934692
10990942322
10990949096
10990957336
10990964050
10990972839
10990978637
10990986633
10990992309
10991000122
10991008178
10991016906
10991023498
10991030883
10991038574
10991043273
10991052063
10991058288
10991067687
10991072814
10991082397
10991089477
10991098022
10991104370
10991111083
10991119506
10991126769
10991133178
10991142516
10991148803
10991157104
10991163085
10991170776
10991176635
10991184936
10991191650
10991203551
10991209960
10991214599
10991224670
10991229919
10991239013
10991245482
10991253173
10991260924
10991269164
10991275451
10991283629
10991289245
10991297545
10991305175
10991311522
10991319457
10991328612
10991336974
10991342894
10991349120
10991357238
10991365355
10991369811
10991378905
10991386656
10991395568
10991408568
10991415099
10991424864
10991431944
10991441100
10991447997
10991458434
10991465636
10991470580
10991481017
10991486815
10991496947
10991501890
10991512083
10991517271
10991527708
10991532591
10991542845
10991551207
10991557860
10991565184
10991574217
10991581480
10991589171
10991596129
10991603819
10991610960
10991619688
10991626646
10991633787
10991642942
10991651548
10991659056
10991667539
10991674681
10991683103
10991690000
10991700376
10991706663
10991716184
10991720457
10991730406
10991735349
10991744627
10991752317
10991760130
10991767942
10991776304
10991784055
10991790220
10991798215
10991805540
10991813047
10991820676
10991829709
10991847410
10991855405
10991862974
10991871885
10991880613
10991887021
10991895505
10991901120
10991911130
10991919492
10991929074
10991936948
10991946286
10991954221
10991961850
10991969785
10991978086
10991985837
10991995542
10992000180
10992009702
10992017636
10992026242
10992034055
10992040646
10992049863
10992056149
10992065610
10992070432
10992081052
10992087888
10992096249
10992104794
10992113583
10992121579
10992128842
10992137936
10992145932
10992153744
10992164059
10992175717
10992183407
10992193478
10992201962
10992209103
10992217221
10992223385
10992233090
10992241452
10992248226
10992256344
10992264401
10992270321
10992275570
10992286434
10992294247
10992302303
10992308712
10992316891
10992323055
10992331234
10992336605
10992346249
10992351498
10992361996
10992371029
10992379269
10992385921
10992393368
10992401241
10992408077
10992418880
10992426082
10992433407
10992439693
10992448849
10992454708
10992465450
10992471981
10992480587
10992486873
10992495418
10992503719
10992510372
10992518673
10992523555
10992533992
10992539241
10992549251
10992556087
10992563655
10992572750
10992580074
10992587032
10992594539
10992600948
10992609737
10992621150
10992628047
10992636470
10992645686
10992652156
10992657039
10992667537
10992677547
10992685908
10992690791
10992699214
10992706111
10992714595
10992721614
10992729915
10992739070
10992746577
10992753596
10992761348
10992767512
10992776423
10992785457
10992791499
10992798091
10992808711
10992817988
10992824336
10992833430
10992840144
10992846369
10992854609
10992863948
10992871699
10992878535
10992887019
10992894160
10992903742
10992910578
10992917658
10992927546
10992935236
10992943415
10992952387
10992959284
10992968623
10992975520
10992984431
10992994074
10993003046
10993011774
10993020075
10993026850
10993034052
10993042536
10993049677
10993058161
10993065241
10993073664
10993079828
10993090082
10993096491
10993104486
10993110834
10993119074
10993127558
10993133539
10993143122
10993148004
10993157160
10993164240
10993172296
10993181452
10993188959
10993196100
10993203607
10993210077
10993219660
10993226007
10993234613
10993243158
10993249506
10993258356
10993264032
10993274042
10993282831
10993289056
10993296197
10993304010
10993313165
10993320978
10993328241
10993336114
10993345331
10993352777
10993359186
10993366937
10993376825
10993386407
10993395196
10993398553
10993410272
10993419122
10993425347
10993434564
10993440789
10993448907
10993456048
10993464044
10993473321
10993480706
10993489251
10993496209
10993504632
10993510980
10993518548
10993527032
10993534905
10993543206
10993550958
10993557488
10993562310
10993573479
10993578606
10993587395
10993597344
10993605096
10993612237
10993620598
10993626824
10993635613
10993644768
10993651177
10993659600
10993668450
10993674675
10993680840
10993690850
10993695733
10993705132
10993713311
10993721367
10993728691
10993738518
10993743584
10993755669
10993763787
10993771416
10993777458
10993789116
10993801445
10993807976
10993818352
10993828911
10993835808
10993845818
10993852959
10993859489
10993868462
10993876945
10993884025
10993892570
10993900139
10993908501
10993913383
10993922478
10993933464
10993939689
10993948112
10993956657
10993961601
10993970756
10993977714
10993987175
10993994438
10994001335
10994010612
10994017387
10994023918
10994032524
10994041069
10994047966
10994056327
10994062858
10994071159
10994079276
10994086173
10994093253
10994101920
10994111137
10994118400
10994125724
10994134147
10994140556
10994147819
10994156242
10994163444
10994171989
10994179435
10994188041
10994198173
10994204337
10994213187
10994219779
10994227653
10994235770
10994242728
10994251212
10994258414
10994265677
10994274772
10994282645
10994289054
10994297721
10994304190
10994312674
10994321280
10994328482
10994336844
10994344290
10994352774
10994357779
10994368460
10994373343
10994383658
10994388724
10994398856
10994405814
10994412833
10994422110
10994429739
10994436148
10994444510
10994453116
10994460013
10994468253
10994473135
10994484183
10994489126
10994499686
10994504874
10994514761
10994522146
10994529654
10994535940
10994546011
10994552237
10994561148
10994567679
10994575186
10994583548
10994599173
10994604238
10994615713
10994624136
10994630972
10994638845
10994648794
10994657705
10994671560
10994676748
10994686086
10994693411
10994701223
10994708425
10994717764
10994724783
10994732595
10994738760
10994748342
10994754568
10994763662
10994769949
10994775930
10994785573
10994794485
10994800832
10994808828
10994817129
10994825002
10994832693
10994839773
10994848195
10994855275
10994863942
10994873220
10994879384
10994888845
10994894704
10994903127
10994911245
10994917653
10994926320
10994934804
10994941518
10994949941
10994954946
10994965383
10994970571
10994980275
10994987416
10994997060
10995004140
10995011769
10995018239
10995026418
10995035451
10995044240
10995050893
10995058522
10995066823
10995076039
10995082387
10995091237
10995097523
10995104664
10995113881
10995122120
10995130482
10995137562
10995146473
10995152882
10995161427
10995167897
10995174977
10995183522
10995195790
10995203297
10995212025
10995218617
10995227772
10995236500
10995244740
10995251026
10995261036
10995267262
10995276417
10995283253
10995288136
10995298695
10995306202
10995314808
10995324696
10995331715
10995338367
10995348865
10995355823
10995362781
10995369129
10995378590
10995385242
10995395008
10995401356
10995410023
10995416248
10995425586
10995432117
10995442676
10995449817
10995457569
10995470569
10995478077
10995486927
10995494800
10995503833
10995509327
10995518360
10995525562
10995533802
10995541004
10995551013
10995558155
10995566272
10995573474
10995580066
10995588794
10995596240
10995604724
10995607593
10995619678
10995628345
10995634692
10995643298
10995649707
10995657336
10995668506
10995673755
10995685351
10995690784
10995701404
10995709155
10995715442
10995723010
10995731799
10995740832
10995747546
10995753344
10995762011
10995767932
10995774829
10995783130
10995792468
10995798693
10995806323
10995814013
10995816577
10995827014
10995835009
10995840747
10995848864
10995857226
10995864245
10995874560
10995879565
10995890856
10995896166
10995905749
10995913744
10995921557
10995928515
10995937060
10995944689
10995952685
10995959154
10995968615
10995975085
10995985094
10995991503
10996000536
10996006884
10996015551
10996024035
10996031481
10996038073
10996048571
10996057055
10996063219
10996071581
10996080187
10996086657
10996095629
10996102037
10996110704
10996119127
10996124071
10996133654
10996141344
10996149095
10996153673
10996163378
10996171373
10996179918
10996182787
10996194322
10996199327
10996208788
10996213609
10996223985
10996236559
10996243517
10996252916
10996262010
10996269273
10996278429
10996283861
10996294969
10996303880
10996312730
10996320299
10996329576
10996336839
10996345811
10996352769
10996361070
10996367540
10996376756
10996383104
10996390489
10996398912
10996404954
10996413926
10996419114
10996430467
10996435960
10996446214
10996453294
10996460557
10996466905
10996475877
10996482285
10996490220
10996498887
10996505845
10996514268
10996522996
10996529282
10996534165
10996544419
10996551438
10996559983
10996567490
10996576218
10996583298
10996593125
10996600327
10996607346
10996614182
10996623887
10996631211
10996639390
10996646348
10996654282
10996661118
10996668686
10996677903
10996686997
10996695114
10996704148
10996710923
10996720444
10996726914
10996736252
10996742722
10996748764
10996758896
10996765000
10996774338
10996779526
10996789414
10996796372
10996803696
10996812912
10996819077
10996825363
10996835068
10996841354
10996851303
10996857712
10996865768
10996874130
10996876938
10996888718
10996898910
10996907211
10996912338
10996921249
10996928329
10996936752
10996943893
10996953354
10996960800
10996968124
10996977096
10996983383
10996989730
10996998519
10997007003
10997014938
10997021224
10997026718
10997037765
10997042648
10997053268
10997060287
10997069686
10997077438
10997086593
10997094283
10997103011
10997115340
10997121810
10997130111
10997140182
10997147689
10997156661
10997163863
10997171615
10997177779
10997186996
10997193282
10997201461
10997210006
10997217513
10997223739
10997232222
10997240584
10997246016
10997257918
10997262252
10997271529
10997278548
10997287764
10997294783
10997303633
10997309920
10997318221
10997327376
10997335128
10997341353
10997350020
10997356307
10997366011
10997372420
10997381026
10997387618
10997394637
10997402571
10997409651
10997418196
10997424605
10997433882
10997440108
10997449080
10997457564
10997464278
10997472700
10997479903
10997488325
10997494063
10997503950
10997511885
10997518538
10997525862
10997534285
10997540510
10997549971
10997556501
10997565718
10997572187
10997581282
10997587507
10997596479
10997602949
10997611128
10997619551
10997624678
10997634138
10997641218
10997650678
10997657636
10997665327
10997671797
10997680158
10997686445
10997695417
10997703840
10997710127
10997718855
10997727094
10997733381
10997740522
10997748701
10997756696
10997767560
10997772993
10997785688
10997791547
10997799970
10997810712
10997818647
10997826032
10997836042
10997842328
10997851484
10997858014
10997866437
10997872907
10997881391
10997889692
10997898725
10997904889
10997914899
10997924298
10997930341
10997942060
10997950360
10997959516
10997967389
10997976361
10997987164
10997995343
10998001874
10998009869
10998018170
10998024884
10998033307
10998041669
10998050397
10998056317
10998065839
10998074200
10998080853
10998087872
10998095868
10998103863
10998113751
10998120770
10998128033
10998134381
10998143048
10998151715
10998159100
10998167584
10998173870
10998184552
10998194073
10998201947
10998208905
10998217388
10998224591
10998233074
10998240643
10998248882
10998255535
10998263897
10998268841
10998277996
10998285259
10998294781
10998301983
10998309612
10998316021
10998324566
10998331097
10998339519
10998347881
10998354717
10998365337
10998372234
10998380718
10998387798
10998396099
10998401043
10998411602
10998416607
10998426616
10998434246
10998442669
10998449749
10998457683
10998463848
10998472332
10998480693
10998487468
10998496135
10998503765
10998512187
10998519390
10998525676
10998532817
10998541484
10998548564
10998557109
10998564739
10998572856
10998579143
10998587932
10998594341
10998603191
10998611552
10998617778
10998626140
10998634563
10998642863
10998651225
10998657817
10998666057
10998672343
10998679301
10998689372
10998697612
10998705668
10998712138
10998721110
10998727580
10998736186
10998744975
10998753520
10998760722
10998771952
10998781535
10998791117
10998798869
10998808634
10998815531
10998824259
10998832804
10998839884
10998848246
10998855326
10998863749
10998868632
10998878214
10998886393
10998894083
10998901164
10998910990
10998918070
10998924845
10998934061
10998941508
10998947794
10998956827
10998963358
10998971842
10998980387
10998987467
10998996073
10999002421
10999010965
10999015848
10999025187
10999032267
10999040629
10999047648
10999057901
10999065104
10999071634
10999078165
10999087686
10999094644
10999103739
10999112100
10999119120
10999128092
10999135355
10999143900
10999149027
10999158792
10999163980
10999173990
10999180765
10999188699
10999198343
10999206033
10999212991
10999220621
10999229715
10999237405
10999243692
10999251993
10999260538
10999266458
10999275003
10999283121
10999289590
10999297159
10999307412
10999312295
10999323160
10999328347
10999337747
10999344644
10999352395
10999358743
10999367471
10999375955
10999382730
10999391030
10999398111
10999406533
10999411721
10999422463
10999430886
10999437234
10999444436
10999454507
10999461770
10999469033
10999475564
10999484475
10999493935
10999501382
10999507790
10999515969
10999524270
10999530801
10999539345
10999547402
10999553933
10999561989
10999571328
10999576333
10999587441
10999595254
10999605019
10999612832
10999619790
10999629738
10999642922
10999650917
10999659645
10999666176
10999674721
10999683388
10999689858
10999698464
10999704750
10999711952
10999720680
10999727944
10999736366
10999742897
10999752541
10999762123
10999768532
10999777565
10999783730
10999792275
10999799171
10999807655
10999814491
10999823158
10999828102
10999838234
10999846474
10999852821
10999859901
10999870033
10999877235
10999884865
10999891395
10999900978
10999907203
10999916603
10999922950
10999930946
10999939430
10999946449
10999952491
10999958778
10999964393
10999969520
10999975196
10999977272
10999984901
10999990394
10999995948
11000001686
11000007972
11000013465
11000021034
11000024452
11000031288
11000036598
11000042396
11000048438
11000055946
11000061378
11000067848
11000071204
11000077369
11000082374
11000088416
11000093360
11000099708
11000105140
11000109351
11000113929
11000120338
11000125098
11000129981
11000134925
11000141334
11000146949
11000152564
11000156837
11000162635
11000168922
11000174903
11000181556
11000189307
11000194861
11000200355
11000205054
11000210242
11000214393
11000221045
11000226600
11000231727
11000238013
11000242469
11000246741
11000252234
11000256324
11000263709
11000268531
11000275489
11000282935
11000289771
11000293799
11000301795
11000308325
11000312720
11000319068
11000323767
11000328589
11000333594
11000338782
11000341956
11000349097
11000356726
11000361060
11000366431
11000372046
11000376990
11000382300
11000387244
11000392493
11000399939
11000404456
11000409888
11000414465
11000420081
11000424353
11000429785
11000434363
11000440649
11000445288
11000450964
11000455847
11000462256
11000466467
11000472937
11000477637
11000484289
11000490271
11000494665
11000501440
11000506323
11000510473
11000516455
11000520910
11000527990
11000532812
11000538000
11000544348
11000549475
11000553808
11000557287
11000565344
11000571264
11000578588
11000584204
11000588354
11000595800
11000600622
11000605017
11000610571
11000615881
11000624243
11000628515
11000635229
11000639684
11000644811
11000650182
11000655920
11000660314
11000666601
11000672765
11000678075
11000682775
11000686559
11000694128
11000697424
11000704321
11000708593
11000716344
11000721471
11000728307
11000734167
11000739049
11000743749
11000749486
11000753942
11000761510
11000766149
11000771947
11000778234
11000783300
11000788732
11000793554
11000799291
11000805578
11000811437
11000817785
11000823827
11000830480
11000837011
11000840795
11000848363
11000852452
11000861730
11000868261
11000873693
11000879247
11000883031
11000889012
11000893651
11000899205
11000904515
11000909886
11000914281
11000920018
11000925817
11000930516
11000936498
11000943456
11000947667
11000952916
11000958775
11000964208
11000968724
11000972752
11000979527
11000985570
11000990819
11000994847
11001000584
11001004124
11001011021
11001014317
11001021519
11001027989
11001035130
11001038792
11001045933
11001049596
11001056492
11001061314
11001066563
11001071141
11001077916
11001082493
11001088719
11001095067
11001100071
11001104161
11001107579
11001115513
11001121312
11001130223
11001133519
11001140599
11001144200
11001150364
11001155796
11001161168
11001165745
11001174351
11001179661
11001185276
11001190342
11001196507
11001202244
11001206822
11001212681
11001218479
11001224644
11001229893
11001236241
11001240696
11001246433
11001249790
11001257115
11001261570
11001269566
11001273411
11001281162
11001287083
11001293674
11001299961
11001305820
11001312595
11001318455
11001321995
11001328525
11001335178
11001341709
11001345798
11001353672
11001360630
11001366001
11001371067
11001376987
11001384067
11001388950
11001394993
11001402744
11001409153
11001418613
11001426120
11001432651
11001438755
11001447055
11001453647
11001459201
11001466098
11001471164
11001476779
11001481052
11001487339
11001491550
11001498142
11001502536
11001509311
11001513706
11001519199
11001524814
11001530429
11001534824
11001538120
11001546237
11001550144
11001558444
11001563876
11001569553
11001574252
11001579135
11001583408
11001589145
11001595493
11001601596
11001607822
11001613620
11001618259
11001624545
11001629062
11001632358
11001639438
11001645663
11001652133
11001658053
11001663180
11001670016
11001677402
11001682040
11001690829
11001697543
11001704196
11001710116
11001716220
11001720858
11001727694
11001732333
11001737948
11001744296
11001751620
11001756930
11001761996
11001768100
11001772006
11001779330
11001784518
11001789340
11001794223
11001801913
11001807101
11001813754
11001818820
11001825472
11001830172
11001833895
11001841097
11001847323
11001853488
11001859652
11001864230
11001869662
11001876132
11001880770
11001886813
11001891390
11001899325
11001905917
11001911837
11001916842
11001923678
11001928011
11001932894
11001939852
11001947054
11001953585
11001957552
11001965243
11001971102
11001976412
11001982149
11001989779
11001995821
11002001925
11002014498
11002016817
11002031160
11002037203
11002046541
11002055025
11002058687
11002071993
11002080233
11002092745
11002101778
11002110872
11002117586
11002123384
11002131258
11002138033
11002144075
11002149507
11002158418
11002165804
11002172884
11002180452
11002191133
11002198213
11002201753
11002215364
11002219026
11002228914
11002236604
11002246431
11002254243
11002263215
11002270906
11002277009
11002285615
11002293367
11002296846
11002308564
11002314302
11002324739
11002329377
11002339082
11002345918
11002351350
11002359590
11002366853
11002376252
11002383332
11002388520
11002399446
11002405000
11002413545
11002417939
11002426667
11002433076
11002438813
11002447846
11002455110
11002462373
11002469392
11002480012
11002488190
11002496674
11002504426
11002511872
11002522553
11002530732
11002538483
11002546174
11002556061
11002563386
11002569245
11002580414
11002585602
11002599762
11002607087
11002614655
11002621735
11002626435
11002635102
11002642487
11002647919
11002657196
11002665863
11002672272
11002679901
11002688935
11002696259
11002702729
11002710480
11002717926
11002723297
11002729767
11002742523
11002749664
11002754974
11002770966
11002777741
11002784515
11002791290
11002799957
11002806244
11002811432
11002821075
11002825653
11002837189
11002845184
11002863373
11002882599
11002892853
11002904144
11002912384
11002918609
11002924347
11002930999
11002937530
11002944610
11002951873
11002958038
11002965301
11002971160
11002978118
11002984344
11002993804
11002998870
11003005035
11003010650
11003016143
11003020538
11003027191
11003030547
11003037078
11003044341
11003048309
11003053680
11003058929
11003064544
11003068816
11003074920
11003080413
11003087005
11003092437
11003098602
11003104949
11003108977
11003112334
11003118804
11003126678
11003131194
11003137054
11003141875
11003148406
11003153045
11003158233
11003163726
11003170806
11003175994
11003180877
11003186187
11003191009
11003196746
11003203032
11003209197
11003214568
11003221587
11003227691
11003231719
11003239043
11003246856
11003252471
11003256621
11003263152
11003267852
11003271514
11003277617
11003284392
11003290007
11003295989
11003299956
11003306304
11003313506
11003318205
11003326384
11003330412
11003336516
11003340788
11003347014
11003353972
11003358000
11003364775
11003370573
11003377531
11003383391
11003387297
11003393889
11003399504
11003407805
11003414336
11003419401
11003425627
11003431975
11003434294
11003442778
11003450896
11003457548
11003464140
11003471220
11003478789
11003483488
11003491789
11003496428
11003505034
11003514128
11003518217
11003524748
11003528837
11003533903
11003540434
11003544767
11003549833
11003555998
11003560820
11003566618
11003571562
11003577665
11003584196
11003588652
11003595854
11003600004
11003607023
11003610746
11003617460
11003625089
11003630094
11003636320
11003639860
11003646818
11003650419
11003657438
11003662748
11003668790
11003674345
11003680509
11003685941
11003691373
11003696195
11003703092
11003707792
11003715360
11003720670
11003727933
11003733121
11003739835
11003744108
11003749357
11003755399
11003760770
11003767667
11003773099
11003779630
11003784879
11003792386
11003797086
11003802335
11003808622
11003813077
11003820951
11003824918
11003832242
11003836148
11003842862
11003847501
11003853482
11003858976
11003867581
11003874478
11003880948
11003886380
11003892972
11003897672
11003903836
11003908658
11003916471
11003923001
11003927762
11003934537
11003938443
11003945767
11003951016
11003956571
11003961697
11003969388
11003975247
11003981107
11003986050
11003992215
11003996671
11004002530
11004008389
11004014676
11004020901
11004024197
11004031338
11004034939
11004042142
11004047757
11004054043
11004061062
11004066434
11004074978
11004083096
11004087063
11004095364
11004101162
11004107510
11004112515
11004119107
11004124478
11004128872
11004133633
11004140347
11004145108
11004151028
11004155850
11004162197
11004167324
11004174160
11004179043
11004184048
11004190762
11004196255
11004200588
11004207241
11004211819
11004216885
11004222744
11004228298
11004232754
11004238369
11004242764
11004247768
11004254360
11004260098
11004264431
11004269436
11004276760
11004281948
11004286587
11004291347
11004300198
11004305141
11004311733
11004316433
11004322719
11004327541
11004333462
11004338161
11004344387
11004352016
11004357448
11004362270
11004367214
11004373928
11004379482
11004384243
11004390163
11004396999
11004401516
11004407436
11004414028
11004419277
11004426784
11004430385
11004437587
11004444362
11004450161
11004455898
11004461635
11004466579
11004472744
11004478420
11004482753
11004488552
11004495326
11004500148
11004505336
11004511623
11004515468
11004521572
11004528346
11004542262
11004546840
11004553310
11004558742
11004565578
11004570949
11004577785
11004583583
11004590785
11004598170
11004603419
11004610072
11004616420
11004621730
11004628444
11004633693
11004641505
11004645717
11004652858
11004659694
11004665431
11004673121
11004680751
11004685145
11004693324
11004698146
11004707911
11004715785
11004722804
11004728968
11004734034
11004739527
11004745204
11004750270
11004754359
11004760524
11004766078
11004769618
11004776087
11004780543
11004788111
11004793727
11004799098
11004802455
11004809352
11004813136
11004820094
11004823390
11004830103
11004835291
11004840357
11004847315
11004852442
11004858424
11004864161
11004870692
11004877283
11004881190
11004888087
11004891444
11004896998
11004900843
11004908717
11004912318
11004919337
11004923365
11004930262
11004932276
11004939539
11004947657
11004952845
11004958826
11004965601
11004972681
11004977564
11004979639
11004988794
11004993250
11005000513
11005004175
11005013147
11005017054
11005024988
11005030176
11005036280
11005041162
11005047022
11005052088
11005059778
11005064966
11005070948
11005077417
11005081201
11005088648
11005093164
11005100550
11005106348
11005112634
11005117700
11005124597
11005129175
11005135706
11005140650
11005147852
11005154260
11005159448
11005164697
11005168665
11005176599
11005181970
11005187097
11005191675
11005201685
11005206995
11005212671
11005219629
11005221948
11005230798
11005234460
11005241785
11005248742
11005259363
11005263940
11005271386
11005277246
11005283349
11005288720
11005297265
11005302087
11005309594
11005316003
11005320764
11005326318
11005330774
11005336389
11005341882
11005346398
11005350122
11005357263
11005362329
11005368310
11005373925
11005380639
11005387109
11005392907
11005396813
11005405114
11005408471
11005416162
11005420068
11005427880
11005431786
11005438805
11005443993
11005451684
11005455712
11005464074
11005471459
11005476952
11005480798
11005490014
11005494347
11005502038
11005506188
11005514062
11005519921
11005525780
11005530785
11005537438
11005544213
11005551964
11005557030
11005562890
11005567956
11005573571
11005581200
11005584862
11005592003
11005597558
11005602562
11005609703
11005615685
11005620812
11005626671
11005633080
11005635155
11005643883
11005648705
11005659264
11005667443
11005676049
11005682945
11005691612
11005697899
11005704979
11005710045
11005715721
11005720970
11005725792
11005730980
11005735497
11005740563
11005745506
11005752525
11005758141
11005762962
11005767662
11005772423
11005776695
11005781517
11005787193
11005791832
11005798363
11005802513
11005807335
11005811363
11005817284
11005822533
11005830345
11005837059
11005843590
11005849022
11005855369
11005859642
11005866234
11005873070
11005881248
11005885093
11005890953
11005895530
11005900169
11005904808
11005909629
11005914573
11005918907
11005922813
11005928062
11005931663
11005936912
11005941368
11005947898
11005951683
11005957664
11005961936
11005967308
11005972923
11005977928
11005982627
11005988426
11005993064
11005998435
11006002281
11006007957
11006013755
11006017967
11006023277
11006030662
11006035178
11006040305
11006045860
11006050681
11006056358
11006060813
11006066428
11006070152
11006078208
11006081687
11006089011
11006092307
11006099143
11006103904
11006109763
11006114890
11006120566
11006125693
11006132346
11006137229
11006142051
11006146262
11006153037
11006157554
11006165061
11006169639
11006176108
11006181724
11006186362
11006192038
11006196616
11006202659
11006209250
11006214194
11006220115
11006227927
11006232199
11006240500
11006246970
11006256064
11006263388
11006268943
11006275717
11006286460
11006293906
11006302512
11006310263
11006318442
11006324973
11006336081
11006339621
11006350913
11006356162
11006364829
11006371786
11006378561
11006385886
11006393393
11006401327
11006408591
11006419638
11006427023
11006432455
11006446615
11006454611
11006462485
11006469442
11006472677
11006482199
11006489218
11006502096
11006508993
11006517904
11006524923
11006528097
11006540243
11006545736
11006555502
11006563558
11006572653
11006578939
11006585165
11006589865
11006595297
11006601217
11006606954
11006611288
11006618246
11006624227
11006629232
11006635030
11006638448
11006644552
11006649496
11006654684
11006661520
11006667928
11006673727
11006677999
11006682699
11006689168
11006694051
11006699850
11006706441
11006715047
11006720113
11006726461
11006730794
11006736349
11006742391
11006747213
11006752889
11006758016
11006763936
11006767293
11006774434
11006779989
11006784200
11006789022
11006795064
11006800313
11006805989
11006811483
11006822591
11006826253
11006833028
11006837972
11006843038
11006849691
11006855611
11006860494
11006866231
11006871053
11006876851
11006881307
11006887044
11006891377
11006899129
11006903768
11006909017
11006915364
11006920613
11006925252
11006931355
11006941975
11006946431
11006953267
11006959248
11006965718
11006970723
11006978230
11006982930
11006989094
11006994038
11007003438
11007008748
11007015217
11007020039
11007023945
11007030110
11007034749
11007041157
11007047993
11007054585
11007059895
11007065754
11007071248
11007077717
11007082539
11007088398
11007093037
11007100789
11007106099
11007112996
11007118184
11007125264
11007131062
11007138691
11007143330
11007149006
11007157307
11007162800
11007170429
11007174580
11007181111
11007184406
11007190327
11007195027
11007201557
11007204975
11007211018
11007216084
11007222981
11007227741
11007233784
11007238911
11007243977
11007250446
11007255512
11007260212
11007265583
11007269794
11007275776
11007281452
11007287434
11007291889
11007298054
11007302204
11007308124
11007313862
11007317219
11007323994
11007327961
11007337238
11007341022
11007348102
11007351581
11007359577
11007364948
11007370441
11007376056
11007382282
11007387653
11007394306
11007401081
11007406757
11007411518
11007415241
11007422321
11007428424
11007436542
11007443012
11007448749
11007452167
11007458209
11007462909
11007468830
11007473468
11007484210
11007490131
11007496784
11007501972
11007508502
11007513202
11007516864
11007525226
11007529559
11007536823
11007542987
11007548785
11007552081
11007558063
11007562946
11007569476
11007574481
11007579913
11007585345
11007590533
11007597186
11007602008
