10862278711
10862285363
10862292260
10862297937
10862304467
10862311914
10862317468
10862324731
10862331567
10862338403
10862346704
10862352624
10862360925
10862367883
10862372949
10862381921
10862389977
10862395776
10862402123
10862409264
10862416406
10862422143
10862430383
10862437096
10862444482
10862451256
10862458886
10862467309
10862474755
10862482384
10862490441
10862498314
10862504540
10862514428
10862521996
10862528954
10862533776
10862541039
10862547875
10862554100
10862561425
10862570214
10862576867
10862581749
10862588768
10862592308
10862600121
10862606469
10862612145
10862619591
10862625572
10862631371
10862637352
10862642235
10862649315
10862654442
10862661705
10862666771
10862673241
10862680016
10862686974
10862694054
10862699303
10862705711
10862712120
10862716820
10862724266
10862731163
10862737816
10862744102
10862750694
10862756187
10862762962
10862768272
10862774681
10862782005
10862787865
10862794395
10862798912
10862805931
10862811424
10862817955
10862825340
10862830711
10862837486
10862843651
10862849937
10862855308
10862861473
10862866905
10862873924
10862880210
10862884727
10862891807
10862898948
10862905479
10862912193
10862917869
10862924644
10862930808
10862935203
10862941917
10862948081
10862953941
10862960594
10862967124
10862972068
10862979698
10862984947
10862992393
10862999351
10863004600
10863011314
10863017417
10863024558
10863029624
10863037559
10863044028
10863050681
10863056785
10863063987
10863069114
10863075339
10863082175
10863089377
10863092917
10863101279
10863106589
10863113242
10863118979
10863124717
10863131675
10863139243
10863145163
10863149802
10863157676
10863162497
10863169883
10863176902
10863182456
10863189292
10863194785
10863202841
10863209799
10863215903
10863222495
10863229087
10863236167
10863243125
10863248374
10863255698
10863262473
10863267539
10863276877
10863283347
10863289389
10863295248
10863303610
10863310873
10863320944
10863329428
10863337790
10863346457
10863354758
10863362997
10863367636
10863376913
10863383749
10863390829
10863398886
10863405722
10863411215
10863419333
10863424704
10863432394
10863443258
10863450705
10863458334
10863464804
10863472006
10863478537
10863485189
10863494406
10863501364
10863508749
10863515036
10863523641
10863529440
10863537252
10863543539
10863552389
10863560934
10863567037
10863572836
10863581442
10863587911
10863596395
10863604025
10863611715
10863621664
10863629171
10863634054
10863643148
10863651693
10863657735
10863664266
10863671773
10863680929
10863687581
10863696370
10863701925
10863709737
10863715658
10863725545
10863735128
10863742940
10863749898
10863756612
10863763265
10863771688
10863779378
10863787069
10863793538
10863799703
10863808980
10863815206
10863822896
10863831014
10863839253
10863846517
10863853353
10863861592
10863867818
10863875325
10863881184
10863889912
10863897176
10863903157
10863910664
10863919087
10863926167
10863932088
10863939961
10863944783
10863955586
10863963399
10863970601
10863977009
10863984822
10863998982
10864004292
10864013814
10864022175
10864028706
10864035420
10864043660
10864049397
10864058552
10864066304
10864075032
10864082905
10864088887
10864098896
10864106404
10864116108
10864123677
10864131794
10864137531
10864145771
10864153828
10864160420
10864168537
10864177570
10864184712
10864193440
10864201374
10864209064
10864216694
10864225361
10864234333
10864241291
10864249775
10864254902
10864263325
10864268879
10864277119
10864284626
10864293476
10864301533
10864307514
10864313984
10864321552
10864329181
10864338764
10864346882
10864355915
10864363361
10864369831
10864380390
10864387470
10864394367
10864401508
10864411029
10864417194
10864426715
10864434101
10864441913
10864449420
10864455524
10864464801
10864472980
10864479633
10864486469
10864494647
10864500018
10864507037
10864513629
10864521503
10864530109
10864539203
10864546222
10864553363
10864560077
10864569171
10864575580
10864584857
10864591754
10864598651
10864607257
10864613055
10864620562
10864627765
10864635333
10864642901
10864653582
10864660174
10864667498
10864675189
10864682269
10864688006
10864695941
10864702410
10864711138
10864717608
10864726336
10864732073
10864740069
10864746111
10864755206
10864762408
10864771563
10864779864
10864787188
10864793780
10864802813
10864809283
10864816485
10864823870
10864831316
10864837420
10864846148
10864852434
10864859759
10864866472
10864873614
10864883257
10864890398
10864900713
10864907061
10864913530
10864921831
10864926592
10864936235
10864942583
10864952044
10864957903
10864966692
10864972368
10864980608
10864987017
10864994280
10865002031
10865009294
10865016130
10865024553
10865030596
10865038713
10865046587
10865052995
10865063188
10865069780
10865077348
10865083269
10865092119
10865097917
10865106218
10865113664
10865121172
10865128252
10865137651
10865145952
10865153581
10865162187
10865170061
10865176896
10865185991
10865194658
10865201066
10865208513
10865216020
10865223222
10865229753
10865237504
10865245866
10865253007
10865260698
10865268388
10865275224
10865284257
10865292741
10865300248
10865308061
10865316361
10865323442
10865329057
10865337541
10865345109
10865354386
10865360734
10865369218
10865375138
10865381852
10865389970
10865397416
10865404008
10865413224
10865421403
10865428727
10865436722
10865443925
10865450272
10865457413
10865465958
10865473099
10865479569
10865488419
10865495621
10865503617
10865512528
10865518570
10865526871
10865535294
10865542618
10865548905
10865556107
10865564041
10865571244
10865578934
10865586930
10865595536
10865602188
10865610428
10865617447
10865623917
10865633133
10865641739
10865648026
10865654678
10865663529
10865670670
10865676285
10865683914
10865690201
10865700638
10865707230
10865714493
10865722366
10865729446
10865736771
10865744034
10865753250
10865760086
10865766495
10865776138
10865784500
10865790359
10865797500
10865804947
10865813186
10865822647
10865830337
10865836136
10865843338
10865850540
10865858474
10865866836
10865876541
10865882949
10865891616
10865897537
10865906082
10865914504
10865921707
10865929214
10865936416
10865943496
10865951370
10865959060
10865967910
10865975234
10865985000
10865991164
10866000137
10866008071
10866013747
10866023269
10866030654
10866037856
10866045669
10866053237
10866059707
10866068557
10866076186
10866083205
10866090713
10866098281
10866107131
10866114333
10866121901
10866130446
10866135756
10866145644
10866152724
10866160659
10866167739
10866174758
10866183669
10866191664
10866198134
10866207167
10866213576
10866222853
10866228835
10866235610
10866242140
10866249465
10866257887
10866263869
10866271925
10866280776
10866288100
10866296400
10866302321
10866311232
10866317152
10866323378
10866333266
10866341383
10866349501
10866354201
10866362562
10866368666
10866377333
10866384169
10866391798
10866399061
10866406080
10866412367
10866420546
10866427809
10866434706
10866440443
10866449659
10866457045
10866465834
10866472670
10866479322
10866487623
10866493299
10866500135
10866510145
10866516065
10866525587
10866533094
10866539198
10866545851
10866554517
10866562086
10866568494
10866575941
10866585523
10866593031
10866599378
10866606763
10866614149
10866620191
10866630018
10866637952
10866645521
10866655530
10866664014
10866670972
10866679151
10866686475
10866694715
10866701795
10866709668
10866716626
10866724439
10866731702
10866739820
10866746961
10866754712
10866762464
10866768750
10866777112
10866784314
10866790906
10866797986
10866804883
10866812329
10866821057
10866827893
10866834729
10866841382
10866847974
10866857251
10866864514
10866871289
10866880689
10866887463
10866896130
10866901440
10866909680
10866917676
10866924451
10866931348
10866940686
10866948865
10866956189
10866963330
10866969311
10866976269
10866986035
10866993420
10866999829
10867006909
10867015027
10867022168
10867026074
10867034985
10867042309
10867050915
10867058422
10867067211
10867075207
10867081738
10867089062
10867098767
10867107250
10867112927
10867119641
10867127880
10867133373
10867141613
10867149731
10867158032
10867165600
10867172436
10867181347
10867189281
10867196362
10867204418
10867212658
10867221020
10867227489
10867234325
10867243847
10867251842
10867259777
10867267956
10867276562
10867284435
10867293041
10867300426
10867307445
10867315441
10867323070
10867330089
10867339000
10867345714
10867353588
10867362072
10867370128
10867377941
10867385021
10867393505
10867401622
10867409130
10867416454
10867423351
10867430431
10867438732
10867448009
10867454295
10867462962
10867468272
10867477123
10867482982
10867491649
10867497569
10867504649
10867512157
10867521434
10867527049
10867535106
10867540904
10867549449
10867554820
10867564403
10867571483
10867578441
10867585093
10867593455
10867599376
10867607921
10867613780
10867623362
10867632090
10867638377
10867647105
10867652842
10867661570
10867668101
10867677684
10867686900
10867694773
10867700877
10867708201
10867715342
10867722666
10867731516
10867738413
10867746714
10867754099
10867760020
10867769419
10867775279
10867783579
10867789622
10867798411
10867804575
10867811777
10867819102
10867828135
10867832651
10867841196
10867848154
10867855295
10867863291
10867870310
10867879587
10867885874
10867893992
10867902048
10867906687
10867915781
10867924692
10867932688
10867940805
10867949045
10867956736
10867966013
10867973154
10867981455
10867989939
10867997446
10868003855
10868012461
10868018564
10868026377
10868032724
10868041330
10868050424
10868057748
10868064096
10868071481
10868077890
10868085275
10868092233
10868102304
10868109323
10868117075
10868124338
10868133981
10868142221
10868149423
10868158639
10868164865
10868172311
10868179391
10868187936
10868193796
10868201364
10868208505
10868216378
10868225167
10868230233
10868238778
10868245614
10868252572
10868259591
10868268930
10868275033
10868285043
10868292245
10868298409
10868306893
10868312509
10868320565
10868327157
10868336556
10868345162
10868352975
10868359750
10868367440
10868374215
10868382150
10868388741
10868396981
10868405587
10868413094
10868419625
10868426827
10868432625
10868441109
10868447335
10868455941
10868462533
10868470589
10868476204
10868482979
10868491646
10868496346
10868505745
10868514290
10868520211
10868526925
10868535775
10868543099
10868549446
10868557686
10868564034
10868571846
10868580513
10868587715
10868595467
10868605843
10868611885
10868619148
10868627937
10868637581
10868644844
10868653511
10868659126
10868667732
10868673775
10868682869
10868689522
10868698372
10868705391
10868712105
10868721199
10868726936
10868733894
10868741340
10868751777
10868758797
10868768928
10868775947
10868783943
10868791939
10868797554
10868804451
10868814216
10868820564
10868830330
10868834419
10868843818
10868850593
10868859443
10868866767
10868874397
10868880867
10868889717
10868896003
10868903816
10868909492
10868918586
10868925666
10868935676
10868940376
10868949531
10868955451
10868964057
10868971137
10868978584
10868985175
10868993964
10869002631
10869009894
10869016608
10869025519
10869033210
10869040168
10869048041
10869056952
10869062324
10869070929
10869077887
10869086188
10869091742
10869100593
10869108527
10869115302
10869122565
10869131171
10869137091
10869143378
10869150763
10869157599
10869165595
10869174384
10869180426
10869189154
10869197028
10869202948
10869209174
10869218207
10869226141
10869232306
10869240546
10869246222
10869252264
10869261542
10869267523
10869275031
10869283942
10869292670
10869299872
10869306403
10869313422
10869319891
10869328375
10869337713
10869343512
10869352118
10869360296
10869365973
10869372625
10869381048
10869388678
10869394903
10869403509
10869410467
10869419561
10869427496
10869435125
10869439093
10869448675
10869455938
10869465216
10869472845
10869480169
10869486456
10869493475
10869503057
10869510259
10869517828
10869524664
10869534124
10869540777
10869547552
10869556646
10869565618
10869575628
10869583379
10869589910
10869597845
10869606390
10869612981
10869620306
10869629583
10869638433
10869644720
10869650823
10869659795
10869667425
10869673223
10869681646
10869687993
10869695318
10869704351
10869711431
10869718450
10869724981
10869733220
10869739507
10869746587
10869754827
10869763372
10869768804
10869777104
10869783147
10869791631
10869797856
10869805486
10869815495
10869821355
10869828130
10869834721
10869842290
10869849248
10869856694
10869866216
10869873845
10869879643
10869889653
10869895573
10869902531
10869910100
10869917912
10869925603
10869935795
10869942021
10869949528
10869955876
10869963322
10869968876
10869977299
10869986516
10869994450
10870001530
10870009037
10870015263
10870023747
10870029606
10870037724
10870043949
10870053227
10870059269
10870067387
10870075749
10870080265
10870088749
10870096134
10870102848
10870112065
10870118595
10870126591
10870134037
10870141239
10870147343
10870155094
10870161442
10870169498
10870175297
10870183475
10870189091
10870199345
10870208439
10870215641
10870224369
10870233463
10870238895
10870247684
10870254093
10870262943
10870270084
10870279972
10870287662
10870295719
10870304020
10870310611
10870318241
10870327396
10870334598
10870342289
10870350589
10870358158
10870364688
10870373233
10870379154
10870387577
10870393985
10870402774
10870409366
10870416446
10870424747
10870430301
10870439334
10870444583
10870453922
10870459842
10870468631
10870475711
10870482425
10870489322
10870496280
10870504153
10870513492
10870520083
10870528995
10870536746
10870543399
10870550662
10870557254
10870565127
10870572207
10870578982
10870588809
10870594790
10870602725
10870608706
10870615786
10870622683
10870632693
10870641543
10870647769
10870656253
10870662905
10870669680
10870677981
10870685183
10870694155
10870703250
10870709658
10870717349
10870723330
10870731326
10870737978
10870746767
10870755129
10870762637
10870770876
10870778201
10870789187
10870796389
10870803469
10870810732
10870818545
10870825747
10870834292
10870842104
10870848330
10870857485
10870865297
10870872927
10870881106
10870889467
10870898562
10870905275
10870912783
10870920778
10870926638
10870933046
10870942385
10870948488
10870958315
10870962892
10870972475
10870978151
10870986696
10870993288
10871001100
10871008486
10871016420
10871023378
10871030946
10871039858
10871047548
10871057558
10871066103
10871075685
10871083986
10871094057
10871101930
10871108522
10871116334
10871125184
10871133058
10871141725
10871148744
10871156740
10871163453
10871171571
10871177614
10871188600
10871196779
10871204713
10871211122
10871218324
10871225953
10871233155
10871240846
10871248597
10871255677
10871262879
10871271485
10871277955
10871285462
10871292420
10871301515
10871308351
10871315431
10871323670
10871329469
10871336060
10871343751
10871350709
10871357850
10871366639
10871373170
10871379700
10871387635
10871394166
10871401551
10871408631
10871418091
10871424622
10871432862
10871438538
10871445618
10871452698
10871459778
10871467164
10871474976
10871483765
10871489686
10871498536
10871503601
10871512757
10871521119
10871527588
10871535889
10871542359
10871552185
10871558350
10871564820
10871573181
10871578552
10871587708
10871595947
10871602905
10871611694
10871617432
10871625366
10871631165
10871640930
10871647949
10871655457
10871663208
10871671326
10871678711
10871687073
10871693420
10871700928
10871708374
10871717651
10871725464
10871734009
10871740478
10871748108
10871757080
10871763489
10871772949
10871779724
10871787536
10871794494
10871803405
10871809448
10871818237
10871824707
10871832336
10871838317
10871847473
10871851318
10871860778
10871866332
10871873413
10871883422
10871891357
10871897216
10871904785
10871910461
10871919738
10871925720
10871932433
10871940612
10871950622
10871956603
10871964965
10871971252
10871979369
10871985168
10871992248
10871999328
10872006957
10872015685
10872021544
10872029906
10872035705
10872044188
10872049560
10872058532
10872066344
10872072204
10872078551
10872087340
10872092894
10872101378
10872106871
10872116332
10872124694
10872131652
10872138304
10872147338
10872154051
10872162779
10872169310
10872177306
10872184447
10872193297
10872199400
10872208067
10872215880
10872222594
10872227904
10872235045
10872244200
10872252989
10872259154
10872265684
10872273375
10872280211
10872287169
10872293822
10872304625
10872311827
10872319151
10872325865
10872333433
10872340086
10872347960
10872354979
10872362181
10872371458
10872378477
10872384947
10872392332
10872400877
10872407042
10872416014
10872425413
10872432676
10872438291
10872450804
10872460752
10872467771
10872475523
10872485044
10872493772
10872500242
10872507200
10872514829
10872523802
10872529112
10872538999
10872546445
10872557066
10872562009
10872570982
10872577024
10872585691
10872592344
10872599790
10872609067
10872615720
10872623289
10872629026
10872636472
10872643247
10872650998
10872658201
10872669553
10872675535
10872681333
10872690000
10872698423
10872704221
10872710386
10872719663
10872727964
10872733945
10872740415
10872748960
10872754453
10872763181
10872768552
10872777829
10872785214
10872794003
10872801999
10872807797
10872814877
10872823300
10872830930
10872837766
10872848630
10872855588
10872863889
10872869809
10872878415
10872884457
10872892758
10872899533
10872906674
10872912778
10872922543
10872930539
10872938046
10872945126
10872952328
10872960446
10872967892
10872974667
10872984372
10872992855
10873000729
10873007687
10873015866
10873026425
10873032589
10873039608
10873050045
10873057064
10873062863
10873072323
10873080075
10873087460
10873094296
10873103390
10873110409
10873117001
10873124813
10873133785
10873139523
10873148006
10873156002
10873161678
10873171566
10873178646
10873186031
10873195125
10873204403
10873211361
10873219845
10873226192
10873233028
10873241939
10873249874
10873257808
10873267513
10873275692
10873282344
10873290950
10873297847
10873304988
10873314876
10873321468
10873329341
10873337642
10873344600
10873350093
10873359493
10873368770
10873376705
10873384700
10873391902
10873399349
10873408626
10873417354
10873424800
10873433772
10873442317
10873449825
10873457759
10873465022
10873471736
10873479427
10873487483
10873495235
10873502742
10873510615
10873518001
10873525264
10873529292
10873538203
10873544978
10873555781
10873566951
10873576838
10873583491
10873590998
10873598811
10873606013
10873616206
10873624507
10873631648
10873639155
10873646907
10873651118
10873660090
10873674006
10873681635
10873689204
10873697138
10873705744
10873712519
10873723750
10873728205
10873737788
10873747187
10873754877
10873762751
10873771174
10873779352
10873786555
10873794611
10873802912
10873809138
10873817744
10873825434
10873831354
10873839655
10873846369
10873856257
10873862360
10873871027
10873877008
10873882868
10873891352
10873898554
10873905085
10873914667
10873923639
10873931513
10873939875
10873946161
10873952570
10873960993
10873967462
10873976862
10873983698
10873992548
10873999384
10874006464
10874012811
10874020075
10874026727
10874036432
10874042719
10874053583
10874061456
10874068658
10874076776
10874084283
10874091547
10874099908
10874109796
10874116876
10874126459
10874134271
10874142084
10874150079
10874158319
10874164544
10874173394
10874181634
10874187433
10874195184
10874202142
10874212518
10874219598
10874225091
10874231866
10874241143
10874248284
10874255731
10874262383
10874269769
10874278558
10874285760
10874291985
10874299127
10874306634
10874312310
10874318597
10874331902
10874341058
10874349480
10874356255
10874364983
10874372491
10874379143
10874389153
10874396294
10874404046
10874411004
10874418389
10874427361
10874434197
10874441277
10874451897
10874458855
10874465630
10874472100
10874479729
10874486809
10874491509
10874502373
10874510674
10874518669
10874525505
10874532036
10874537712
10874546685
10874553337
10874560173
10874569084
10874578789
10874584892
10874594353
10874601677
10874607964
10874616020
10874626518
10874638725
10874650078
10874657951
10874666618
10874675590
10874687492
10874695976
10874705681
10874714165
10874721489
10874729423
10874736809
10874743705
10874751640
10874760917
10874769767
10874775566
10874784233
10874793510
10874800468
10874809806
10874816520
10874824821
10874832328
10874843254
10874851066
10874859489
10874867546
10874874076
10874882865
10874890556
10874897819
10874905631
10874912833
10874920280
10874927421
10874933646
10874941459
10874947807
10874956657
10874963065
10874970939
10874977531
10874984855
10874993400
10875002799
10875009269
10875017570
10875024344
10875031058
10875038321
10875045279
10875052115
10875061149
10875069999
10875075736
10875083854
10875089713
10875098258
10875107901
10875115226
10875122733
10875130545
10875138663
10875146292
10875152152
10875159720
10875167166
10875174918
10875182608
10875192374
10875198782
10875208853
10875217642
10875224661
10875232230
10875241202
10875249197
10875255301
10875264090
10875271536
10875277396
10875286246
10875293509
10875300467
10875308462
10875315909
10875321402
10875327017
10875335867
10875342276
10875352469
10875359243
10875366385
10875372488
10875379507
10875386343
10875393545
10875400503
10875409231
10875418386
10875425527
10875431265
10875439871
10875446157
10875452078
10875458975
10875468740
10875478384
10875486257
10875494253
10875501821
10875509023
10875516042
10875524404
10875534231
10875541799
10875548757
10875556448
10875563833
10875572622
10875578786
10875587820
10875596059
10875603261
10875609853
10875617910
10875625661
10875631154
10875637258
10875646718
10875655874
10875661245
10875666921
10875674550
10875683217
10875690602
10875697744
10875707143
10875713002
10875720693
10875726369
10875733754
10875740651
10875749379
10875755849
10875766286
10875773732
10875781178
10875787404
10875794911
10875800954
10875809987
10875816884
10875825002
10875831044
10875839772
10875845448
10875855092
10875860707
10875868642
10875875416
10875884389
10875890492
10875898610
10875904957
10875913380
10875919240
10875926686
10875933522
10875943715
10875949635
10875955739
10875964100
10875972035
10875977894
10875985890
10875992726
10876001698
10876009999
10876017689
10876025257
10876033253
10876040577
10876050221
10876057789
10876066639
10876074757
10876080616
10876087513
10876094776
10876102528
10876109486
10876119312
10876125965
10876134144
10876139820
10876149891
10876157398
10876163929
10876173572
10876181873
10876189625
10876196949
10876204090
10876211597
10876217396
10876226429
10876232105
10876240894
10876248645
10876255909
10876263111
10876270435
10876277027
10876284473
10876293262
10876300708
10876309680
10876316822
10876325794
10876333301
10876342700
10876349536
10876358386
10876365039
10876373523
10876381580
10876388904
10876395557
10876402881
10876410877
10876418811
10876426135
10876433643
10876440295
10876447803
10876454822
10876462024
10876470325
10876478625
10876487170
10876494739
10876501513
10876511828
10876520556
10876527148
10876534656
10876541186
10876551013
10876557177
10876566150
10876570056
10876579455
10876585742
10876595385
10876599902
10876609240
10876617419
10876621936
10876628894
10876638354
10876645190
10876654894
10876661303
10876668871
10876674792
10876682726
10876690356
10876697680
10876704150
10876714098
10876720324
10876728197
10876734301
10876742968
10876748705
10876757433
10876764452
10876775317
10876781664
10876788988
10876797228
10876804552
10876811876
10876821825
10876828051
10876835375
10876843493
10876851854
10876858141
10876867174
10876875353
10876882250
10876891344
10876897875
10876905504
10876913195
10876919420
10876927050
10876934435
10876942613
10876950243
10876957262
10876964586
10876972399
10876978258
10876984422
10876992784
10876999498
10877008958
10877016344
10877024278
10877033006
10877038316
10877044603
10877051622
10877058519
10877068101
10877074083
10877080125
10877088487
10877093797
10877102342
10877110643
10877116868
10877126756
10877132799
10877141710
10877147386
10877155931
10877161607
10877169481
10877175950
10877186204
10877193589
10877201280
10877207872
10877215074
10877220994
10877228746
10877235093
10877244737
10877250779
10877258897
10877264695
10877271653
10877278611
10877286485
10877293809
10877303697
10877312058
10877319199
10877324876
10877331467
10877338242
10877347398
10877353745
10877362961
10877369187
10877377671
10877385483
10877392563
10877399094
10877406418
10877414963
10877423020
10877431443
10877439316
10877445908
10877453293
10877460251
10877468064
10877475083
10877484299
10877490708
10877500412
10877508225
10877515915
10877526352
10877532761
10877541916
10877547898
10877557602
10877564255
10877571396
10877578232
10877585678
10877592270
10877601425
10877608933
10877616135
10877623398
10877631393
10877635544
10877647690
10877655197
10877665268
10877672958
10877680588
10877689560
10877695419
10877704269
10877712753
10877720993
10877725387
10877734665
10877742904
10877750717
10877755478
10877764877
10877772934
10877783126
10877790145
10877797592
10877804367
10877811996
10877818527
10877825851
10877833908
10877841842
10877850143
10877858322
10877865890
10877872421
10877882797
10877889999
10877897445
10877905257
10877912582
10877918868
10877925887
10877933639
10877942733
10877950423
10877957931
10877966231
10877973128
10877978683
10877987411
10877992415
10878001327
10878009932
10878017501
10878024276
10878030745
10878037887
10878044478
10878050155
10878059249
10878065780
10878073836
10878080794
10878088668
10878095198
10878102767
10878110640
10878118209
10878125716
10878133956
10878140547
10878149336
10878156722
10878162947
10878171797
10878180769
10878188277
10878196455
10878204085
10878210616
10878217879
10878225691
10878233199
10878242964
10878249983
10878256453
10878265547
10878272261
10878280562
10878286970
10878298445
10878306074
10878310713
10878321028
10878328718
10878335737
10878343062
10878350630
10878355391
10878366011
10878373945
10878380842
10878386946
10878395735
10878401472
10878410017
10878416242
10878426679
10878434370
10878442182
10878448652
10878456465
10878463606
10878470625
10878479292
10878487348
10878491987
10878503400
10878509931
10878517133
10878525556
10878532758
10878540815
10878547407
10878553754
10878562665
10878569746
10878576459
10878583784
10878590375
10878598432
10878607648
10878615644
10878621930
10878629255
10878637311
10878644513
10878651777
10878659223
10878665998
10878674298
10878682233
10878689130
10878696149
10878703717
10878712873
10878719586
10878725019
10878734235
10878739423
10878748578
10878754987
10878762616
10878770734
10878778180
10878785565
10878795270
10878801679
10878810529
10878819135
10878825421
10878836835
10878843121
10878850995
10878857220
10878865765
10878872784
10878880170
10878889325
10878895978
10878902997
10878913556
10878919842
10878927044
10878936139
10878943524
10878953534
10878959515
10878965863
10878975079
10878980511
10878989178
10878995709
10879002240
10879011822
10879018841
10879025677
10879034039
10879039593
10879048199
10879054058
10879061321
10879069866
10879078899
10879083965
10879092632
10879100079
10879107037
10879114239
10879122295
10879130169
10879136639
10879145794
10879154949
10879162273
10879168743
10879176494
10879183636
10879193096
10879201092
10879207927
10879217632
10879223430
10879231731
10879238140
10879247234
10879253399
10879261516
10879267315
10879275981
10879281780
10879290630
10879297161
10879305767
10879314617
10879322185
10879328533
10879335735
10879341411
10879349773
10879355632
10879364482
10879371196
10879379375
10879385112
10879393108
10879398845
10879407207
10879413188
10879425151
10879433330
10879440959
10879448100
10879455913
10879462504
10879469646
10879474406
10879485942
10879493999
10879501445
10879507304
10879514506
10879522624
10879530131
10879538798
10879547587
10879553874
10879562480
10879570414
10879576457
10879585246
10879592387
10879601481
10879607829
10879615153
10879623576
10879630839
10879637004
10879644511
10879653178
10879661356
10879668437
10879675639
10879684184
10879690104
10879698100
10879705241
10879712687
10879720255
10879726725
10879733805
10879740580
10879747538
10879753886
10879761027
10879769083
10879776530
10879784586
10879791727
10879798563
10879806193
10879812601
10879819986
10879827738
10879837381
10879845499
10879852884
10879861124
10879868204
10879876200
10879882425
10879891275
10879898111
10879906595
10879912516
10879920145
10879927408
10879936930
10879943338
10879950968
10879962320
10879970438
10879978677
10879986063
10879993326
10879999979
10880009439
10880017374
10880024881
10880033426
10880038187
10880047281
10880056680
10880063089
10880071268
10880080118
10880087198
10880094339
10880104165
10880111612
10880118142
10880127725
10880133767
10880140725
10880149331
10880155801
10880166238
10880173806
10880178079
10880189248
10880195596
10880202737
10880210244
10880217385
10880223977
10880230874
10880237405
10880247659
10880254312
10880261514
10880268166
10880275430
10880281045
10880288613
10880295205
10880303628
10880310097
10880318703
10880324746
10880333474
10880339089
10880345071
10880354165
10880360146
10880368813
10880375039
10880383706
10880390175
10880397561
10880403603
10880412758
10880420144
10880427346
10880434365
10880441018
10880447121
10880454934
10880462929
10880469765
10880478127
10880486733
10880492714
10880499367
10880507485
10880514382
10880521279
10880529213
10880536598
10880544533
10880553200
10880561195
10880567299
10880574623
10880582863
10880590187
10880599342
10880606850
10880615456
10880621498
10880629860
10880635719
10880643227
10880650062
10880659035
10880667885
10880675453
10880683021
10880690712
10880697609
10880703285
10880709938
10880719276
10880727577
10880734840
10880741127
10880748451
10880755348
10880763343
10880770423
10880777870
10880786048
10880793434
10880800086
10880808021
10880815895
10880823341
10880830360
10880837745
10880845680
10880852943
10880859168
10880866248
10880873328
10880880958
10880888770
10880898048
10880905006
10880912147
10880920203
10880928077
10880934486
10880942176
10880948340
10880955543
10880963843
10880972938
10880978858
10880987098
10880993812
10881002479
10881011939
10881018714
10881025855
10881031531
10881039344
10881045020
10881053748
10881060157
10881068579
10881075171
10881083167
10881091101
10881098303
10881104102
10881111975
10881118140
10881128760
10881136695
10881144080
10881149878
10881157691
10881163733
10881171851
10881178198
10881188330
10881196021
10881203223
10881211890
10881219458
10881226599
10881233618
10881238318
10881250830
10881258154
10881266089
10881271887
10881279028
10881286474
10881295508
10881302099
10881311010
10881318701
10881325659
10881335119
10881341772
10881351660
10881355383
10881368017
10881374243
10881381689
10881389685
10881395117
10881401281
10881411230
10881418981
10881426977
10881435522
10881443762
10881451330
10881457800
10881463964
10881471655
10881478429
10881488073
10881493261
10881503515
10881510107
10881518529
10881525304
10881531896
10881539648
10881548620
10881556066
10881561986
10881570653
10881579076
10881586583
10881593480
10881600927
10881610021
10881615697
10881623937
10881631139
10881638158
10881643163
10881652867
10881660375
10881667089
10881674291
10881682347
10881689672
10881696446
10881701207
10881710729
10881720311
10881726964
10881734105
10881740087
10881748265
10881754064
10881762364
10881771092
10881779088
10881787083
10881791966
10881801610
10881806798
10881815953
10881823155
10881830174
10881840794
10881847325
10881854771
10881860570
10881868565
10881874974
10881883885
10881892308
10881900303
10881907506
10881914830
10881920811
10881929417
10881935399
10881943821
10881950718
10881961705
10881968663
10881974278
10881983921
10881989414
10881997776
10882005162
10882011936
10882019627
10882025425
10882033726
10882039524
10882048252
10882055332
10882063572
10882069859
10882080051
10882086460
10882095127
10882102024
10882110813
10882117100
10882125095
10882131321
10882141209
10882149082
10882156956
10882163425
10882171360
10882179416
10882187168
10882195713
10882202976
10882211582
10882219211
10882225986
10882235202
10882243320
10882249790
10882260105
10882267124
10882274509
10882282566
10882289707
10882296726
10882303928
10882308078
10882320285
10882328220
10882335849
10882341892
10882349094
10882356723
10882363742
10882372226
10882380222
10882386752
10882394260
10882402133
10882409763
10882416110
10882423373
10882430453
10882438022
10882445407
10882452853
10882459506
10882467196
10882476108
10882481418
10882489657
10882497287
10882504916
10882512118
10882518283
10882525790
10882534518
10882539767
10882546481
10882555819
10882563998
10882571017
10882575289
10882584689
10882592745
10882598178
10882607089
10882615267
10882620394
10882629611
10882635531
10882644381
10882650057
10882658846
10882666476
10882673922
10882682528
10882690340
10882697787
10882705599
10882713106
10882719942
10882729708
10882737826
10882745516
10882752596
10882759798
10882767122
10882773470
10882780794
10882788973
10882798617
10882805697
10882812227
10882819613
10882827669
10882839083
10882843721
10882853914
10882862032
10882871370
10882879061
10882886019
10882892610
10882902681
10882912325
10882920870
10882928316
10882934847
10882942293
10882949312
10882956697
10882964815
10882972200
10882979280
10882986971
10882994722
10883002473
10883010713
10883018098
10883025056
10883034334
10883040987
10883047639
10883055391
10883061922
10883068635
10883077241
10883083955
10883092378
10883100679
10883106477
10883115449
10883121675
10883128694
10883134919
10883145234
10883149446
10883160493
10883165864
10883173188
10883181367
10883188996
10883196687
10883203767
10883210053
10883219331
10883225617
10883234284
10883242402
10883248567
10883256928
10883265534
10883273408
10883279816
10883288483
10883295380
10883302705
10883309724
10883317719
10883326264
10883333466
10883339997
10883347077
10883354951
10883360383
10883368622
10883377900
10883384553
10883391938
10883399811
10883407502
10883413849
10883420807
10883429474
10883437897
10883442597
10883452668
10883460907
10883468476
10883474823
10883482392
10883491181
10883500458
10883506867
10883513519
10883519867
10883527496
10883534882
10883542084
10883550202
10883559967
10883567169
10883574799
10883582550
10883592072
10883600677
10883607147
10883616974
10883624969
10883632416
10883639801
10883647247
10883653473
10883661224
10883668670
10883677948
10883685577
10883693451
10883701507
10883708587
10883719146
10883727142
10883735015
10883742035
10883750885
10883757415
10883781463
10883789886
10883797637
10883805267
10883812774
10883819671
10883828460
10883834625
10883843475
10883850189
10883858978
10883865875
10883872344
10883879058
10883887481
10883893523
10883900359
10883910308
10883917998
10883924956
10883933135
10883941680
10883949431
10883956878
10883963775
10883973418
10883979766
10883988555
10883995391
10884004180
10884010222
10884018584
10884025359
10884032622
10884040374
10884046904
10884053191
10884061431
10884068755
10884075286
10884084929
10884093779
10884101409
10884107329
10884115203
10884120879
10884129302
10884135710
10884144682
10884152068
10884159270
10884166716
10884173491
10884180449
10884187285
10884193999
10884202727
10884209746
10884216826
10884223967
10884231047
10884238493
10884245756
10884249907
10884262724
10884269377
10884276579
10884283232
10884292204
10884299894
10884306730
10884314116
10884321318
10884328093
10884337187
10884343046
10884352385
10884360075
10884367582
10884376188
10884383329
10884391691
10884400358
10884407133
10884414579
10884420561
10884429411
10884438505
10884444181
10884452177
10884457975
10884466154
10884474516
10884482206
10884488981
10884498258
10884505216
10884512174
10884519315
10884526762
10884533719
10884542814
10884550199
10884559476
10884567716
10884575223
10884583646
10884593778
10884599332
10884609769
10884617337
10884626554
10884632047
10884640165
10884647733
10884653470
10884659452
10884667996
10884677213
10884683316
10884690091
10884696744
10884703397
10884711820
10884719815
10884725430
10884734158
10884742825
10884749905
10884755521
10884763760
10884769742
10884775784
10884784817
10884792203
10884799100
10884806546
10884815091
10884823453
10884829434
10884837186
10884842862
10884852200
10884858304
10884866238
10884871975
10884878933
10884887600
10884893155
10884901577
10884910672
10884917263
10884925869
10884931790
10884939785
10884945462
10884952542
10884959866
10884968899
10884976284
10884983731
10884991970
10884997769
10885006863
10885013760
10885020352
10885032620
10885039394
10885048000
10885054348
10885062588
10885070461
10885075771
10885086208
10885094082
10885100429
10885108120
10885116482
10885124111
10885131557
10885139980
10885147304
10885155117
10885162746
10885169948
10885176845
10885183925
10885190822
10885197963
10885205532
10885212917
10885219692
10885227565
10885235744
10885243251
10885250392
10885257534
10885264736
10885272182
10885279140
10885288661
10885295436
10885302577
10885311366
10885318324
10885326320
10885333156
10885340114
10885348537
10885354762
10885361720
10885370448
10885376430
10885384975
10885392482
10885400050
10885405910
10885413417
10885421352
10885428554
10885435023
10885443751
10885449916
10885457423
10885465724
10885472987
10885478846
10885486537
10885495631
10885503383
10885510524
10885518580
10885524806
10885532496
10885540248
10885547389
10885554774
10885562342
10885568568
10885575831
10885584010
10885589442
10885595790
10885604762
10885613795
10885621363
10885627284
10885634974
10885641322
10885648707
10885657130
10885663966
10885672694
10885681177
10885687037
10885695155
10885700892
10885708826
10885714686
10885721705
10885730921
10885740259
10885746546
10885755213
10885763392
10885768946
10885779261
10885787989
10885795496
10885803492
10885810694
10885820276
10885828272
10885834986
10885843347
10885850244
10885860132
10885866724
10885880091
10885888635
10885896082
10885904260
10885912256
10885920618
10885927881
10885935693
10885944666
10885954004
10885959619
10885968774
10885973169
10885985681
10885992517
10885999658
10886008996
10886017541
10886024133
10886033594
10886041345
10886047387
10886055566
10886061365
10886069787
10886077600
10886084802
10886091699
10886101648
10886107812
10886116052
10886122522
10886129846
10886138208
10886143335
10886152001
10886161279
10886169519
10886176721
10886183129
10886191186
10886197106
10886204186
10886211205
10886222497
10886229821
10886235131
10886243920
10886251122
10886257165
10886265710
10886271935
10886282799
10886291894
10886299340
10886306420
10886313683
10886320580
10886328454
10886336388
10886344079
10886351098
10886358300
10886365075
10886372216
10886379601
10886386803
10886395897
10886403038
10886410912
10886419884
10886429039
10886435814
10886444237
10886450768
10886459923
10886466820
10886475609
10886481652
10886490013
10886495751
10886503746
10886509667
10886520836
10886527550
10886534813
10886541588
10886549645
10886555809
10886564903
10886569176
10886582298
10886588890
10886596886
10886604759
10886611900
10886619102
10886626671
10886635887
10886644615
10886651634
10886659019
10886666466
10886673668
10886680381
10886687706
10886695152
10886703209
10886710228
10886717491
10886726341
10886734031
10886739952
10886747032
10886754478
10886764183
10886771751
10886779746
10886785423
10886794273
10886800315
10886807578
10886816551
10886824058
10886831077
10886838523
10886844932
10886853843
10886859458
10886868674
10886875510
10886883079
10886890769
10886898337
10886905967
10886913108
10886919517
10886927268
10886935691
10886943381
10886952353
10886959372
10886965354
10886972739
10886980979
10886988669
10886995383
10887002707
10887009482
10887018515
10887024253
10887031516
10887038108
10887045554
10887053122
10887062400
10887068320
10887077292
10887083518
10887090659
10887096762
10887103659
10887110922
10887120810
10887127036
10887134299
10887141562
10887150839
10887157370
10887164511
10887174460
10887182333
10887188925
10887197653
10887203451
10887212485
10887217428
10887224753
10887233603
10887240072
10887248129
10887256552
10887264486
10887271750
10887281088
10887287497
10887298056
10887307089
10887314596
10887320639
10887329061
10887335958
10887343771
10887348532
10887362265
10887369284
10887378317
10887384725
10887393331
10887401083
10887406942
10887417501
10887426168
10887433431
10887440633
10887447591
10887454427
10887463461
10887472005
10887479452
10887487997
10887495382
10887503316
10887510274
10887518026
10887525838
10887532918
10887541646
10887548360
10887556234
10887563497
10887570333
10887577474
10887585958
10887592489
10887600484
10887607869
10887616719
10887622823
10887631795
10887640584
10887648458
10887652669
10887663961
10887671041
10887676473
10887686299
10887693624
10887700276
10887707662
10887715169
10887722310
10887728536
10887735799
10887742268
10887751180
10887757161
10887766743
10887775349
10887786458
10887792012
10887800435
10887808552
10887815022
10887823445
10887829304
10887840108
10887846150
10887855305
10887860432
10887869282
10887878071
10887885884
10887892292
10887899556
10887907429
10887915303
10887922505
10887930195
10887938252
10887945881
10887953388
10887960835
10887968647
10887975849
10887983357
10887991902
10888000202
10888008137
10888015705
10888023518
10888030964
10888038410
10888045795
10888052937
10888059834
10888073994
10888081318
10888089069
10888095966
10888105060
10888112385
10888119160
10888129413
10888136249
10888143268
10888152057
10888156757
10888165424
10888173237
10888179035
10888189594
10888195697
10888202839
10888210407
10888219562
10888226764
10888233844
10888240680
10888250629
10888256793
10888264606
10888272907
10888280109
10888286395
10888293598
10888299945
10888308673
10888318073
10888323688
10888332172
10888337543
10888345966
10888351215
10888360187
10888367633
10888375201
10888383197
10888389484
10888396625
10888404559
10888412128
10888419147
10888427814
10888435077
10888442218
10888450335
10888457599
10888464679
10888471881
10888479083
10888487567
10888495684
10888502948
10888509417
10888516986
10888523638
10888532244
10888539996
10888547808
10888555255
10888564044
10888570880
10888578143
10888583514
10888592486
10888597918
10888607195
10888613360
10888620501
10888627886
10888635760
10888642413
10888651751
10888658160
10888665789
10888673052
10888680926
10888688128
10888695391
10888703326
10888709978
10888715594
10888724383
10888732073
10888739641
10888744036
10888749895
10888756853
10888761553
10888767717
10888774126
10888781145
10888787554
10888792620
10888796526
10888804827
10888810808
10888817400
10888823442
10888829424
10888835344
10888841753
10888845903
10888851641
10888856706
10888860857
10888866716
10888871538
10888878191
10888882952
10888889665
10888895281
10888899126
10888905779
10888912492
10888917314
10888923174
10888929277
10888936113
10888941728
10888946672
10888954240
10888960222
10888965410
10888971757
10888979936
10888983720
10888989458
10888994524
10888999834
10889004533
10889010637
10889017412
10889022294
10889027299
10889032243
10889037187
10889041704
10889047685
10889054277
10889059160
10889064225
10889071000
10889078264
10889082841
10889089860
10889097673
10889104997
10889114152
10889122026
10889129045
10889135331
10889141618
10889145768
10889150224
10889155107
10889159562
10889163774
10889169999
10889174150
10889178300
10889183305
10889187638
10889192094
10889198136
10889203324
10889207597
10889211991
10889215897
10889221207
10889226395
10889231644
10889236283
10889241166
10889245805
10889252396
10889257218
10889262406
10889267106
10889271989
10889278092
10889282609
10889288041
10889292435
10889298112
10889303666
10889307328
10889313676
10889317582
10889322953
10889327836
10889331437
10889336869
10889341813
10889346024
10889351273
10889357499
10889362198
10889366776
10889371659
10889376908
10889381669
10889386307
10889392289
10889396988
10889401383
10889406021
10889410965
10889415726
10889420792
10889425553
10889430985
10889435929
10889440689
10889445755
10889450821
10889457962
10889462906
10889468460
10889473587
10889479691
10889484024
10889489761
10889494217
10889501724
10889506546
10889511612
10889518082
10889522293
10889528519
10889532120
10889537674
10889545425
10889550491
10889555984
10889561417
10889567154
10889574478
10889580582
10889586441
10889595291
10889601944
10889607803
10889612503
10889619705
10889626297
10889632034
10889635086
10889643203
10889647354
10889653824
10889658096
10889663833
10889668655
10889674637
10889679702
10889684585
10889692337
10889697158
10889704055
10889710830
10889716812
10889722793
10889730361
10889737319
10889742874
10889749710
10889755142
10889760452
10889766738
10889770095
10889780044
10889787795
10889794265
10889800613
10889806350
10889811538
10889818252
10889822524
10889829849
10889837478
10889843398
10889849929
10889853225
10889860549
10889866592
10889872756
10889878249
10889884109
10889888625
10889893935
10889900283
10889905593
10889908584
10889915725
10889921584
10889927749
10889933852
10889938186
10889944045
10889950576
10889954970
10889959548
10889966628
10889971816
10889978835
10889982924
10889989516
10889994277
10889999343
10890004836
10890009902
10890016066
10890023391
10890027297
10890032668
10890038771
10890044264
10890049452
10890054946
10890060439
10890066542
10890072585
10890076674
10890083693
10890088088
10890092848
10890099196
10890104567
10890113722
10890118178
10890123732
10890129042
10890135207
10890140700
10890145949
10890151625
10890159499
10890165480
10890170607
10890177809
10890184096
10890190504
10890196486
10890203139
10890209852
10890218764
10890223097
10890230543
10890238844
10890245497
10890252882
10890260939
10890268751
10890271071
10890284559
10890292311
10890298475
10890306532
10890313917
10890320631
10890327894
10890335218
10890343153
10890351209
10890358351
10890366651
10890373976
10890382276
10890390516
10890396314
10890401075
10890409193
10890419691
10890427747
10890435621
10890444044
10890450819
10890458387
10890467908
10890475660
10890483594
10890490003
10890494337
10890505689
10890513196
10890520215
10890528272
10890536023
10890544935
10890549085
10890558667
10890565442
10890574720
10890583081
10890589673
10890598279
10890603833
10890611402
10890615552
10890624463
10890630506
10890639600
10890645825
10890652417
10890659192
10890665784
10890672193
10890680615
10890686475
10890692517
10890701672
10890710889
10890717358
10890724500
10890729260
10890737012
10890742871
10890749280
10890756482
10890767529
10890772961
10890780102
10890787671
10890791760
10890798840
10890806531
10890812939
10890821301
10890825451
10890838818
10890843762
10890851147
10890858166
10890865368
10890872631
10890879040
10890884961
10890891064
10890900402
10890908093
10890914013
10890922192
10890929760
10890936169
10890942578
10890948864
10890956982
10890965038
10890971569
10890978344
10890986096
10890993115
10890999767
10891007519
10891014599
10891020397
10891026867
10891035107
10891042980
10891051098
10891058666
10891064770
10891071239
10891077831
10891085338
10891092419
10891100780
10891108654
10891115490
10891123485
10891127453
10891137035
10891143505
10891152477
10891160350
10891167736
10891174816
10891183422
10891188732
10891196483
10891201488
10891211620
10891216381
10891224620
10891232616
10891239086
10891247386
10891255687
10891262706
10891268749
10891276927
10891284129
10891294017
10891302501
10891313426
10891320567
10891329051
10891334972
10891340587
10891348582
10891355418
10891363048
10891370250
10891378123
10891385997
10891394786
10891402476
10891408153
10891415172
10891419017
10891427501
10891432750
10891442271
10891448131
10891453441
10891456614
10891463328
10891468821
10891473521
10891478404
10891484690
10891491343
10891495860
10891501597
10891505687
10891510203
10891515818
10891520335
10891526377
10891531077
10891537303
10891542002
10891546946
10891552928
10891558787
10891562998
10891568064
10891574900
10891580149
10891587046
10891591380
10891598216
10891603281
10891608775
10891616221
10891621348
10891627085
10891634409
10891639780
10891646433
10891651133
10891658396
10891664988
10891669993
10891676218
10891683359
10891688242
10891693796
10891700693
10891706125
10891710642
10891719980
10891724375
10891730478
10891736643
10891743052
10891747446
10891752939
10891760080
10891765390
10891772898
10891776987
10891783945
10891788034
10891795542
10891800547
10891806772
10891810251
10891819406
10891823374
10891830576
10891835153
10891840708
10891846506
10891852121
10891859140
10891867319
10891872690
10891877939
10891884897
10891888986
10891896860
10891900278
10891910654
10891920847
10891926218
10891933054
10891940561
10891946909
10891952768
10891958810
10891966806
10891970529
10891976449
10891983163
10891991037
10891995065
10892002511
10892008981
10892015512
10892022470
10892028268
10892033395
10892038644
10892044565
10892049875
10892054635
10892060373
10892066903
10892072458
10892077523
10892081796
10892085946
10892092416
10892098214
10892102914
10892109567
10892115426
10892120614
10892126901
10892131661
10892137155
10892142159
10892148995
10892154366
10892160470
10892165841
10892171700
10892180978
10892188973
10892198861
10892208749
10892215524
10892223153
10892230355
10892235726
10892239938
10892250680
10892253487
10892261971
10892268014
10892280831
10892298653
10892307137
10892315743
10892323617
10892331185
10892338570
10892345650
10892352852
10892357491
10892362374
10892369210
10892373665
10892377816
10892381844
10892386238
10892390877
10892394722
10892399605
10892404549
10892408760
10892413216
10892417916
10892420601
10892425606
10892432137
10892436653
10892440926
10892446053
10892450142
10892454231
10892458321
10892463143
10892468453
10892473396
10892477730
10892482796
10892486458
10892492500
10892496346
10892501412
10892506966
10892513008
10892517708
10892522591
10892527229
10892532417
10892538338
10892542793
10892548103
10892552498
10892557625
10892561409
10892566231
10892570747
10892575447
10892579719
10892584297
10892588203
10892591316
10892596748
10892600105
10892606636
10892611885
10892616524
10892620796
10892624763
10892628853
10892633186
10892635933
10892643440
10892648933
10892653450
10892657722
10892662300
10892666328
10892670784
10892676887
10892682502
10892687751
10892692939
10892697212
10892701850
10892706977
10892711921
10892714485
10892723579
10892726448
10892732917
10892737007
10892742988
10892746833
10892752204
10892758003
10892764961
10892769172
10892775520
10892779426
10892784736
10892788825
10892793830
10892798286
10892805610
10892812568
10892818305
10892822639
10892828071
10892833198
10892837836
10892844062
10892848273
10892854743
10892860236
10892865302
10892870246
10892874763
10892880256
10892885688
10892888679
10892896064
10892901740
10892907294
10892912421
10892917731
10892922492
10892928046
10892933600
10892939521
10892945502
10892951117
10892956061
10892963019
10892967414
10892972541
10892978949
10892985663
10892992560
10892997077
10893002326
10893007392
10893012519
10893017951
10893022956
10893028876
10893034308
10893040167
10893045172
10893050177
10893055670
10893061225
10893066535
10893072699
10893080328
10893085700
10893090521
10893095709
10893101569
10893105780
10893110663
10893117682
10893122321
10893127997
10893132697
10893138617
10893143072
10893147772
10893152655
10893155157
10893164557
10893168646
10893173834
10893178778
10893184027
10893188910
10893193915
10893196722
10893204352
10893211371
10893216681
10893221441
10893226263
10893230230
10893235846
10893240240
10893248480
10893253729
10893261236
10893265509
10893269842
10893275824
10893280096
10893286016
10893292120
10893297369
10893303228
10893309454
10893314947
10893319525
10893326971
10893331671
10893337408
10893341558
10893347967
10893352545
10893359930
10893364141
10893370733
10893375128
10893382635
10893389227
10893392767
10893399053
10893403570
10893408697
10893414617
10893419561
10893424383
10893429693
10893434759
10893441961
10893445745
10893451482
10893456670
10893461919
10893466375
10893476201
10893479680
10893487371
10893491582
10893496160
10893502202
10893506048
10893512395
10893518133
10893523565
10893529729
10893535222
10893541936
10893547673
10893553960
10893560735
10893567632
10893576116
10893584661
10893592229
10893599919
10893606877
10893613225
10893620732
10893626653
10893637395
10893645818
10893653142
10893660100
10893665654
10893674077
10893681035
10893687749
10893694341
10893696233
10893707219
10893715703
10893722050
10893728093
10893734319
10893742070
10893746403
10893753545
10893762700
10893769536
10893776066
10893782109
10893789860
10893794438
10893800541
10893807438
10893812382
10893817753
10893825505
10893831975
10893838444
10893844670
10893850346
10893857121
10893864506
10893869633
10893875553
10893885441
10893892399
10893899662
10893906620
10893911686
10893919804
10893923832
10893930790
10893937321
10893943730
10893951725
10893960514
10893966252
10893972416
10893979618
10893987003
10893992069
10894000004
10894007389
10894014835
10894021793
10894028812
10894035465
10894042362
10894049564
10894053532
10894061771
10894067753
10894075321
10894085148
10894091800
10894098453
10894104130
10894109745
10894115482
10894122501
10894129215
10894135624
10894145389
10894154117
10894159855
10894165958
10894172428
10894179081
10894184452
10894191715
10894196048
10894207584
10894213932
10894219852
10894226871
10894233951
10894239627
10894245914
10894254032
10894261417
10894263736
10894275211
10894284000
10894290164
10894296756
10894302066
10894309756
10894317691
10894324649
10894331424
10894340823
10894349429
10894357364
10894368899
10894377811
10894385684
10894393069
10894401431
10894406619
10894418155
10894423282
10894435000
10894439578
10894449160
10894457705
10894466739
10894475100
10894483401
10894493167
10894500857
10894510562
10894517275
10894524905
10894532229
10894540225
10894545779
10894559512
10894567446
10894571536
10894581851
10894589785
10894594851
10894603945
10894611086
10894617678
10894624636
10894632204
10894638918
10894644961
10894651369
10894660952
10894667605
10894673769
10894682436
10894687075
10894699770
10894708010
10894713198
10894720644
10894726564
10894734804
10894739138
10894749575
10894756044
10894764345
10894772341
10894779177
10894787233
10894791567
10894800722
10894807314
10894814333
10894821779
10894828310
10894836977
10894844545
10894850038
10894857973
10894865846
10894871340
10894879762
10894885927
10894892519
10894900575
10894910829
10894917299
10894922426
10894930360
10894936342
10894942934
10894949708
10894957155
10894963991
10894975709
10894982484
10894988893
10894995790
10895004274
10895011964
10895018556
10895025880
10895033204
10895042115
10895049440
10895054261
10895062379
10895070436
10895076844
10895083497
10895091004
10895098390
10895106568
10895114381
10895121827
10895128175
10895135011
10895143373
10895149415
10895157350
10895163941
10895171021
10895178773
10895187867
10895195496
10895203004
10895210816
10895216370
10895224671
10895233216
10895239991
10895250977
10895260560
10895268067
10895276307
10895283448
10895290467
10895298707
10895305726
10895312073
10895318482
10895331055
10895339600
10895344544
10895358765
10895365540
10895373169
10895380799
10895388123
10895394165
10895402344
10895407898
10895413086
10895418823
10895424378
10895430054
10895435364
10895438233
10895446900
10895452942
10895458618
10895464417
10895469910
10895474121
10895481018
10895485779
10895493591
10895499023
10895502502
10895509644
10895515076
10895519409
10895524658
10895529541
10895536865
10895541992
10895547485
10895552368
10895557007
10895563843
10895568603
10895573913
10895580017
10895585937
10895590332
10895596130
10895601867
10895607971
10895612182
10895618774
10895623291
10895629455
10895634094
10895639465
10895645813
10895650329
10895656677
10895661316
10895666198
10895672241
10895678772
10895682739
10895689819
10895693969
10895699646
10895705139
10895710510
10895716308
10895722106
10895728027
10895733581
10895738342
10895743713
10895748107
10895752502
10895758849
10895764343
10895769775
10895776611
10895781127
10895786071
10895791137
10895796081
10895802978
10895807067
10895814147
10895819518
10895824767
10895830627
10895836181
10895841857
10895845946
10895851928
10895860351
10895863524
10895870238
10895877440
10895884521
10895888061
10895896850
10895901671
10895910521
10895916198
10895923705
10895930724
10895938231
10895944152
10895949523
10895955504
10895963073
10895971434
10895976744
10895984313
10895989379
10895993956
10895999388
10896005431
10896010985
10896016539
10896022093
10896026976
10896032652
10896038512
10896044066
10896048766
10896054442
10896061095
10896065062
10896069273
10896075011
10896081358
10896085448
10896091795
10896097289
10896102843
10896108946
10896113890
10896119810
10896124754
10896128844
10896134398
10896140440
10896146788
10896153563
10896160460
10896165220
10896170897
10896177305
10896182676
10896186949
10896194945
10896199705
10896205931
10896210081
10896216551
10896223997
10896227964
10896234251
10896239744
10896245420
10896251097
10896255735
10896262327
10896267027
10896273436
10896277830
10896286436
10896291258
10896295591
10896302000
10896306883
10896313841
10896318235
10896323789
10896329099
10896337217
10896342649
10896348020
10896354002
10896359983
10896366026
10896370481
10896377439
10896383970
10896389524
10896395139
10896400877
10896406858
10896411558
10896418150
10896422788
10896430723
10896434873
10896441099
10896447874
10896451597
10896457456
10896463926
10896470090
10896480405
10896487424
10896493345
10896498411
10896504209
10896510495
10896516355
10896520810
10896527890
10896532834
10896539487
10896544065
10896550168
10896556821
10896561155
10896566831
10896571958
10896578672
10896583371
10896589475
10896593869
10896599851
10896602964
10896609738
10896614133
10896620725
10896625791
10896630918
10896636655
10896641171
10896645627
10896650449
10896656186
10896661496
10896667600
10896672482
10896676816
10896682126
10896686887
10896691830
10896694333
10896702512
10896708859
10896714108
10896716855
10896722897
10896727292
10896734189
10896738888
10896746823
10896752255
10896757504
10896761593
10896767453
10896771176
10896776852
10896780636
10896788205
10896793210
10896799496
10896803463
10896808896
10896814633
10896818539
10896824337
10896830136
10896836361
10896842404
10896846615
10896851620
10896856076
10896860165
10896866635
10896867977
10896877255
10896882687
10896888424
10896893673
10896899288
10896905514
10896909420
10896913449
10896922543
10896928341
10896933956
10896938107
10896942928
10896949276
10896952999
10896959225
10896963741
10896971432
10896978024
10896983700
10896987911
10896993588
10896998714
10897004147
10897007565
10897017513
10897023251
10897027828
10897032528
10897042477
10897048092
10897055172
10897062496
10897069210
10897075741
10897080929
10897085628
10897093685
10897098263
10897104488
10897113094
10897120601
10897126705
10897130550
10897137203
10897140743
10897146724
10897152279
10897158443
10897163326
10897168453
10897174495
10897179378
10897184261
10897189022
10897196346
10897201839
10897207088
10897212154
10897218196
10897222408
10897228999
10897238216
10897241634
10897249324
10897254024
10897260555
10897265498
10897270198
10897274898
10897281673
10897287105
10897292049
10897296931
10897301509
10897307124
10897312129
10897319270
10897323360
10897329646
10897335322
10897339839
10897344417
10897349910
10897355586
10897361629
10897366450
10897371882
10897376338
10897381831
10897386287
10897391780
10897395808
10897403315
10897408564
10897413203
10897418574
10897424983
10897431025
10897436580
10897442195
10897445369
10897451411
10897455134
10897460810
10897468379
10897474910
10897480159
10897484675
10897489924
10897494990
10897501826
10897507441
10897512507
10897519465
10897524348
10897530512
10897535395
10897541071
10897548213
10897554926
10897563593
10897567561
10897574946
10897579462
10897584528
10897592280
10897600214
10897608393
10897615229
10897624384
10897632136
10897638911
10897647883
10897654169
10897663080
10897670344
10897679194
10897687250
10897693049
10897700068
10897706659
10897715326
10897724726
10897732843
10897738703
10897746698
10897751398
10897762079
10897771845
10897779230
10897784235
10897795954
10897801081
10897812189
10897817987
10897824823
10897832392
10897838617
10897844537
10897849176
10897861078
10897869318
10897876276
10897884027
10897890985
10897897577
10897905756
10897912225
10897918939
10897926691
10897933771
10897940057
10897946527
10897954523
