10716763519
10716770233
10716775360
10716781036
10716786896
10716793731
10716800689
10716806488
10716814361
10716819366
10716825897
10716833526
10716838592
10716846038
10716852447
10716859039
10716865264
10716873199
10716879486
10716884735
10716891693
10716900176
10716907379
10716914215
10716919402
10716926422
10716932647
10716939605
10716946136
10716953277
10716960052
10716967010
10716974029
10716980071
10716986236
10716993255
10716999480
10717006866
10717013396
10717020232
10717025664
10717032378
10717038970
10717045623
10717052093
10717057769
10717065154
10717070525
10717075957
10717082427
10717088714
10717094939
10717101226
10717106109
10717111968
10717116057
10717122039
10717129668
10717135100
10717140410
10717145720
10717151824
10717157134
10717164580
10717170195
10717176055
10717182036
10717186980
10717191863
10717198271
10717203398
10717208953
10717214263
10717220366
10717225005
10717230925
10717236968
10717243987
10717249663
10717253203
10717260283
10717264372
10717270415
10717276335
10717282988
10717287260
10717293913
10717299651
10717306486
10717312285
10717320036
10717325774
10717334135
10717338164
10717345488
10717351286
10717357023
10717362822
10717370268
10717375578
10717381987
10717386992
10717393339
10717398039
10717406035
10717411955
10717418303
10717428129
10717431730
10717440702
10717448149
10717455107
10717462858
10717468840
10717475614
10717481474
10717487150
10717493742
10717499052
10717506193
10717513517
10717518949
10717525358
10717532499
10717538542
10717545561
10717551786
10717559782
10717565824
10717573148
10717577787
10717585172
10717592496
10717598478
10717605497
10717611600
10717616849
10717623991
10717629240
10717636686
10717642545
10717649442
10717655851
10717660551
10717666349
10717673063
10717679593
10717686002
10717692228
10717700040
10717705167
10717711149
10717718717
10717726835
10717733365
10717742887
10717750150
10717756742
10717763639
10717769437
10717776517
10717783475
10717790616
10717796353
10717802884
10717810147
10717816007
10717823331
10717829740
10717836026
10717842313
10717849271
10717859097
10717865384
10717872281
10717879117
10717889737
10717899075
10717905179
10717913480
10717919522
10717928311
10717935208
10717945584
10717952298
10717961270
10717967984
10717976407
10717982205
10717988736
10717995266
10718005825
10718011197
10718020901
10718025296
10718035061
10718043240
10718051052
10718056973
10718070584
10718078884
10718090542
10718098049
10718109036
10718116543
10718124478
10718131741
10718138577
10718145046
10718152126
10718158657
10718165310
10718173367
10718180141
10718188869
10718194485
10718203518
10718210598
10718218288
10718226345
10718235439
10718241543
10718250576
10718257168
10718266445
10718272915
10718280727
10718289150
10718296718
10718305629
10718312709
10718319362
10718328762
10718337123
10718343593
10718350734
10718357631
10718365749
10718373744
10718381801
10718387721
10718396511
10718403896
10718412502
10718421535
10718430385
10718435573
10718443813
10718451076
10718459010
10718464504
10718473903
10718481898
10718488246
10718498500
10718506435
10718514369
10718522121
10718531886
10718540004
10718548305
10718556605
10718563014
10718571132
10718579738
10718588649
10718596095
10718604335
10718612208
10718619654
10718625331
10718634303
10718639918
10718649867
10718658107
10718664576
10718672511
10718681849
10718687892
10718696803
10718703883
10718710719
10718719935
10718726283
10718736048
10718741724
10718750208
10718756129
10718763026
10718772547
10718778712
10718789515
10718795985
10718810267
10718818568
10718828821
10718834986
10718845240
10718853296
10718861353
10718869654
10718878931
10718886133
10718893213
10718898768
10718908716
10718915125
10718922754
10718930262
10718937891
10718944056
10718951868
10718958033
10718965296
10718975366
10718983850
10718989832
10718997278
10719003870
10719010828
10719017481
10719024317
10719031824
10719038233
10719045862
10719053430
10719058740
10719066797
10719074060
10719079797
10719087488
10719093835
10719101587
10719108728
10719115625
10719123865
10719128503
10719137720
10719143823
10719151269
10719157800
10719165429
10719172998
10719178552
10719184167
10719192712
10719198388
10719206567
10719214868
10719222375
10719227990
10719236352
10719242150
10719251245
10719256982
10719265222
10719275048
10719281213
10719287194
10719296227
10719302697
10719309350
10719318688
10719324548
10719331994
10719339684
10719348168
10719355492
10719363366
10719370812
10719378625
10719384850
10719390893
10719401208
10719409997
10719416283
10719423913
10719431054
10719436852
10719446862
10719452538
10719461144
10719469994
10719476037
10719481835
10719490624
10719496483
10719502709
10719511864
10719519493
10719528344
10719535790
10719543480
10719551293
10719557396
10719566979
10719573509
10719579674
10719590538
10719598473
10719606957
10719613243
10719622643
10719629051
10719638146
10719644310
10719651451
10719661949
10719671043
10719677025
10719682823
10719691185
10719698082
10719704674
10719711449
10719719261
10719727379
10719735435
10719742088
10719749168
10719755638
10719762901
10719768516
10719776573
10719783775
10719791038
10719800132
10719808250
10719817527
10719825096
10719832603
10719840232
10719848167
10719855247
10719863670
10719870689
10719877891
10719883872
10719892661
10719897483
10719907432
10719913841
10719923606
10719934165
10719941856
10719951133
10719957603
10719967979
10719975730
10719983726
10719991172
10719997031
10720004783
10720011741
10720019370
10720027122
10720035422
10720043967
10720050132
10720058494
10720063559
10720072715
10720080161
10720087485
10720093100
10720100486
10720111228
10720118186
10720123557
10720130820
10720138022
10720145346
10720151084
10720159079
10720167990
10720175559
10720181418
10720187338
10720195700
10720202597
10720209250
10720215048
10720222739
10720231040
10720240805
10720245871
10720253256
10720260764
10720268149
10720275961
10720281210
10720291098
10720298422
10720304098
10720311484
10720319174
10720326437
10720332236
10720339743
10720347616
10720356650
10720366659
10720372458
10720381979
10720388510
10720396017
10720402548
10720413595
10720422201
10720429953
10720437521
10720446066
10720452475
10720459249
10720465109
10720472372
10720480978
10720488607
10720494650
10720502157
10720507833
10720515951
10720521932
10720531271
10720538595
10720548360
10720554281
10720561361
10720567892
10720575582
10720582174
10720590292
10720597555
10720604024
10720612386
10720619894
10720627096
10720631002
10720640157
10720648092
10720653585
10720662313
10720669881
10720675741
10720682088
10720690572
10720695516
10720703939
10720710530
10720719381
10720726400
10720733419
10720739827
10720746968
10720753621
10720760945
10720768636
10720776143
10720783345
10720791036
10720797322
10720804524
10720810262
10720818196
10720825826
10720830342
10720839620
10720847005
10720853963
10720860432
10720867574
10720873616
10720883015
10720888264
10720895467
10720904866
10720910725
10720917622
10720925801
10720933430
10720940816
10720946553
10720953389
10720961384
10720968220
10720977498
10720983662
10720990376
10720998616
10721005330
10721012349
10721017781
10721026265
10721034443
10721040608
10721047932
10721053852
10721062275
10721067890
10721074726
10721085163
10721093342
10721099507
10721106709
10721113911
10721120564
10721129414
10721137348
10721145283
10721153523
10721161274
10721168049
10721178425
10721185444
10721193073
10721201008
10721211689
10721217792
10721226154
10721232563
10721239155
10721245502
10721252765
10721259601
10721268146
10721275043
10721285602
10721292255
10721299396
10721305561
10721312946
10721318744
10721326068
10721335834
10721343586
10721347248
10721356037
10721363422
10721369342
10721377704
10721382648
10721391742
10721397907
10721407001
10721411701
10721420856
10721426044
10721433307
10721439594
10721446857
10721456317
10721463885
10721467609
10721476276
10721482074
10721488849
10721497699
10721504718
10721512530
10721519794
10721526874
10721533526
10721540790
10721547870
10721555133
10721561419
10721568622
10721576434
10721584796
10721590289
10721595965
10721604327
10721610247
10721618731
10721625079
10721632525
10721641803
10721648822
10721655902
10721662493
10721668719
10721675860
10721683734
10721689044
10721699481
10721704974
10721714129
10721721941
10721729205
10721737017
10721745013
10721753252
10721762469
10721770403
10721778277
10721786883
10721791399
10721801897
10721808916
10721816973
10721826800
10721834124
10721841143
10721849383
10721857134
10721865618
10721873369
10721877398
10721887529
10721899797
10721906939
10721915239
10721922991
10721929644
10721939958
10721946123
10721955034
10721959612
10721974565
10721983354
10721990984
10721997392
10722005449
10722013628
10722021501
10722028398
10722036333
10722042558
10722052141
10722058305
10722064897
10722074113
10722081193
10722089006
10722099870
10722108842
10722116106
10722123308
10722128801
10722138749
10722145036
10722153032
10722161332
10722167375
10722176164
10722183732
10722191240
10722196183
10722205095
10722211259
10722221574
10722228349
10722237382
10722243302
10722252397
10722259416
10722266252
10722273149
10722281327
10722289201
10722297685
10722303971
10722312211
10722318070
10722326371
10722332108
10722338883
10722348588
10722355485
10722364518
10722371354
10722378068
10722383805
10722391129
10722398637
10722406510
10722414811
10722422745
10722429581
10722436905
10722442582
10722449967
10722455826
10722463517
10722472489
10722480545
10722486832
10722493119
10722501664
10722508500
10722515091
10722521500
10722529312
10722536759
10722544693
10722552445
10722559525
10722566483
10722573685
10722580704
10722588455
10722597672
10722606278
10722613480
10722621231
10722628128
10722636124
10722642654
10722650589
10722658035
10722665665
10722673050
10722680496
10722688309
10722697525
10722704239
10722712967
10722725479
10722734573
10722741043
10722751114
10722759109
10722766861
10722774917
10722782913
10722790969
10722800003
10722807266
10722814285
10722822036
10722829055
10722836441
10722845535
10722852188
10722859085
10722865859
10722874832
10722881912
10722889297
10722895767
10722905105
10722911880
10722919265
10722926589
10722936111
10722941238
10722951125
10722958144
10722966079
10722973647
10722980422
10722988113
10722995193
10723001357
10723011062
10723015883
10723025954
10723031692
10723039260
10723046401
10723054336
10723061904
10723069777
10723076674
10723088515
10723098281
10723104262
10723111342
10723122573
10723130751
10723137526
10723145461
10723152236
10723161147
10723167067
10723175612
10723181471
10723190383
10723197646
10723205153
10723212416
10723222670
10723229384
10723235426
10723243605
10723251540
10723258437
10723267104
10723274062
10723283827
10723290480
10723297377
10723304945
10723313002
10723321486
10723330214
10723335951
10723344374
10723351332
10723357985
10723365431
10723372938
10723382704
10723388868
10723396132
10723403334
10723410597
10723417494
10723425489
10723436415
10723442518
10723452711
10723460401
10723468519
10723475599
10723484998
10723496473
10723504591
10723512830
10723521436
10723525770
10723535413
10723541517
10723550367
10723556654
10723564283
10723573255
10723578260
10723588148
10723594312
10723602308
10723610609
10723617872
10723625318
10723632520
10723639478
10723646863
10723653272
10723662000
10723668409
10723675306
10723684766
10723690320
10723699537
10723706556
10723713758
10723721082
10723729077
10723736280
10723744031
10723752881
10723760633
10723767041
10723774915
10723781140
10723790051
10723796399
10723803967
10723812512
10723821118
10723828381
10723835584
10723843579
10723850964
10723859021
10723863232
10723873669
10723879773
10723888867
10723895276
10723902356
10723911755
10723919140
10723926465
10723932202
10723940259
10723949658
10723957531
10723961926
10723971447
10723980236
10723985058
10723994336
10724001904
10724009350
10724017346
10724024609
10724031506
10724039440
10724046215
10724054211
10724060803
10724068798
10724075085
10724083874
10724090283
10724097851
10724106945
10724113354
10724120678
10724127514
10724137585
10724145336
10724152538
10724159801
10724167797
10724172008
10724181530
10724187939
10724196972
10724205578
10724210705
10724219799
10724227611
10724234569
10724242992
10724251232
10724258434
10724266979
10724277782
10724284862
10724293285
10724301220
10724308422
10724317150
10724326366
10724335155
10724344310
10724350170
10724358959
10724364940
10724371227
10724379344
10724387889
10724393382
10724402538
10724410350
10724417491
10724424999
10724432201
10724442088
10724449535
10724456920
10724466746
10724474498
10724482127
10724486583
10724496348
10724504405
10724509593
10724515208
10724524363
10724535350
10724540965
10724549693
10724557689
10724563853
10724572032
10724578990
10724585765
10724594981
10724602427
10724609385
10724618418
10724625560
10724632884
10724640879
10724647105
10724655100
10724661753
10724670054
10724678416
10724686289
10724692576
10724699473
10724708689
10724715952
10724723216
10724730418
10724738352
10724745371
10724753489
10724760691
10724768626
10724774912
10724783213
10724793040
10724797800
10724807078
10724813242
10724822336
10724829661
10724837107
10724843149
10724854258
10724861643
10724868601
10724874826
10724884287
10724894175
10724904795
10724911142
10724917429
10724927317
10724933481
10724942942
10724948862
10724958689
10724964548
10724974985
10724980417
10724988901
10724998544
10725005686
10725012399
10725020883
10725028207
10725037180
10725044565
10725053232
10725063180
10725072824
10725078744
10725090158
10725099008
10725107553
10725116220
10725124643
10725133371
10725144784
10725153940
10725161264
10725169015
10725175546
10725184152
10725190622
10725199105
10725207406
10725213266
10725222299
10725228463
10725235604
10725242929
10725253549
10725261300
10725268441
10725276315
10725282174
10725290902
10725296883
10725305428
10725313241
10725319955
10725329354
10725335763
10725345773
10725351998
10725358590
10725368355
10725375313
10725382516
10725390145
10725397591
10725404854
10725412362
10725416390
10725426400
10725432076
10725440072
10725447640
10725454903
10725460518
10725467476
10725475716
10725481881
10725491036
10725497078
10725504402
10725512642
10725519966
10725526802
10725534615
10725543343
10725551338
10725558113
10725566109
10725572395
10725580635
10725586800
10725595772
10725603890
10725611702
10725617928
10725626106
10725634346
10725643684
10725650825
10725658333
10725666084
10725670174
10725678902
10725685066
10725692757
10725700325
10725708076
10725720039
10725726997
10725734260
10725743171
10725750374
10725752388
10725765815
10725772468
10725781257
10725788948
10725796699
10725804267
10725810615
10725818672
10725824653
10725831977
10725840888
10725848091
10725855964
10725862678
10725867500
10725877693
10725884590
10725893134
10725900520
10725907539
10725914497
10725923042
10725931403
10725938972
10725946601
10725954841
10725964118
10725971564
10725978889
10725986396
10725993598
10726003730
10726010200
10726018195
10726023383
10726035529
10726041266
10726051215
10726056769
10726066596
10726072760
10726080512
10726089118
10726097052
10726104926
10726112921
10726120246
10726125861
10726134650
10726142401
10726149054
10726155707
10726164923
10726170905
10726180243
10726185675
10726196112
10726202277
10726210822
10726219916
10726228339
10726235297
10726243170
10726249884
10726259955
10726265509
10726274603
10726281439
10726289068
10726296393
10726304205
10726312140
10726319952
10726328314
10726335211
10726343145
10726349371
10726358038
10726366888
10726372137
10726381292
10726386480
10726395575
10726402716
10726409735
10726416815
10726424688
10726431646
10726439459
10726448797
10726454717
10726462957
10726470892
10726477239
10726483587
10726492864
10726499761
10726507024
10726513738
10726521612
10726530706
10726538091
10726545354
10726553228
10726560369
10726568365
10726574590
10726582525
10726590642
10726596746
10726606573
10726611883
10726621038
10726628728
10726635869
10726642766
10726650579
10726657232
10726664983
10726674321
10726684636
10726694219
10726702092
10726709783
10726718450
10726725835
10726734319
10726743901
10726750432
10726759526
10726765202
10726775273
10726783208
10726790227
10726798222
10726805364
10726812566
10726820378
10726827763
10726835759
10726842961
10726850835
10726857182
10726867070
10726872868
10726880437
10726886113
10726894719
10726901127
10726908940
10726916020
10726923405
10726932683
10726938542
10726948491
10726955815
10726963017
10726970341
10726978215
10726982487
10726992436
10726998234
10727006291
10727011906
10727021549
10727027592
10727036686
10727042851
10727050358
10727057743
10727064091
10727073918
10727079716
10727087589
10727096317
10727102055
10727108585
10727117802
10727124088
10727133610
10727139957
10727148930
10727155216
10727161991
10727171207
10727178532
10727185856
10727194218
10727201175
10727207767
10727215824
10727223087
10727231144
10727237369
10727246891
10727253238
10727261234
10727269657
10727275333
10727284427
10727291019
10727298038
10727306522
10727313968
10727322330
10727330570
10727337100
10727345096
10727351261
10727359744
10727365848
10727372562
10727381778
10727388858
10727398013
10727404910
10727411929
10727417911
10727427982
10727434085
10727445254
10727454105
10727463260
10727471622
10727479922
10727486636
10727495364
10727505801
10727512332
10727524783
10727534549
10727540164
10727552615
10727565615
10727572635
10727580447
10727590457
10727597781
10727604495
10727614749
10727620425
10727627993
10727635378
10727642703
10727647219
10727658694
10727664553
10727672183
10727678469
10727688418
10727694521
10727703494
10727710146
10727717654
10727726748
10727735049
10727741152
10727748904
10727756167
10727763003
10727773073
10727780581
10727787844
10727795107
10727802920
10727809511
10727817446
10727825747
10727831667
10727838015
10727847597
10727855898
10727863771
10727869875
10727877077
10727886354
10727891542
10727899416
10727958925
10727967043
10727973695
10727979799
10727987611
10727993715
10728001527
10728008546
10728014833
10728021181
10728027406
10728033144
10728039369
10728046449
10728053773
10728059511
10728065797
10728072084
10728077882
10728085023
10728092103
10728102113
10728109315
10728115297
10728122438
10728128846
10728135682
10728143190
10728150270
10728158021
10728165101
10728171510
10728178895
10728185426
10728194276
10728198915
10728209046
10728215394
10728224244
10728230958
10728240418
10728247437
10728254456
10728261781
10728272462
10728282838
10728288575
10728297608
10728304017
10728313050
10728318238
10728326356
10728332398
10728341004
10728346802
10728355286
10728362061
10728366822
10728374756
10728380372
10728388306
10728394044
10728402161
10728409241
10728415772
10728422913
10728429505
10728435669
10728444581
10728451966
10728458374
10728465149
10728472596
10728480225
10728486084
10728495117
10728501038
10728509522
10728517456
10728523804
10728531006
10728540405
10728546387
10728555359
10728562561
10728569641
10728575256
10728586182
10728592529
10728601868
10728607849
10728617859
10728623108
10728633301
10728640747
10728647949
10728655395
10728663269
10728669433
10728677124
10728683472
10728691894
10728700500
10728709350
10728715637
10728722839
10728730224
10728737610
10728744873
10728754028
10728761352
10728768127
10728775878
10728783264
10728791442
10728798400
10728806274
10728812683
10728823181
10728830444
10728838806
10728844970
10728852294
10728859557
10728868530
10728875732
10728880920
10728890929
10728898376
10728906371
10728910522
10728920348
10728928710
10728933593
10728942870
10728948974
10728958556
10728965514
10728974669
10728981505
10728990661
10728996154
10729004027
10729012206
10729020751
10729030394
10729042296
10729048461
10729058959
10729065123
10729076171
10729084655
10729092528
10729100585
10729108519
10729112853
10729122679
10729129393
10729138304
10729144591
10729153624
10729159972
10729167784
10729176817
10729182066
10729191283
10729199278
10729206419
10729213133
10729220885
10729228392
10729236204
10729242918
10729250792
10729257078
10729264586
10729273802
10729280272
10729286497
10729294737
10729301329
10729308775
10729315916
10729322996
10729330931
10729335569
10729349058
10729355345
10729363218
10729371031
10729378782
10729386228
10729392149
10729400389
10729408384
10729414976
10729422972
10729430052
10729437986
10729445127
10729453123
10729460874
10729467710
10729475645
10729484129
10729491819
10729496275
10729505552
10729511777
10729518919
10729528135
10729534605
10729541929
10729549619
10729559568
10729564817
10729572812
10729582517
10729588560
10729594724
10729604001
10729613157
10729620969
10729627256
10729635007
10729642331
10729649595
10729658811
10729663694
10729673642
10729680722
10729688718
10729696103
10729704221
10729710446
10729718381
10729724973
10729734433
10729743710
10729751523
10729757810
10729764768
10729773862
10729781308
10729788571
10729793881
10729803952
10729810849
10729818723
10729826230
10729835446
10729842160
10729850827
10729857602
10729865353
10729876156
10729884030
10729891659
10729899045
10729908871
10729917538
10729924740
10729932187
10729939450
10729946286
10729954098
10729960995
10729968380
10729972164
10729982174
10729987912
10729996945
10730003659
10730011837
10730019833
10730027584
10730034237
10730044003
10730052364
10730060116
10730064510
10730074093
10730080746
10730089901
10730098568
10730106564
10730112728
10730118282
10730128475
10730137203
10730142696
10730149227
10730157650
10730164547
10730171139
10730176449
10730183773
10730193233
10730200374
10730207271
10730214412
10730221004
10730228389
10730234981
10730243038
10730250423
10730260250
10730267391
10730272029
10730280513
10730285884
10730294551
10730300533
10730309627
10730316707
10730323848
10730329891
10730337276
10730343318
10730350826
10730358943
10730364497
10730374690
10730382564
10730386287
10730395625
10730403621
10730408076
10730416621
10730422176
10730432246
10730438838
10730447810
10730454158
10730460811
10730467280
10730474849
10730482173
10730489558
10730497859
10730505671
10730512813
10730523188
10730529353
10730539729
10730545893
10730557673
10730565058
10730574214
10730580439
10730589595
10730596369
10730603938
10730608637
10730619197
10730624079
10730637080
10730645625
10730654719
10730662287
10730676020
10730682551
10730693232
10730700129
10730710383
10730717158
10730725397
10730732416
10730740229
10730746455
10730755549
10730762324
10730771784
10730780573
10730788386
10730796137
10730803766
10730811579
10730819635
10730827997
10730835321
10730842768
10730852533
10730861444
10730867792
10730875177
10730882502
10730890863
10730896723
10730906427
10730912714
10730922113
10730928949
10730937616
10730943964
10730952692
10730959100
10730966364
10730975336
10730983331
10730989313
10730996271
10731006525
10731012689
10731021600
10731028680
10731036737
10731045038
10731049188
10731057916
10731067132
10731074518
10731083001
10731090936
10731098199
10731106134
10731113397
10731121270
10731127984
10731137323
10731143548
10731152826
10731158929
10731166925
10731174188
10731182122
10731189630
10731197930
10731205010
10731211846
10731219842
10731226190
10731233941
10731242181
10731247247
10731256524
10731262872
10731271966
10731278497
10731285699
10731289727
10731300469
10731309380
10731315179
10731324700
10731330559
10731336602
10731346734
10731353142
10731358880
10731368218
10731376458
10731383843
10731391900
10731399102
10731406792
10731415215
10731424614
10731433525
10731440911
10731449700
10731458184
10731469109
10731476372
10731484734
10731489006
10731499138
10731502861
10731512566
10731519585
10731528130
10731534722
10731543877
10731549492
10731558037
10731565910
10731571220
10731580315
10731586357
10731595329
10731601067
10731607597
10731614250
10731621635
10731629753
10731635063
10731644157
10731651970
10731656181
10731666191
10731672050
10731681206
10731686821
10731695610
10731703605
10731712944
10731719413
10731725883
10731734184
10731740654
10731747184
10731754936
10731761955
10731770988
10731778190
10731785881
10731792716
10731798820
10731806205
10731813041
10731820426
10731830009
10731835929
10731844901
10731852714
10731856620
10731867240
10731874015
10731884330
10731892326
10731899955
10731908317
10731916373
10731924857
10731932792
10731940604
10731948783
10731958182
10731966727
10731970756
10731980948
10731987540
10731996756
10732002982
10732010062
10732017936
10732027640
10732035453
10732042044
10732049918
10732057364
10732065543
10732079581
10732087699
10732093802
10732102225
10732109183
10732119071
10732125784
10732133414
10732140128
10732148245
10732156119
10732163931
10732171133
10732178824
10732186209
10732194083
10732202444
10732209463
10732217032
10732227408
10732234305
10732243277
10732249686
10732257681
10732265616
10732276480
10732283011
10732294363
10732298697
10732308096
10732314322
10732324026
10732331106
10732338675
10732347097
10732354910
10732359426
10732368887
10732377188
10732382070
10732391470
10732397634
10732406607
10732415335
10732421926
10732429678
10732435781
10732445059
10732451528
10732458547
10732468679
10732475332
10732484670
10732490957
10732500784
10732508840
10732515493
10732524465
10732530752
10732538381
10732545766
10732553213
10732560293
10732568471
10732576162
10732582143
10732592702
10732598745
10732608632
10732615224
10732623159
10732630300
10732638112
10732645925
10732654531
10732661245
10732670644
10732676931
10732683766
10732693044
10732698903
10732708119
10732715688
10732723195
10732729665
10732737416
10732745900
10732753896
10732760671
10732768483
10732774709
10732784169
10732790700
10732797108
10732806325
10732813283
10732820546
10732828419
10732835866
10732844838
10732852101
10732858632
10732866505
10732875294
10732881154
10732889454
10732897572
10732903798
10732910695
10732920216
10732926869
10732933949
10732940785
10732948964
10732955616
10732965687
10732969899
10732979481
10732987843
10732995777
10733002186
10733011585
10733018299
10733026234
10733034413
10733041126
10733052174
10733058521
10733067493
10733076160
10733085255
10733089649
10733101246
10733107655
10733116749
10733125965
10733133839
10733139942
10733147083
10733156544
10733161915
10733171192
10733179310
10733187488
10733196094
10733205372
10733213184
10733220264
10733226734
10733236560
10733243335
10733251209
10733258716
10733266407
10733274402
10733282398
10733288562
10733294910
10733304309
10733311267
10733321216
10733326648
10733336047
10733341846
10733351917
10733357105
10733365039
10733372913
10733380786
10733389697
10733397632
10733405627
10733411609
10733419849
10733428210
10733434375
10733442187
10733449573
10733457812
10733466357
10733476123
10733482776
10733490954
10733497851
10733503650
10733514087
10733521472
10733529406
10733536975
10733542529
10733548327
10733556994
10733563159
10733570239
10733580798
10733590319
10733596850
10733606555
10733612536
10733619616
10733629504
10733637316
10733645312
10733654772
10733662951
10733668749
10733679613
10733685656
10733696459
10733702563
10733713610
10733719408
10733731920
10733738207
10733746386
10733750475
10733760912
10733769884
10733776476
10733787951
10733795031
10733801989
10733810778
10733821032
10733827318
10733837694
10733845629
10733856798
10733864977
10733872606
10733884569
10733890489
10733900255
10733906481
10733913561
10733923509
10733929796
10733938585
10733944872
10733953539
10733959886
10733968431
10733973924
10733982591
10733989244
10733998277
10734004747
10734013475
10734020433
10734027147
10734034349
10734040880
10734046983
10734056077
10734062364
10734070237
10734078050
10734085985
10734092271
10734098619
10734108506
10734114366
10734123704
10734129136
10734137132
10734144517
10734152330
10734160447
10734167955
10734175889
10734183091
10734189927
10734197007
10734202928
10734212388
10734218675
10734227769
10734234544
10734241197
10734250291
10734257371
10734264573
10734273118
10734280076
10734286301
10734294114
10734301926
10734310532
10734316758
10734324876
10734330979
10734338853
10734348679
10734355820
10734366440
10734374253
10734380173
10734387131
10734393906
10734401780
10734408555
10734414902
10734422287
10734429490
10734437485
10734444443
10734451706
10734459030
10734466355
10734471909
10734478134
10734486984
10734494736
10734500900
10734506821
10734515488
10734522202
10734528977
10734535141
10734542648
10734552170
10734559250
10734565475
10734572739
10734579697
10734586960
10734592941
10734598617
10734607712
10734617172
10734623642
10734633224
10734640365
10734649582
10734655746
10734664169
10734671432
10734682296
10734689132
10734696090
10734706100
10734714340
10734722641
10734727096
10734736068
10734743759
10734750900
10734757858
10734764511
10734772506
10734779830
10734786239
10734793441
10734803512
10734811263
10734818649
10734826461
10734833968
10734841842
10734846114
10734855941
10734864120
10734871200
10734878341
10734886031
10734892745
10734902572
10734907821
10734917892
10734923873
10734933456
10734938705
10734948348
10734954879
10734963119
10734970199
10734977706
10734984908
10734994368
10735002669
10735010604
10735019210
10735026351
10735033675
10735041060
10735048812
10735057601
10735063460
10735072127
10735078963
10735084700
10735094527
10735102156
10735110030
10735119124
10735126082
10735134200
10735141158
10735148177
10735158247
10735165755
10735173018
10735181380
10735190169
10735197554
10735205000
10735215010
10735222883
10735228987
10735239851
10735247542
10735254316
10735261274
10735268599
10735275618
10735284163
10735291609
10735302107
10735310164
10735318342
10735325727
10735336164
10735343550
10735353376
10735362409
10735368391
10735376081
10735382063
10735392683
10735399275
10735414778
10735422651
10735431013
10735440412
10735448713
10735457746
10735465864
10735477399
10735483442
10735492963
10735501264
10735507856
10735515302
10735521467
10735529584
10735538068
10735546186
10735553022
10735560956
10735567426
10735577558
10735581708
10735591474
10735599958
10735607648
10735615705
10735621137
10735630536
10735637494
10735644635
10735650434
10735660504
10735668073
10735676068
10735683209
10735691205
10735695355
10735705670
10735711957
10735719403
10735728681
10735735761
10735742963
10735751630
10735758710
10735764630
10735772443
10735780621
10735788678
10735797040
10735804852
10735812054
10735817181
10735826398
10735833539
10735840680
10735848919
10735858258
10735864850
10735872113
10735880719
10735888043
10735895428
10735903424
10735907574
10735917401
10735924298
10735934063
10735941571
10735949627
10735955914
10735963848
10735970135
10735977032
10735986431
10735993023
10736002300
10736009380
10736016644
10736024761
10736031902
10736039410
10736046734
10736053692
10736064007
10736075848
10736082073
10736091106
10736097210
10736104595
10736114666
10736123333
10736130108
10736137127
10736146404
10736153606
10736160869
10736167034
10736174846
10736184063
10736192730
10736200725
10736210979
10736220256
10736233440
10736239666
10736250713
10736262065
10736268718
10736277507
10736286662
10736296062
10736302043
10736311138
10736315166
10736326762
10736333720
10736341655
10736346050
10736355815
10736361675
10736371623
10736378215
10736386638
10736392863
10736401225
10736410380
10736417338
10736424724
10736430888
10736441447
10736449565
10736458842
10736465922
10736473246
10736481059
10736488200
10736495707
10736503703
10736510966
10736518901
10736527385
10736533244
10736542704
10736547648
10736556987
10736563456
10736570902
10736578959
10736586222
10736592631
10736600749
10736608805
10736616618
10736623881
10736631693
10736639262
10736647196
10736653361
10736659647
10736669047
10736676432
10736683756
10736689860
10736699992
10736705973
10736713785
10736722269
10736730021
10736736490
10736744364
10736750467
10736757670
10736766886
10736773600
10736780985
10736790018
10736797220
10736805460
10736812662
10736819620
10736827555
10736832010
10736842752
10736849039
10736856851
10736865274
10736873331
10736879618
10736888040
10736895365
10736900980
10736911295
10736918863
10736926004
10736930032
10736940591
10736948465
10736954507
10736960977
10736969461
10736979044
10736985086
10736994302
10737001749
10737008951
10737016885
10737025247
10737033121
10737041665
10737049905
10737058328
10737066018
10737075296
10737082315
10737090921
10737097818
10737111428
10737118997
10737126870
10737133523
10737141397
10737147805
10737158547
10737165261
10737177163
10737185830
10737191751
10737200967
10737206765
10737213296
10737222939
10737229409
10737236428
10737245705
10737250954
10737261086
10737267190
10737275185
10737282326
10737290200
10737297463
10737305703
10737311806
10737321633
10737328042
10737336037
10737342263
10737350014
10737357522
10737366982
10737374184
10737381752
10737389138
10737396462
10737402321
10737410866
10737419411
10737425759
10737434365
10737440651
10737448830
10737456154
10737464028
10737471352
10737478066
10737486122
10737493019
10737500832
10737509377
10737517372
10737524574
10737532570
10737539101
10737546181
10737553322
10737562050
10737571205
10737577797
10737584877
10737592567
10737600502
10737607887
10737615944
10737624183
10737629982
10737639442
10737644325
10737653663
10737659462
10737668922
10737675880
10737683387
10737690101
10737698036
10737706459
10737714454
10737720619
10737728553
10737735023
10737741981
10737751808
10737760597
10737766944
10737774391
10737783668
10737789161
10737798499
10737805702
10737813209
10737820167
10737828040
10737834876
10737843116
10737853065
10737859779
10737866737
10737877051
10737884315
10737892921
10737905128
10737915259
10737919654
10737929603
10737936866
10737946265
10737954688
10737959510
10737968848
10737976539
10737983680
10737989356
10737999366
10738005652
10738013770
10738022315
10738028113
10738037268
10738043372
10738051673
10738057044
10738066382
10738073950
10738083228
10738090552
10738097815
10738104102
10738112036
10738119788
10738127905
10738135291
10738143164
10738147803
10738157202
10738165381
10738171606
10738181006
10738187414
10738194556
10738201514
10738211645
10738218542
10738225867
10738232824
10738240881
10738249426
10738255346
10738261511
10738270666
10738279150
10738284704
10738294043
10738301428
10738308630
10738315161
10738322973
10738331335
10738339147
10738346472
10738354589
10738361608
10738369665
10738375952
10738383520
10738390600
10738397985
10738407568
10738414526
10738423742
10738428869
10738438940
10738445409
10738453222
10738459875
10738467992
10738475622
10738483495
10738489843
10738497045
10738506261
10738512548
10738519933
10738528356
10738535680
10738547094
10738553380
10738560888
10738567968
10738576085
10738583165
10738589574
10738597570
10738608312
10738615758
10738624425
10738631627
10738638890
10738646825
10738654454
10738660375
10738670445
10738679234
10738689366
10738697240
10738705968
10738714391
10738723485
10738729649
10738736241
10738747166
10738754247
10738763341
10738769566
10738777562
10738787022
10738793004
10738802281
10738809605
10738816990
10738824681
10738832127
10738839512
10738847447
10738854222
10738861973
10738870457
10738875401
10738884861
10738892796
10738899266
10738907627
10738914769
10738922337
10738929539
10738937596
10738945347
10738952915
10738958897
10738965000
10738975498
10738981846
10738989109
10738996800
10739005406
10739012669
10739018467
10739026524
10739033237
10739041294
10739047703
10739056797
10739066074
10739074070
10739080234
10739087009
10739096165
10739101719
10739111118
10739118259
10739125706
10739133274
10739141086
10739148105
10739156162
10739163181
10739170993
10739177219
10739184787
10739194370
10739204197
10739210239
10739219944
10739226291
10739235202
10739241489
10739248203
10739257602
10739264560
10739271518
10739279331
10739286350
10739292819
10739302402
10739307529
10739317966
10739326511
10739333469
10739339450
10739348972
10739356296
10739363559
10739370822
10739378146
10739387240
10739394443
10739400302
10739409884
10739416903
10739423800
10739430026
10739440158
10739447726
10739457126
10739464877
10739472995
10739481662
10739489352
10739496859
10739505282
10739514743
10739524508
10739531771
10739542086
10739549472
10739557406
10739564425
10739574435
10739582675
10739589755
10739595553
10739603365
10739611117
10739619173
10739625582
10739634005
10739640353
10739665621
10739673006
10739680453
10739687716
10739694735
10739702486
10739711214
10739717013
10739723482
10739732271
10739738558
10739747774
10739754183
10739762178
10739771639
10739777742
10739785494
10739792574
10739800508
10739809298
10739815401
10739824800
10739830599
10739839022
10739847505
10739856844
10739861727
10739871187
10739876497
10739885713
10739893282
10739900545
10739907625
10739915498
10739924226
10739932283
10739939180
10739947115
10739953401
10739961397
10739970430
10739975435
10739984468
10739991792
10739999299
10740006257
10740014314
10740021455
10740029451
10740038362
10740046296
10740052888
10740061189
10740067415
10740075593
10740081819
10740089814
10740097261
10740104036
10740113862
10740120149
10740128205
10740135530
10740143525
10740150300
10740158357
10740167085
10740175080
10740181306
10740187287
10740196443
10740204194
10740211335
10740217316
10740227265
10740235017
10740242402
10740249482
10740257478
10740264619
10740272797
10740279084
10740287629
10740294526
10740302338
10740310517
10740320405
10740328278
10740335175
10740343781
10740351960
10740361054
10740369233
10740380280
10740387055
10740396515
10740402802
10740410004
10740416962
10740424897
10740433319
10740441010
10740448883
10740454743
10740464081
10740470001
10740478363
10740484711
10740494171
10740499848
10740507111
10740516205
10740523163
10740531036
10740537567
10740545197
10740551361
10740557892
10740568268
10740574432
10740582672
10740588959
10740596893
10740604156
10740614349
10740622101
10740630707
10740637726
10740647125
10740654266
10740660980
10740669586
10740676849
10740684661
10740692352
10740700286
10740706695
10740714447
10740724029
10740730804
10740738616
10740748138
10740756988
10740765594
10740775054
10740779571
10740789275
10740795196
10740804168
10740810272
10740817413
10740824554
10740834747
10740842559
10740850249
10740858367
10740862395
10740871856
10740878081
10740887481
10740894195
10740902556
10740912627
10740920257
10740927337
10740933745
10740941924
10740949431
10740957549
10740962493
10740972442
10740982085
10740986968
10740996306
10741002532
10741011870
10741016692
10741027129
10741036406
10741044463
10741050261
10741058196
10741066252
10741073882
10741079802
10741087309
10741094206
10741104155
10741110503
10741117094
10741126921
10741133635
10741140898
10741150969
10741159514
10741168181
10741177458
10741184416
10741190397
10741199980
10741205717
10741212919
10741221342
10741229277
10741234953
10741243254
10741248869
10741259489
10741267546
10741273100
10741281950
10741288908
10741294523
10741300993
10741307096
10741313627
10741319120
10741328276
10741335050
10741342497
10741352079
10741360624
10741369657
10741376737
10741384184
10741391630
10741399870
10741406828
10741413297
10741421049
10741428190
10741436674
10741444852
10741453153
10741462308
10741469633
10741475248
10741483243
10741491727
10741499357
10741507230
10741514005
10741522733
10741531522
10741539151
10741547513
10741555692
10741564054
10741571195
10741579801
10741590604
10741597867
10741606107
10741613797
10741622281
10741630094
10741640531
10741648038
10741656949
10741666654
10741673184
10741679654
10741688992
10741697171
10741708096
10741715543
10741725797
10741735379
10741741666
10741749234
10741759366
10741767178
10741775174
10741783475
10741791348
10741798855
10741807522
10741816311
10741822659
10741828030
10741836331
10741845974
10741854580
10741866543
10741874478
10741880886
10741889981
10741896939
10741906277
10741912808
10741921719
10741929409
10741938381
10741946194
10741953579
10741964443
10741970181
10741978970
10741987637
10741996059
10742004726
10742012783
10742019680
10742027676
10742035549
10742040066
10742049343
10742057583
10742062771
10742068874
10742076626
10742081814
10742089992
10742096096
10742104641
10742113003
10742119045
10742126369
10742132473
10742140041
10742146206
10742152065
10742158962
10742169826
10742176845
10742184169
10742191433
10742199855
10742206691
10742214687
10742222255
10742230251
10742237819
10742244777
10742254726
10742261745
10742271327
10742277797
10742287990
10742294643
10742304286
10742310939
10742320766
10742327296
10742337367
10742344325
10742352321
10742363002
10742369960
10742378627
10742387294
10742395534
10742402675
10742410731
10742420802
10742428981
10742438197
10742446010
10742454799
10742461818
10742467982
10742476832
10742484462
10742490870
10742501307
10742505458
10742515345
10742521632
10742531520
10742536280
10742550562
10742557765
10742565943
10742573878
10742582667
10742590113
10742598719
10742605799
10742613001
10742622095
10742628748
10742636134
10742644801
10742651942
10742658778
10742666834
10742678309
10742685816
10742693934
10742701319
10742708826
10742717371
10742727320
10742736719
10742745936
10742755640
10742762293
10742772486
10742778284
10742785974
10742793299
10742801416
10742807825
10742819055
10742824976
10742832422
10742840540
10742845178
10742853662
10742859827
10742866663
10742876978
10742884241
10742890772
10742899194
10742904749
10742912256
10742919580
10742926843
10742934900
10742942651
10742949731
10742957178
10742963098
10742970300
10742976037
10742982934
10742991418
10742999048
10743005334
10743014245
10743020776
10743028405
10743035730
10743044030
10743051294
10743058923
10743067285
10743073632
10743081750
10743090234
10743096093
10743104638
10743111413
10743118310
10743127221
10743134179
10743141747
10743148644
10743153954
10743163232
10743168542
10743175988
10743183984
10743191491
10743200341
10743208581
10743217797
10743227135
10743234582
10743243981
10743253869
10743261620
10743269860
10743281701
10743291833
10743299645
10743311364
10743318078
10743329369
10743341149
10743353905
10743361962
10743374413
10743382836
10743391991
10743401573
10743412010
10743419823
10743427696
10743439598
10743451134
10743462853
10743470421
10743482201
10743491356
10743499291
10743510338
10743520348
10743528954
10743539818
10743550560
10743561790
10743569542
10743581016
10743591270
10743598778
10743608543
10743616478
10743627769
10743640098
10743653892
10743660179
10743671287
10743681297
10743690452
10743701866
10743713645
10743722923
10743739402
10743747520
10743758994
10743771873
10743783958
10743795066
10743806541
10743816184
10743828880
10743842368
10743851829
10743864707
10743873557
10743884788
10743895041
10743905662
10743913596
10743925193
10743932212
10743942527
10743953513
10743964865
10743975547
10743984030
10743993003
10744002707
10744016867
10744028098
10744035483
10744047690
10744056052
10744067282
10744077109
10744088278
10744094870
10744107260
10744117453
10744125876
10744139609
10744148154
10744156271
10744165426
10744176718
10744185751
10744193808
10744204977
10744214438
10744226828
10744235495
10744246725
10744255636
10744262533
10744272970
10744283407
10744291098
10744303244
10744313375
10744322347
10744335531
10744348898
10744360128
10744369222
10744379110
10744390890
10744402914
10744412252
10744422140
10744436178
10744443746
10744455465
10744466512
10744474752
10744486349
10744498983
10744506246
10744516927
10744528768
10744538167
10744551046
10744563131
10744572652
10744583150
10744593770
10744605367
10744615254
10744625142
10744635396
10744646260
10744658040
10744668050
10744677083
10744687459
10744698445
10744709492
10744720113
10744729207
10744738606
10744751240
10744760945
10744770955
10744779072
10744791401
10744800190
10744809651
10744820454
10744831685
10744841999
10744852070
10744862385
10744870076
10744883503
10744899067
10744907490
10744919880
10744929646
10744940571
10744952839
10744962910
10744970905
10744983295
10744993183
10745000019
10745012287
10745020039
10745029194
10745035602
10745046406
10745054401
10745060932
10745067402
10745076984
10745083210
10745090900
10745100361
10745106525
10745113849
10745120197
10745130390
10745138080
10745145160
10745149250
10745159565
10745168048
10745175922
10745183307
10745188495
10745198078
10745206256
10745212543
10745220111
10745227374
10745236041
10745243305
10745250812
10745258807
10745263324
10745276447
10745282245
10745290851
10745298236
10745303851
10745306659
10745313678
10745319354
10745328754
10745331866
10745338641
10745343219
10745348285
10745352191
10745358050
10745362994
10745368609
10745375628
10745379718
10745386249
10745391070
10745396075
10745402057
10745407062
10745413592
10745418902
10745423907
10745429522
10745434161
10745440020
10745446002
10745451678
10745458392
10745465472
10745470294
10745475848
10745479083
10745486651
10745491412
10745496783
10745502215
10745508013
10745515460
10745520342
10745525958
10745531329
10745537188
10745542742
10745547381
10745554644
10745560809
10745565814
10745572222
10745577105
10745583147
10745588519
10745593462
10745599566
10745606951
10745614336
10745620989
10745627032
10745632708
10745639727
10745643938
10745651446
10745658953
10745663714
10745671953
10745674700
10745680926
10745686114
10745691179
10745695391
10745700823
10745705156
10745711443
10745716936
10745722063
10745726030
10745731401
10745736895
10745742266
10745747881
10745750994
10745756914
10745762346
10745766191
10745770586
10745776628
10745781328
10745787432
10745791887
10745796648
10745802629
10745807085
10745812639
10745818132
10745824907
10745831133
10745834490
10745840837
10745845171
10745850969
10745855242
10745862077
10745866777
10745873491
10745877824
10745884477
10745889360
10745895708
10745900346
10745905168
10745912370
10745917802
10745922868
10745928361
10745933061
10745938371
10745942583
10745948686
10745953752
10745961748
10745966325
10745972856
10745977250
10745981950
10745988420
10745992204
10745998674
10746003190
10746010087
10746014482
10746020952
10746024431
10746030046
10746036088
10746040055
10746044999
10746051957
10746056901
10746063188
10746067582
10746072160
10746078569
10746083268
10746088945
10746095170
10746100419
10746106095
10746111039
10746115251
10746120744
10746125932
10746131303
10746136613
10746143693
10746149735
10746156083
10746159745
10746171586
10746178727
10746186662
10746190446
10746201798
10746208756
10746213944
10746219681
10746225114
10746230607
10746236039
10746242753
10746248124
10746252030
10746258988
10746263077
10746268509
10746273759
10746279191
10746285050
10746291276
10746297196
10746301285
10746306901
10746310990
10746317337
10746322525
10746327408
10746332413
10746339249
10746343949
10746350174
10746355240
10746360123
10746365189
10746370377
10746376358
10746381607
10746387833
10746393387
10746399918
10746405533
10746409744
10746415848
10746422440
10746428726
10746435318
10746441544
10746447586
10746453934
10746457474
10746465530
10746471939
10746478348
10746483475
10746489334
10746496048
10746500687
10746507339
10746511002
10746518326
10746524551
10746530106
10746536209
10746541702
10746546280
10746552261
10746558731
10746563309
10746568191
10746575760
10746580398
10746586502
10746590896
10746595779
10746602493
10746608291
10746612320
10746619156
10746624527
10746629348
10746634781
10746640640
10746645950
10746651016
10746656570
10746661880
10746668045
10746673477
10746678543
10746685195
10746689102
10746695388
10746700515
10746705459
10746711929
10746717788
10746722610
10746727615
10746732070
10746737686
10746742996
10746748428
10746754043
10746761428
10746771194
10746776260
10746782241
10746790115
10746796218
10746801528
10746809158
10746814773
10746820510
10746828261
10746833205
10746839004
10746843886
10746850722
10746855056
10746861892
10746865920
10746870864
10746877028
10746882033
10746886611
10746892165
10746898086
10746905532
10746909560
10746915175
10746920302
10746925673
10746929763
10746934584
10746941970
10746948561
10746953017
10746958449
10746962844
10746967787
10746973952
10746977492
10746984267
10746989211
10746995314
10747000258
10747005751
10747012160
10747016554
10747022902
10747026747
10747034560
10747041823
10747046950
10747052748
10747057997
10747064223
10747069777
10747074355
10747080214
10747083754
10747092604
10747095656
10747102370
10747106947
10747113783
10747118300
10747124708
10747130446
10747136610
10747141859
10747148390
10747154127
10747159987
10747165419
10747170424
10747176466
10747179884
10747186659
10747191725
10747198927
10747203566
10747207838
10747214918
10747220106
10747225294
10747233412
10747239027
10747243483
10747249403
10747255751
10747260206
10747266615
10747272474
10747277906
10747284620
10747289808
10747296888
10747302381
10747309034
10747315260
10747321180
10747328932
10747338392
10747347486
10747355970
10747362989
10747370069
10747379835
10747388746
10747396192
10747405775
10747414625
10747424818
10747433668
10747441114
10747448438
10747455274
10747465345
10747470594
10747481397
10747489271
10747497999
10747505567
10747511060
10747519117
10747523328
10747532666
10747538892
10747540967
10747552930
10747562635
10747568677
10747576245
10747587354
10747592420
10747600781
10747612073
10747617017
10747626843
10747637158
10747644849
10747655652
10747662000
10747670178
10747682874
10747689954
10747696606
10747702832
10747710889
10747719739
10747726208
10747733349
10747740246
10747745923
10747753491
10747757519
10747766736
10747773266
10747781811
10747788037
10747795788
10747800671
10747808362
10747813916
10747820202
10747826672
10747833386
10747840954
10747850842
10747857251
10747862988
10747868908
10747876477
10747883312
10747888928
10747896923
10747905102
10747911022
10747918713
10747929150
10747936413
10747944225
10747953137
10747960522
10747970470
10747975903
10747984509
10747993298
10748000805
10748010326
10748015392
10748025280
10748032604
10748039623
10748046886
10748054577
10748064159
10748071483
10748077282
10748085949
10748090526
10748100109
10748106884
10748114696
10748120617
10748131298
10748138378
10748145397
10748151500
10748159557
10748167491
10748173961
10748181224
10748188243
10748195751
10748205821
10748275951
10748280467
10748284251
10748288158
10748291820
10748295909
10748299571
10748305003
10748308299
10748311473
10748315074
10748317943
10748320567
10748323131
10748326366
10748329722
10748332347
10748334727
10748338084
10748341380
10748346263
10748349010
10748352061
10748354930
10748357677
10748360118
10748363414
10748366527
10748369212
10748372569
10748375133
10748378550
10748381236
10748384593
10748386973
10748389537
10748392344
10748394969
10748397654
10748400828
10748405589
10748412303
10748416941
10748421031
10748425731
10748430247
10748435313
10748442149
10748446971
10748450022
10748452342
10748454722
10748457225
10748459605
10748462229
10748464976
10748466929
10748469371
10748471812
10748474192
10748476268
10748478648
10748480906
10748483409
10748485972
10748488475
10748491526
10748494151
10748496714
10748499400
10748501780
10748504222
10748507334
10748509471
10748512156
10748514353
10748517405
10748519847
10748522410
10748524790
10748528147
10748531260
10748533701
10748537730
10748540110
10748542735
10748544688
10748547068
10748549265
10748551829
10748553904
10748556651
10748558787
10748560923
10748563059
10748565196
10748567881
10748570261
10748572459
10748574656
10748576975
10748579356
10748581797
10748585032
10748591380
10748598399
10748602671
10748606211
10748608713
10748610911
10748613169
10748615305
10748618479
10748620737
10748622874
10748624949
10748627634
10748629832
10748631785
10748635386
10748637400
10748640635
10748643198
10748646006
10748648874
10748651804
10748654185
10748656687
10748658884
10748661753
10748664011
10748666269
10748668467
10748670969
10748673411
10748675669
10748678415
10748680430
10748683298
10748685434
10748687998
10748690256
10748693247
10748695383
10748697886
10748700083
10748702341
10748705088
10748707590
10748710093
10748712656
10748714975
10748717478
10748719797
10748721567
10748724375
10748726999
10748729380
10748731394
10748733591
10748736032
10748737986
10748741281
10748744150
10748747019
10748750009
10748753244
10748755381
10748757273
10748759836
10748761789
10748764170
10748765940
10748768076
10748770090
10748772531
10748774301
10748776194
10748778269
10748780344
10748782480
10748784433
10748786264
10748788523
10748790476
10748792551
10748794565
10748796518
10748798410
10748800424
10748802439
10748804575
10748806406
10748808725
10748810434
10748813059
10748815866
10748818613
10748820932
10748823190
10748826059
10748828256
10748830209
10748832773
10748834604
10748837229
10748839304
10748841074
10748843393
10748845285
10748847788
10748849741
10748851633
10748853464
10748855417
10748857675
10748859750
10748861520
10748863413
10748865366
10748867563
10748869638
10748871652
10748873911
10748875864
10748877939
10748880685
10748883554
10748886362
10748889902
10748892221
10748894662
10748896371
10748898386
10748900278
10748902231
10748904794
10748906808
10748908639
10748910471
10748912424
10748914682
10748916452
10748918405
10748920358
10748922311
10748924386
10748926462
10748928476
10748930368
10748932321
10748934640
10748936777
10748939340
10748941232
10748943735
10748946481
10748949411
10748952402
10748954477
10748956125
10748958139
10748960092
10748962167
10748964181
10748966073
10748968088
10748969858
10748972177
10748974130
10748976266
10748978097
10748980234
10748982065
10748984018
10748986093
10748988168
10748990121
10748992441
10748994333
10748996652
10748998727
10749000802
10749002816
10749004892
10749007211
10749009530
10749012216
10749015268
10749017648
10749020089
10749021981
10749023935
10749025766
10749027597
10749029672
10749031564
10749033395
10749035592
10749037606
10749039498
10749041452
10749043527
10749045663
10749047738
10749050119
10749051950
10749054330
10749056161
10749058175
10749060250
10749062265
10749064401
10749066110
10749068063
10749070321
10749072335
10749075143
10749077951
10749080880
10749083566
10749085458
10749087411
10749089364
10749091134
10749093148
10749095284
10749097421
10749099374
10749102181
10749104012
10749106149
10749108407
10749110360
10749112557
10749114816
10749117318
10749119088
10749120858
10749122933
10749124764
10749127084
10749129037
10749131112
10749132760
10749134896
10749136910
10749139230
10749141976
10749144662
10749147347
10749149178
10749151315
10749153329
10749155343
10749157296
10749159249
10749161324
10749164376
10749166146
10749168465
10749170480
10749172372
10749174569
10749176400
10749178414
10749180306
10749182320
10749184274
10749186288
10749188241
10749190255
10749192086
10749194161
10749195870
10749197640
10749199898
10749202401
10749205270
10749207284
10749209176
10749210885
10749212899
10749215584
10749217538
10749219491
10749221322
10749223458
10749225350
10749227364
10749229378
10749231331
10749233529
10749235177
10749237130
10749238900
10749241280
10749243477
10749245492
10749247445
10749249154
10749251290
10749253426
10749256356
10749258797
10749260811
10749263070
10749265267
10749267708
10749269478
10749271370
10749273263
10749275216
10749277108
10749278817
10749280831
10749282784
10749284615
10749286568
10749288216
10749290169
10749292733
10749295662
10749297310
10749299569
10749301522
10749303719
10749305428
10749307991
10749310677
10749313424
10749315438
10749317086
10749319100
10749320809
10749323311
10749325020
10749327095
10749329110
10749331246
10749332894
10749334786
10749336739
10749338509
10749340279
10749342537
10749344307
10749346077
10749347969
10749349861
10749351754
10749353585
10749355721
10749357857
10749360237
10749362862
10749365181
10749367195
10749369210
10749370796
10749372750
10749374825
10749376717
10749378792
10749380623
10749382210
10749385079
10749387825
10749390450
10749392891
10749394783
10749396553
10749398873
10749400643
10749402718
10749404488
10749406136
10749408028
10749410164
10749411934
10749414559
10749417061
10749419747
10749421639
10749423470
10749425301
10749427437
10749429512
10749431343
10749433357
10749435433
10749437508
10749439583
10749441658
10749443550
10749445747
10749447762
10749449959
10749452156
10749453804
10749455757
10749458077
10749459847
10749461800
10749463692
10749465828
10749468514
10749471260
10749473824
10749475655
10749477669
10749479622
10749481575
10749483650
10749485603
10749487862
10749489754
10749491646
10749493477
10749495674
10749497688
10749499580
10749501778
10749504036
10749505745
10749507698
10749509590
10749511726
10749513801
10749515510
10749517403
10749519417
10749522163
10749524849
10749527107
10749528816
10749530708
10749532478
10749534492
10749536384
10749538399
10749540230
10749542488
10749544014
10749546455
10749548164
10749550117
10749551948
10749554146
10749555977
10749557930
10749559578
10749561531
10749563362
10749565254
10749567268
10749569404
10749571541
10749574409
10749577217
10749579719
10749581367
10749582954
10749585396
10749587166
10749589180
10749591072
10749593269
10749594978
10749596809
10749598762
10749600837
10749602485
10749604622
10749606453
10749608650
10749610664
10749612495
10749614143
10749616462
10749618415
10749620491
10749622505
10749624580
10749627327
10749630195
10749632209
10749634224
10749636055
10749638313
10749640632
10749642829
10749644599
10749646675
10749648445
10749650398
10749652412
10749654487
10749656318
10749658271
10749660285
10749662117
10749664131
10749665901
10749668098
10749669990
10749672248
10749674324
10749676765
10749678535
10749681282
10749683906
10749686531
10749688423
10749690498
10749692329
10749694160
10749696174
10749698188
10749700080
10749702155
10749704109
10749705940
10749707710
10749710029
10749711860
10749714057
10749716010
10749718330
10749720344
10749722053
10749724433
10749726203
10749728340
10749730415
10749732612
10749734626
10749736457
10749739143
10749741828
10749744575
10749746406
10749748786
10749750861
10749752876
10749754829
10749756904
10749758857
10749760810
10749763068
10749764716
10749767158
10749768928
10749771125
10749773139
10749775336
10749778022
10749780158
10749782539
10749784797
10749786750
10749788764
10749790412
10749792487
10749794379
10749796088
10749798835
10749801459
10749804328
10749806708
10749808539
10749810554
10749812446
10749814887
10749816718
10749819099
10749820991
10749823005
10749825019
10749827155
10749829169
10749830939
10749832770
10749834846
10749836921
10749838813
10749840766
10749842902
10749844733
10749846625
10749848701
10749850837
10749852790
10749854560
10749857551
10749860419
10749862861
10749864631
10749866462
10749869941
10749871833
10749873908
10749875800
10749877265
10749879584
10749881232
10749884406
10749886176
10749888068
10749889838
10749891608
10749893378
10749895331
10749897345
10749899360
10749901130
10749903388
10749905707
10749907904
10749909980
10749912604
10749915412
10749917914
10749920417
10749922126
10749924567
10749927985
10749930121
10749932135
10749934027
10749935981
10749937873
10749939704
10749941535
10749943488
10749945563
10749947211
10749949164
10749951544
10749953437
10749955390
10749957587
10749959540
10749961798
10749963507
10749966010
10749968024
10749970099
10749972113
10749974738
10749977423
10749979865
10749982062
10749983832
10749985968
10749987494
10749989325
10749991278
10749993109
10749994757
10749996771
10749998480
10750000861
10750002814
10750004767
10750006598
10750008856
10750010748
10750012641
10750014960
10750016913
10750018683
10750020697
10750022772
10750024848
10750027350
10750030097
10750032721
10750035468
10750037238
10750039252
10750041388
10750043097
10750044928
10750047064
10750049139
10750050848
10750053046
10750054938
10750057196
10750059210
10750061407
10750063300
10750065619
10750067694
10750069647
10750071539
10750073553
10750075751
10750077765
10750080206
10750081976
10750083868
10750086737
10750089545
10750092108
10750094488
10750096442
10750098273
10750100470
10750102484
10750104620
10750106634
10750108893
10750110541
10750112860
10750114691
10750116705
10750118902
10750120734
10750122442
10750124457
10750126166
10750127997
10750130133
10750132147
10750134100
10750135931
10750137945
10750140265
10750142218
10750144659
10750147711
10750150702
10750153143
10750155035
10750157293
10750159735
10750163153
10750166205
10750169195
10750171332
10750173651
10750175543
10750177374
10750179754
10750181707
10750183477
10750185614
10750187445
