10789721462
10789727016
10789734341
10789740139
10789745327
10789751858
10789757900
10789764797
10789770046
10789776333
10789781277
10789788051
10789793667
10789799160
10789806667
10789812771
10789818508
10789826076
10789832729
10789838039
10789845058
10789851284
10789859035
10789864772
10789872097
10789878200
10789884914
10789890468
10789896633
10789905300
10789911098
10789917446
10789924465
10789931850
10789938503
10789944850
10789951320
10789958034
10789964382
10789970607
10789978725
10789985439
10789992091
10789998073
10790002773
10790009608
10790015895
10790020595
10790026210
10790031520
10790037196
10790042445
10790047999
10790053676
10790059413
10790064662
10790071193
10790076625
10790081386
10790088344
10790093287
10790099269
10790104152
10790110011
10790114894
10790122096
10790127284
10790132472
10790138636
10790143641
10790149745
10790155543
10790163295
10790169337
10790174952
10790181971
10790187342
10790193446
10790200587
10790206263
10790213099
10790219325
10790226344
10790232569
10790239222
10790245509
10790252467
10790258326
10790265284
10790270838
10790276270
10790282984
10790288050
10790296107
10790300135
10790306971
10790313258
10790319239
10790324732
10790332239
10790338160
10790344507
10790350428
10790355738
10790362208
10790367518
10790373804
10790379786
10790386133
10790391810
10790398096
10790405359
10790411524
10790416285
10790424158
10790429346
10790436121
10790442469
10790448694
10790455347
10790459436
10790466150
10790473352
10790479273
10790483606
10790492639
10790497888
10790504602
10790509973
10790516565
10790523279
10790527857
10790535547
10790540430
10790547144
10790554224
10790562158
10790568201
10790575220
10790580652
10790587549
10790592981
10790599390
10790608240
10790614221
10790621851
10790628870
10790633997
10790641870
10790646387
10790655603
10790662561
10790668481
10790674829
10790682763
10790689355
10790694055
10790701074
10790709192
10790716699
10790723474
10790731103
10790736963
10790744104
10790749719
10790758264
10790765527
10790773645
10790781213
10790785668
10790796105
10790804406
10790813134
10790817468
10790828820
10790836205
10790844018
10790851037
10790858422
10790865502
10790873254
10790880212
10790887536
10790893395
10790902428
10790908593
10790915673
10790922509
10790927636
10790937218
10790944726
10790950402
10790957848
10790964806
10790972069
10790977685
10790986046
10790992150
10791001000
10791006554
10791014245
10791022545
10791027794
10791036156
10791043297
10791049706
10791057824
10791065697
10791072533
10791078759
10791085839
10791091576
10791098961
10791107689
10791114769
10791122521
10791130150
10791136620
10791143517
10791149620
10791156761
10791165489
10791173119
10791179283
10791188255
10791194298
10791201622
10791208458
10791216392
10791225304
10791234215
10791238487
10791247825
10791255455
10791263267
10791270103
10791278221
10791284569
10791293480
10791299461
10791308372
10791315208
10791321800
10791329002
10791336631
10791343773
10791352745
10791360435
10791366539
10791374351
10791380577
10791387352
10791394126
10791400840
10791409873
10791415489
10791422874
10791430747
10791436973
10791445152
10791452171
10791459312
10791468467
10791473838
10791482749
10791489402
10791497337
10791503074
10791512901
10791518699
10791527366
10791532676
10791541465
10791548545
10791555381
10791561240
10791571555
10791578147
10791587119
10791592551
10791601035
10791607261
10791613974
10791620810
10791628196
10791636313
10791643393
10791651328
10791659385
10791664328
10791672751
10791679221
10791686118
10791693381
10791701926
10791707968
10791716635
10791722067
10791730124
10791735983
10791745566
10791750815
10791758994
10791767722
10791775290
10791782370
10791789328
10791796408
10791804221
10791811850
10791819540
10791826376
10791832175
10791841025
10791849325
10791856650
10791864889
10791873861
10791881674
10791888632
10791895773
10791902670
10791909933
10791917685
10791925009
10791932760
10791938437
10791947042
10791954061
10791960714
10791967672
10791977865
10791983602
10791993063
10791999655
10792008322
10792014425
10792022482
10792029928
10792037313
10792043051
10792051290
10792059591
10792066122
10792073934
10792082357
10792087911
10792097494
10792104024
10792111532
10792118490
10792125692
10792132711
10792141378
10792150777
10792155904
10792164876
10792172689
10792178426
10792186910
10792194478
10792202108
10792211263
10792218953
10792226094
10792233541
10792241170
10792248861
10792253133
10792262838
10792272176
10792279927
10792287129
10792294637
10792301412
10792308980
10792315328
10792325154
10792331929
10792340230
10792347859
10792353475
10792360249
10792366780
10792375203
10792385030
10792392659
10792398396
10792405354
10792411336
10792420186
10792426472
10792434346
10792442586
10792452290
10792458394
10792467244
10792472737
10792480916
10792489705
10792497883
10792505696
10792513142
10792520222
10792528401
10792535542
10792541584
10792549214
10792557942
10792566059
10792572956
10792580525
10792587178
10792594746
10792602253
10792610371
10792617207
10792626423
10792633076
10792640522
10792646992
10792654072
10792660359
10792667866
10792676716
10792683735
10792692829
10792699970
10792708332
10792715656
10792722004
10792730793
10792738605
10792745319
10792752582
10792760639
10792766193
10792773212
10792779987
10792786884
10792793903
10792802509
10792808551
10792815326
10792822223
10792829425
10792837299
10792846149
10792852802
10792859699
10792867389
10792873920
10792880939
10792888019
10792892353
10792901752
10792907367
10792914386
10792922138
10792929218
10792933673
10792942828
10792949542
10792956561
10792965289
10792973651
10792983356
10792990192
10792996600
10793004413
10793011737
10793019549
10793028033
10793035480
10793042499
10793050677
10793055743
10793064227
10793069842
10793081500
10793087604
10793093768
10793102862
10793108539
10793116351
10793122271
10793128253
10793138202
10793147174
10793153888
10793163714
10793171038
10793178607
10793187030
10793194415
10793202227
10793210589
10793218646
10793226214
10793232012
10793239581
10793247637
10793255938
10793262835
10793270281
10793276507
10793283770
10793290911
10793298235
10793306170
10793313677
10793322222
10793329485
10793337298
10793347735
10793354449
10793361162
10793371355
10793385637
10793404131
10793417681
10793428972
10793439531
10793449236
10793458635
10793468096
10793479448
10793488298
10793495134
10793501848
10793508623
10793514849
10793521440
10793528642
10793535845
10793542009
10793549272
10793554887
10793561845
10793567766
10793574358
10793580522
10793588518
10793597856
10793603776
10793611345
10793618791
10793625932
10793633378
10793641313
10793647722
10793655717
10793662187
10793669572
10793676713
10793684709
10793692338
10793700883
10793706804
10793714311
10793721086
10793728837
10793736345
10793743608
10793750993
10793759965
10793767228
10793774797
10793783219
10793788346
10793797013
10793803300
10793813188
10793821061
10793826859
10793833451
10793841813
10793849137
10793854936
10793863358
10793870560
10793878251
10793884904
10793891801
10793899552
10793905350
10793913773
10793922135
10793929887
10793936967
10793942704
10793951493
10793958878
10793964432
10793972672
10793979935
10793987931
10793995133
10794002457
10794008927
10794014176
10794023209
10794029618
10794037430
10794043656
10794053421
10794059525
10794066666
10794072342
10794079666
10794087052
10794094803
10794102310
10794110001
10794116959
10794124466
10794132401
10794139114
10794144608
10794152298
10794159988
10794169327
10794174149
10794183182
10794189896
10794197708
10794204727
10794212356
10794219253
10794228775
10794235123
10794242386
10794248794
10794256058
10794263931
10794269485
10794278335
10794286697
10794292984
10794300186
10794308120
10794315017
10794320999
10794327957
10794336380
10794345535
10794351577
10794358902
10794365371
10794372451
10794380142
10794387771
10794395950
10794403396
10794410354
10794417495
10794421584
10794431411
10794445144
10794450942
10794460769
10794469131
10794476211
10794483779
10794490859
10794498366
10794504958
10794512527
10794521194
10794529861
10794537612
10794545974
10794552688
10794559829
10794569167
10794577041
10794583938
10794593764
10794599807
10794608046
10794613723
10794621474
10794626967
10794635451
10794643325
10794650222
10794657119
10794665297
10794671096
10794679640
10794686904
10794693312
10794699965
10794709364
10794717726
10794723464
10794729811
10794738356
10794743605
10794752516
10794760817
10794766615
10794773329
10794781691
10794787245
10794794264
10794801100
10794808241
10794815382
10794824232
10794829787
10794840468
10794848158
10794853529
10794860792
10794870436
10794876234
10794884413
10794889845
10794899611
10794908461
10794914137
10794921705
10794931105
10794938368
10794944776
10794952711
10794960096
10794967054
10794974623
10794982252
10794990736
10794998182
10795004408
10795012708
10795019361
10795025770
10795033704
10795041212
10795049268
10795057935
10795064039
10795070631
10795078748
10795085767
10795092603
10795100599
10795108533
10795115308
10795121473
10795129651
10795135938
10795142286
10795148450
10795157911
10795166822
10795173963
10795181287
10795187818
10795195142
10795204541
10795211988
10795219861
10795226636
10795236463
10795245069
10795251050
10795257642
10795267163
10795273755
10795283032
10795290723
10795298841
10795306409
10795314527
10795322095
10795329602
10795338818
10795345471
10795352612
10795360364
10795367139
10795374280
10795380933
10795388196
10795395154
10795402539
10795411633
10795418042
10795424451
10795431592
10795437756
10795444104
10795451672
10795460095
10795466809
10795473767
10795480237
10795486157
10795493115
10795501416
10795506848
10795515454
10795523510
10795529675
10795536755
10795543469
10795551220
10795558422
10795565563
10795572338
10795579846
10795586743
10795594372
10795600170
10795608715
10795615307
10795621472
10795632031
10795639599
10795646313
10795654675
10795661572
10795668835
10795674938
10795684521
10795691418
10795699047
10795705151
10795714245
10795720592
10795727367
10795733410
10795743480
10795752025
10795759166
10795766369
10795773205
10795780773
10795786998
10795793773
10795801281
10795810375
10795817699
10795824901
10795831493
10795839000
10795845897
10795852916
10795860485
10795868907
10795877574
10795882640
10795891185
10795897045
10795905650
10795912547
10795919994
10795928539
10795936168
10795943919
10795950389
10795958568
10795965770
10795970958
10795979198
10795991527
10796007030
10796025584
10796039317
10796053233
10796064464
10796078624
10796089488
10796101024
10796113231
10796124827
10796136668
10796147532
10796159190
10796168711
10796184458
10796195201
10796209055
10796220042
10796230418
10796241160
10796252634
10796263499
10796273264
10796284373
10796295725
10796305308
10796317515
10796328623
10796339426
10796351572
10796362620
10796374338
10796386362
10796398081
10796408701
10796420176
10796431101
10796440378
10796452463
10796462900
10796473154
10796484506
10796494760
10796506174
10796516245
10796527109
10796537790
10796551035
10796561594
10796572946
10796584055
10796594430
10796605539
10796616098
10796627145
10796638009
10796648691
10796659982
10796670175
10796679879
10796689584
10796698983
10796708810
10796718332
10796726815
10796735726
10796744088
10796752633
10796759957
10796765451
10796772225
10796778024
10796785104
10796791940
10796798043
10796804269
10796810555
10796815011
10796822762
10796831185
10796836923
10796842477
10796848214
10796856271
10796862496
10796871224
10796877572
10796882821
10796890023
10796895882
10796903329
10796910226
10796916085
10796922555
10796929146
10796935311
10796941170
10796946786
10796953744
10796959115
10796967965
10796976021
10796981698
10796988778
10796994332
10796999886
10797006905
10797013497
10797020150
10797026314
10797031685
10797038704
10797044564
10797050423
10797057381
10797064278
10797070626
10797075081
10797081917
10797086373
10797093208
10797099068
10797107002
10797113594
10797119331
10797126534
10797132454
10797140511
10797146309
10797154427
10797160713
10797168770
10797174080
10797183235
10797190132
10797196480
10797205208
10797212654
10797221138
10797227485
10797233101
10797241279
10797247383
10797253975
10797262459
10797268074
10797273872
10797281379
10797288215
10797293586
10797300239
10797310127
10797317451
10797325019
10797332161
10797339424
10797348274
10797355903
10797363349
10797371162
10797379402
10797386482
10797391853
10797399482
10797405341
10797411567
10797420539
10797428352
10797435371
10797443610
10797449348
10797456001
10797464484
10797469917
10797477485
10797485053
10797493232
10797501105
10797509955
10797515815
10797523078
10797530829
10797538947
10797547797
10797554938
10797560676
10797569831
10797575324
10797582648
10797591071
10797599006
10797607245
10797616828
10797621894
10797629401
10797637519
10797643805
10797649420
10797658026
10797668463
10797675177
10797681769
10797688544
10797696417
10797703070
10797709601
10797717352
10797726019
10797733649
10797742499
10797749030
10797757574
10797764471
10797771368
10797776007
10797786749
10797793463
10797800238
10797807257
10797813116
10797820257
10797828436
10797836127
10797843268
10797851263
10797857733
10797865606
10797872320
10797881414
10797888250
10797895819
10797903143
10797910650
10797917242
10797926092
10797932867
10797939459
10797945806
10797953619
10797962347
10797969000
10797974188
10797983343
10797988653
10797996221
10798003484
10798013616
10798020086
10798029363
10798034917
10798043218
10798050420
10798057256
10798062200
10798069341
10798077398
10798084966
10798091131
10798100469
10798106389
10798113531
10798119878
10798127569
10798137578
10798144719
10798151067
10798158819
10798166753
10798173894
10798179448
10798186651
10798195745
10798202520
10798210149
10798217656
10798223394
10798231511
10798240300
10798248723
10798257329
10798265996
10798271977
10798280583
10798288762
10798294560
10798303288
10798309758
10798318852
10798324773
10798332585
10798338322
10798345708
10798354070
10798359990
10798367253
10798375310
10798382207
10798389958
10798396733
10798404179
10798411320
10798418095
10798425664
10798434086
10798440922
10798448369
10798455021
10798462407
10798469609
10798476140
10798485539
10798493046
10798500615
10798508183
10798514714
10798521794
10798528385
10798534428
10798541813
10798551213
10798558048
10798565739
10798572392
10798579838
10798588566
10798595768
10798603336
10798610783
10798619450
10798627262
10798632999
10798640873
10798646854
10798653568
10798662968
10798669071
10798678043
10798683536
10798692203
10798697208
10798705753
10798712467
10798720157
10798727604
10798736271
10798743290
10798750431
10798757267
10798765567
10798772464
10798779972
10798787418
10798794559
10798801944
10798808597
10798816349
10798823001
10798830509
10798837711
10798846378
10798853153
10798860172
10798866825
10798874454
10798881900
10798890201
10798897647
10798904422
10798913211
10798919742
10798926273
10798932437
10798941470
10798948856
10798956973
10798963260
10798972903
10798978335
10798987308
10798994876
10799002139
10799009219
10799018802
10799028628
10799035342
10799044375
10799052554
10799057559
10799065921
10799071109
10799081118
10799089969
10799096621
10799104739
10799110598
10799116580
10799125186
10799131594
10799139468
10799146792
10799155459
10799160830
10799169375
10799175295
10799184329
10799189883
10799196963
10799206606
10799212466
10799219119
10799227419
10799233828
10799241152
10799249514
10799256594
10799266299
10799272585
10799280398
10799286440
10799294131
10799300539
10799306948
10799316652
10799324282
10799333742
10799341311
10799348635
10799355837
10799362673
10799370363
10799377749
10799385256
10799393618
10799400759
10799407351
10799416811
10799424135
10799434389
10799440798
10799449953
10799458620
10799464723
10799473512
10799479372
10799486147
10799495668
10799504030
10799510317
10799517641
10799526308
10799531801
10799540529
10799547792
10799555055
10799563051
10799570253
10799577516
10799584047
10799591127
10799598695
10799605409
10799612794
10799622743
10799628724
10799637208
10799642824
10799648927
10799657777
10799665590
10799671205
10799680543
10799688539
10799694520
10799699891
10799708253
10799713624
10799722413
10799729188
10799736756
10799745179
10799754518
10799762940
10799769349
10799775269
10799783997
10799790528
10799798158
10799806031
10799813050
10799821229
10799828248
10799835999
10799842530
10799850159
10799857972
10799864564
10799873292
10799878541
10799887025
10799894105
10799901124
10799907044
10799916260
10799922364
10799931641
10799937256
10799946045
10799951600
10799959961
10799967041
10799974732
10799982422
10799989624
10799996521
10800004883
10800010987
10800017517
10800024903
10800032166
10800040528
10800049988
10800061218
10800067444
10800076233
10800081909
10800090637
10800097351
10800104492
10800113159
10800120789
10800126465
10800134705
10800140625
10800146912
10800158630
10800169617
10800177429
10800182861
10800188354
10800197143
10800202942
10800209961
10800217468
10800226867
10800231079
10800241394
10800250000
10800257629
10800264404
10800271545
10800281799
10800289184
10800295471
10800304199
10800309631
10800316650
10800324218
10800331176
10800339904
10800347595
10800354919
10800361572
10800367797
10800377258
10800382568
10800391906
10800399597
10800407165
10800414672
10800421203
10800428344
10800434875
10800441222
10800448913
10800457091
10800465148
10800470946
10800480956
10800487609
10800494567
10800505431
10800514892
10800523253
10800532836
10800540465
10800546447
10800554870
10800562255
10800569396
10800576354
10800584227
10800592955
10800600524
10800606688
10800616210
10800621215
10800630736
10800636595
10800645934
10800652281
10800659117
10800664794
10800674071
10800680480
10800688597
10800699645
10800706664
10800713011
10800719969
10800728392
10800734984
10800739989
10800747313
10800754942
10800762816
10800769530
10800778380
10800784605
10800791685
10800798582
10800805723
10800816343
10800823179
10800828367
10800836058
10800849669
10800856321
10800864195
10800872129
10800876951
10800885008
10800893187
10800899900
10800906553
10800913511
10800922117
10800929319
10800937864
10800945066
10800950559
10800958006
10800963438
10800969114
10800977354
10800984861
10800992735
10800999632
10801006162
10801013120
10801017759
10801023496
10801031919
10801040281
10801047910
10801055051
10801060422
10801067930
10801076169
10801082395
10801087583
10801097654
10801103452
10801112119
10801119932
10801125486
10801132749
10801138791
10801145994
10801154050
10801161435
10801169126
10801174802
10801181638
10801189695
10801197202
10801205197
10801213254
10801220639
10801229367
10801235349
10801244260
10801250180
10801259274
10801265744
10801273129
10801280759
10801287229
10801295102
10801301816
10801307126
10801315122
10801325009
10801332089
10801338986
10801346371
10801352597
10801361874
10801368588
10801376401
10801385251
10801392270
10801400448
10801407467
10801413815
10801420834
10801427060
10801434140
10801444394
10801451291
10801457699
10801464901
10801471188
10801478634
10801484982
10801492245
10801501095
10801508175
10801516354
10801523007
10801529904
10801536862
10801543881
10801553402
10801559750
10801567990
10801573422
10801581844
10801588192
10801596920
10801604366
10801611630
10801619869
10801625973
10801634579
10801642147
10801649654
10801655636
10801662167
10801672481
10801680172
10801687923
10801695797
10801703609
10801711300
10801718380
10801728573
10801734432
10801741634
10801750423
10801756893
10801764156
10801770809
10801778011
10801784908
10801792293
10801800899
10801808223
10801814693
10801822261
10801828670
10801834285
10801841548
10801852413
10801859126
10801866023
10801872798
10801878963
10801886104
10801893001
10801900325
10801908565
10801917537
10801926570
10801934200
10801942317
10801949824
10801956477
10801964839
10801974116
10801981380
10801988704
10801997981
10802004085
10802012752
10802021419
10802030757
10802038752
10802045100
10802053889
10802061396
10802068599
10802076472
10802083308
10802091792
10802097834
10802105830
10802114009
10802119685
10802127986
10802132929
10802142634
10802149714
10802156489
10802162837
10802171504
10802177058
10802185664
10802192439
10802200312
10802207880
10802217036
10802224360
10802229975
10802238581
10802244501
10802252863
10802259760
10802268061
10802277033
10802284785
10802290156
10802299067
10802307001
10802311518
10802320185
10802328974
10802334955
10802342585
10802348200
10802354975
10802363520
10802368769
10802377680
10802385736
10802392023
10802399164
10802407465
10802413507
10802421442
10802427667
10802434687
10802441583
10802452265
10802461725
10802469171
10802478693
10802485712
10802494623
10802503290
10802511652
10802518915
10802526361
10802532220
10802539423
10802546808
10802553827
10802561883
10802568414
10802575372
10802582879
10802589960
10802597040
10802604608
10802611871
10802620172
10802627008
10802633233
10802640985
10802644098
10802653497
10802662103
10802669671
10802679681
10802686456
10802694085
10802701348
10802710321
10802716485
10802725640
10802731317
10802738824
10802744683
10802752374
10802759881
10802765008
10802771539
10802781121
10802788628
10802794549
10802800408
10802808831
10802816705
10802822198
10802829461
10802838677
10802844475
10802853142
10802860223
10802866814
10802873528
10802882500
10802888787
10802896172
10802903802
10802911065
10802918450
10802926751
10802932610
10802939324
10802946831
10802954522
10802963189
10802970024
10802976372
10802985955
10802992668
10802999504
10803005486
10803013237
10803023064
10803029717
10803034722
10803043755
10803049980
10803057610
10803063957
10803071159
10803080376
10803087090
10803093742
10803101128
10803107048
10803114250
10803121819
10803128960
10803135918
10803143791
10803150993
10803159843
10803166130
10803173088
10803180534
10803189750
10803195366
10803203605
10803211784
10803217460
10803224235
10803231071
10803238273
10803247795
10803253959
10803262748
10803270439
10803276481
10803283256
10803291496
10803298942
10803305717
10803313896
10803320854
10803328849
10803336784
10803343986
10803349723
10803355277
10803365287
10803371940
10803379630
10803387443
10803396049
10803401420
10803409843
10803417960
10803424735
10803431510
10803441459
10803448966
10803455619
10803463920
10803469779
10803477958
10803486075
10803494254
10803500541
10803508231
10803514335
10803521659
10803529899
10803537101
10803543326
10803551139
10803557425
10803564994
10803570670
10803578299
10803585624
10803595450
10803601859
10803611197
10803617911
10803625540
10803631644
10803639884
10803647574
10803653494
10803661490
10803668448
10803676688
10803684073
10803690970
10803699820
10803707449
10803715323
10803721976
10803730460
10803737906
10803743887
10803751272
10803759573
10803765494
10803774527
10803780264
10803789602
10803795523
10803803824
10803809073
10803817373
10803823233
10803832510
10803838980
10803847830
10803853323
10803862112
10803869192
10803875174
10803884207
10803891287
10803899527
10803905813
10803914724
10803922598
10803929190
10803936636
10803941702
10803950979
10803958547
10803964529
10803970693
10803978994
10803984426
10803992727
10803999563
10804007253
10804014150
10804022939
10804028982
10804037405
10804043081
10804051565
10804057241
10804066274
10804074087
10804081838
10804088674
10804096975
10804103200
10804109792
10804117666
10804127614
10804134572
10804144033
10804150380
10804159108
10804167287
10804174062
10804183461
10804192556
10804200185
10804208303
10804214162
10804221913
10804229054
10804236745
10804243947
10804252309
10804259877
10804268605
10804275075
10804282216
10804288747
10804295583
10804304433
10804312856
10804319081
10804326710
10804334950
10804340993
10804349477
10804356557
10804363148
10804371266
10804377308
10804385243
10804390919
10804399281
10804407521
10804411915
10804421559
10804429982
10804436146
10804444447
10804450306
10804457081
10804465382
10804470936
10804480152
10804487477
10804493702
10804502308
10804510365
10804517567
10804523731
10804531910
10804539356
10804548206
10804554310
10804560475
10804569325
10804574940
10804583241
10804589100
10804597767
10804605457
10804611683
10804619740
10804628284
10804632801
10804641285
10804649403
10804656605
10804664295
10804671192
10804678516
10804686756
10804691761
10804700916
10804708484
10804714771
10804722583
10804730396
10804734974
10804743641
10804751392
10804757312
10804764148
10804771411
10804778980
10804787708
10804793750
10804801929
10804807483
10804816028
10804823963
10804830799
10804838001
10804845752
10804853259
10804860095
10804867114
10804876087
10804883411
10804892932
10804901050
10804907458
10804916614
10804922778
10804930225
10804937732
10804945422
10804955493
10804963244
10804971301
10804978503
10804986194
10804992785
10804997729
10805006640
10805013476
10805021106
10805029101
10805036059
10805041919
10805048938
10805057299
10805064807
10805072924
10805080249
10805086901
10805095751
10805102221
10805108996
10805114550
10805121813
10805131335
10805138964
10805143908
10805151049
10805157824
10805165392
10805172717
10805179919
10805190478
10805197436
10805204150
10805210925
10805219530
10805228258
10805236071
10805242602
10805250597
10805257250
10805265368
10805273241
10805280504
10805288378
10805293871
10805300402
10805309679
10805318163
10805325304
10805332201
10805340075
10805349657
10805356615
10805363390
10805372301
10805378588
10805387194
10805392748
10805400499
10805408617
10805415026
10805423998
10805430162
10805437914
10805446031
10805450609
10805458971
10805464098
10805473314
10805482103
10805488329
10805495897
10805503587
10805508470
10805517320
10805522508
10805531908
10805540391
10805546617
10805554307
10805561082
10805567918
10805576280
10805584093
10805590745
10805597764
10805606736
10805615159
10805622422
10805630174
10805637193
10805644761
10805653733
10805660752
10805667588
10805675950
10805681077
10805689012
10805695970
10805705796
10805713243
10805720140
10805727281
10805733872
10805741258
10805748216
10805755479
10805765122
10805772996
10805779588
10805789231
10805797593
10805805222
10805814194
10805822495
10805828294
10805837022
10805843919
10805852219
10805859360
10805865891
10805873215
10805883530
10805890061
10805898789
10805905869
10805913010
10805920151
10805927475
10805935044
10805943589
10805950669
10805958542
10805965622
10805972092
10805980027
10805986740
10805994736
10806003403
10806012436
10806019272
10806024948
10806031723
10806040268
10806048508
10806054672
10806063095
10806070236
10806079392
10806086533
10806093979
10806102036
10806109177
10806117966
10806124435
10806132187
10806141281
10806147690
10806155380
10806162460
10806169052
10806176254
10806185104
10806191269
10806200119
10806207504
10806213241
10806221298
10806229049
10806237655
10806245590
10806250656
10806259323
10806265792
10806274642
10806280380
10806287521
10806294967
10806303817
10806313583
10806320236
10806329940
10806336654
10806345138
10806352767
10806362533
10806371566
10806378341
10806386459
10806393539
10806401473
10806408736
10806418441
10806426986
10806432662
10806440963
10806447738
10806456100
10806463790
10806469893
10806478927
10806485396
10806494918
10806502486
10806509627
10806515792
10806523848
10806531783
10806541060
10806547408
10806556258
10806561690
10806570662
10806577071
10806585677
10806593184
10806601363
10806608504
10806614058
10806622786
10806628584
10806634383
10806643416
10806649336
10806658064
10806665511
10806671370
10806677962
10806686629
10806692122
10806700850
10806706648
10806715865
10806722090
10806731734
10806738692
10806744490
10806752180
10806760420
10806767378
10806776045
10806783674
10806789839
10806797285
10806804548
10806812117
10806818281
10806826399
10806833113
10806841047
10806849348
10806856733
10806865217
10806872602
10806879682
10806886396
10806893843
10806900373
10806908491
10806915144
10806922102
10806931501
10806937788
10806947187
10806954084
10806961408
10806965742
10806974104
10806981550
10806988386
10806995893
10807005292
10807011152
10807019819
10807028242
10807034040
10807040998
10807048994
10807057294
10807065961
10807073835
10807079999
10807088727
10807094770
10807102643
10807109357
10807118696
10807125837
10807132795
10807138898
10807146894
10807152753
10807160749
10807167096
10807176679
10807182599
10807189679
10807198102
10807203473
10807212384
10807218732
10807225629
10807233136
10807242658
10807247907
10807256940
10807264752
10807271588
10807277997
10807284467
10807295026
10807301862
10807308514
10807315106
10807321271
10807328595
10807335431
10807342694
10807351300
10807358441
10807365094
10807372296
10807379193
10807387555
10807397076
10807404644
10807412213
10807419049
10807427044
10807433819
10807440655
10807447857
10807453656
10807462811
10807470928
10807477948
10807485516
10807492535
10807498883
10807506268
10807512554
10807519940
10807527447
10807536785
10807542462
10807549725
10807553570
10807564739
10807569744
10807578655
10807586956
10807594036
10807601604
10807608196
10807613079
10807622600
10807628399
10807635601
10807643963
10807651653
10807659710
10807666179
10807673198
10807679973
10807685344
10807692669
10807702739
10807710003
10807716655
10807724224
10807731060
10807738201
10807745769
10807753460
10807761821
10807769756
10807775859
10807784770
10807792705
10807799846
10807807537
10807815288
10807825359
10807832073
10807841533
10807849956
10807857280
10807863628
10807870891
10807881633
10807888652
10807895732
10807902629
10807908794
10807916301
10807924174
10807931743
10807940715
10807947856
10807955302
10807962321
10807968669
10807977763
10807983989
10807991130
10807997600
10808007121
10808011699
10808020976
10808027751
10808035075
10808041423
10808048564
10808056376
10808064799
10808071391
10808080119
10808085246
10808092509
10808099650
10808107218
10808115702
10808123393
10808129130
10808136271
10808144206
10808151713
10808159098
10808166605
10808173808
10808181559
10808188334
10808195536
10808201945
10808211100
10808217020
10808226603
10808235819
10808244242
10808250101
10808258463
10808264017
10808272318
10808277262
10808286478
10808292948
10808301798
10808308085
10808314859
10808322977
10808329996
10808336039
10808345560
10808353739
10808362467
10808368204
10808376749
10808382364
10808390665
10808398355
10808405069
10808412210
10808421427
10808428812
10808435098
10808443765
10808449564
10808456217
10808463052
10808472086
10808480447
10808485025
10808493814
10808500955
10808506876
10808512979
10808522501
10808530557
10808536661
10808544534
10808552713
10808557535
10808566263
10808573099
10808579690
10808588357
10808594217
10808602823
10808608499
10808616616
10808622476
10808631631
10808638406
10808645791
10808652383
10808659951
10808665506
10808674172
10808679910
10808687051
10808694314
10808704263
10808710488
10808718057
10808724404
10808733254
10808739053
10808747476
10808753640
10808762368
10808768716
10808776833
10808782510
10808791238
10808797036
10808806252
10808812722
10808822549
10808828652
10808835793
10808843362
10808850808
10808856362
10808865273
10808872841
10808881081
10808887124
10808896218
10808902077
10808909340
10808915627
10808923012
10808932717
10808940224
10808946877
10808953591
10808961769
10808967202
10808975807
10808980812
10808990029
10808997231
10809005593
10809012306
10809018105
10809024696
10809033730
10809039589
10809049782
10809058998
10809065163
10809071632
10809080482
10809087379
10809094032
10809100929
10809107704
10809115089
10809124428
10809130043
10809138283
10809144508
10809152443
10809158607
10809167824
10809176735
10809183143
10809190162
10809198829
10809205177
10809211769
10809218605
10809225441
10809233131
10809241188
10809249610
10809256935
10809264320
10809270423
10809277259
10809284706
10809295326
10809303077
10809311134
10809319679
10809325355
10809331580
10809340064
10809347572
10809354652
10809362159
10809370094
10809378577
10809385902
10809392432
10809402137
10809408363
10809417213
10809422278
10809430640
10809438087
10809445655
10809453223
10809460242
10809470313
10809476294
10809484168
10809489783
10809497046
10809505469
10809510535
10809519507
10809528052
10809534766
10809542212
10809548438
10809557288
10809562720
10809570960
10809577918
10809589270
10809595984
10809604163
10809611060
10809618567
10809625281
10809632849
10809639685
10809647253
10809655554
10809662695
10809669104
10809676123
10809682288
10809690039
10809698157
10809706091
10809714209
10809720495
10809728674
10809735937
10809741858
10809748999
10809755041
10809762976
10809771643
10809778784
10809785315
10809793005
10809798864
10809806921
10809813025
10809821814
10809827734
10809835180
10809840857
10809849035
10809855322
10809863562
10809872106
10809879980
10809886450
10809892858
10809901342
10809906286
10809914709
10809920385
10809929113
10809937963
10809944738
10809950781
10809959020
10809965307
10809972082
10809979955
10809987585
10809997900
10810004186
10810010778
10810020238
10810026586
10810034765
10810043004
10810050329
10810059240
10810064977
10810073095
10810081029
10810088659
10810095311
10810102453
10810112279
10810119481
10810124913
10810134130
10810140233
10810147496
10810155248
10810160863
10810167943
10810176732
10810183324
10810190282
10810197179
10810204625
10810212987
10810219579
10810228551
10810235814
10810243321
10810251622
10810257176
10810265660
10810272191
10810281590
10810289586
10810295689
10810301915
10810310277
10810316563
10810323765
10810331151
10810337742
10810347325
10810354466
10810361424
10810368138
10810375828
10810382847
10810390721
10810400792
10810408909
10810414830
10810421421
10810429661
10810435521
10810444249
10810450413
10810457920
10810465122
10810474217
10810480564
10810488865
10810494114
10810502537
10810509068
10810516148
10810522923
10810532627
10810538303
10810546543
10810552708
10810561131
10810566807
10810573338
10810581028
10810589756
10810595737
10810604160
10810609714
10810617039
10810624790
10810631443
10810640659
10810647434
10810654392
10810662632
10810667820
10810676182
10810683201
10810689914
10810699802
10810706028
10810714817
10810721408
10810728855
10810735630
10810744541
10810755649
10810763706
10810770908
10810778171
10810785129
10810792880
10810801669
10810808811
10810815708
10810824741
10810831149
10810838107
10810845310
10810853366
10810859164
10810868686
10810876193
10810885043
10810892612
10810898837
10810905185
10810913486
10810919284
10810929416
10810936801
10810943881
10810953280
10810959506
10810967074
10810972445
10810980502
10810986728
10810996981
10811001925
10811010714
10811018710
10811026706
10811031771
10811041964
10811050509
10811058016
10811065768
10811072909
10811079257
10811086642
10811093478
10811101412
10811109347
10811118441
10811125521
10811133883
10811140719
10811149752
10811157076
10811163119
10811171481
10811178011
10811185397
10811193697
10811199129
10811207369
10811214815
10811221468
10811228976
10811235079
10811243441
10811251436
10811258516
10811264742
10811271700
10811278292
10811285738
10811292330
10811300264
10811307711
10811314913
10811320467
10811329683
10811336824
10811344332
10811352327
10811359529
10811365877
10811373140
10811379061
10811387667
10811396150
10811403719
10811409700
10811416780
10811422640
10811431001
10811437349
10811445711
10811453096
10811463777
10811472749
10811480318
10811487703
10811495515
10811501497
10811509981
10811517732
10811525361
10811532014
10811539155
10811546358
10811553499
10811559968
10811567109
10811577668
10811584443
10811591340
10811599641
10811606477
10811613313
10811620271
10811626924
10811635041
10811644014
10811650422
10811656953
10811664460
10811671235
10811678193
10811687531
10811695527
10811702241
10811710359
10811718659
10811726411
10811732331
10811742097
10811746980
10811757905
10811765534
10811772065
10811778840
10811787263
10811793732
10811802643
10811811066
10811818574
10811825776
10811832306
10811839509
10811845307
10811853852
10811860016
10811868561
10811874604
10811883027
10811890534
10811898102
10811905060
10811912751
10811919464
10811926606
10811935334
10811942597
10811950714
10811957245
10811964936
10811972199
10811981598
10811990387
10811996002
10812004669
10812010956
10812019318
10812025116
10812032196
10812041534
10812048553
10812056488
10812063507
10812070892
10812077423
10812084869
10812091278
10812100189
10812108734
10812114105
10812122528
10812131317
10812137054
10812146637
10812154205
10812161834
10812168426
10812175628
10812183136
10812191497
10812198761
10812204864
10812214752
10812222686
10812231292
10812239044
10812245941
10812253875
10812261260
10812270477
10812277435
10812286468
10812293914
10812299896
10812308013
10812314483
10812320953
10812328643
10812338104
10812344268
10812353301
10812359649
10812366363
10812374419
10812378936
10812387847
10812396392
10812402556
10812410674
10812416778
10812426482
10812432281
10812439116
10812446074
10812455901
10812462554
10812470549
10812476775
10812485320
10812491179
10812498137
10812508025
10812515776
10812522002
10812530669
10812538604
10812544524
10812552886
10812559966
10812567473
10812575163
10812579314
10812588225
10812594084
10812602934
10812609160
10812616301
10812623381
10812634917
10812641997
10812649565
10812656645
10812662077
10812670378
10812677458
10812684477
10812691984
10812698698
10812705839
10812711699
10812719694
10812727507
10812734770
10812742827
10812749968
10812753996
10812765043
10812773527
10812780302
10812786711
10812796110
10812803801
10812812407
10812820524
10812826261
10812832426
10812840971
10812847624
10812853910
10812864347
10812870512
10812878385
10812883756
10812891081
10812899687
10812904569
10812914823
10812922331
10812931730
10812937467
10812946317
10812952421
10812961393
10812967130
10812974088
10812983549
10812990934
10812997648
10813006254
10813012418
10813019926
10813027311
10813036283
10813043912
10813050687
10813059354
10813065091
10813073392
10813079129
10813087552
10813093717
10813101957
10813110624
10813117826
10813124234
10813132535
10813139554
10813146451
10813153653
10813163663
10813170438
10813177579
10813185575
10813192655
10813199063
10813206204
10813213834
10813220853
10813227567
10813236783
10813244412
10813251004
10813258450
10813265897
10813275113
10813284024
10813291714
10813297574
10813306485
10813314358
10813321683
10813329922
10813337369
10813345059
10813352139
10813358731
10813365750
10813373990
10813381436
10813389065
10813395657
10813402432
10813411099
10813416714
10813425686
10813434231
10813441006
10813450405
10813457302
10813465481
10813471768
10813480190
10813486233
10813493435
10813499722
10813507839
10813513943
10813522976
10813528835
10813536404
10813542080
10813550137
10813559353
10813567532
10813574612
10813582363
10813590542
10813597866
10813602077
10813611538
10813618740
10813625942
10813632900
10813641811
10813649196
10813657924
10813666713
10813673427
10813683010
10813690944
10813699428
10813706569
10813714443
10813721523
10813729213
10813735988
10813743618
10813752040
10813758693
10813766567
10813773342
10813780788
10813789699
10813795253
10813804408
10813811794
10813818019
10813825954
10813833461
10813838039
10813847255
10813855617
10813861598
10813869838
10813877162
10813884059
10813890834
10813897609
10813903956
10813914454
10813920558
10813927943
10813934901
10813942714
10813949367
10813956630
10813963221
10813972560
10813980250
10813987330
10813993800
10814002162
10814008570
10814015651
10814024562
10814031703
10814037806
10814045924
10814051722
10814059962
10814067591
10814074427
10814081568
10814089259
10814098170
10814106226
10814113795
10814119837
10814128199
10814136012
10814143763
10814150416
10814157862
10814165003
10814171168
10814180201
10814186182
10814195093
10814201807
10814209254
10814215357
10814223231
10814231226
10814238428
10814242823
10814253565
10814260584
10814268091
10814275354
10814282496
10814289454
10814295313
10814301111
10814309595
10814315699
10814323877
10814332361
10814338404
10814346094
10814353174
10814360803
10814368494
10814373255
10814385278
10814391931
10814400232
10814408472
10814414209
10814420007
10814428430
10814434961
10814443933
10814453027
10814458398
10814464014
10814472681
10814481348
10814487024
10814496667
10814504541
10814511133
10814518762
10814524927
10814533532
10814539270
10814545617
10814554773
10814561914
10814570337
10814574914
10814583154
10814591088
10814596826
10814603784
10814613000
10814620629
10814629602
10814635949
10814642663
10814648889
10814657495
10814664086
10814671350
10814680322
10814687158
10814694360
10814700829
10814707909
10814714440
10814721520
10814728661
10814736840
10814744042
10814751427
10814758630
10814765038
10814773583
10814780785
10814788537
10814794762
10814802819
10814808983
10814817834
10814823998
10814831444
10814838036
10814845116
10814854638
10814861474
10814868920
10814875512
10814880822
10814889855
10814896263
10814903832
10814911095
10814918175
10814924828
10814932152
10814940941
10814947350
10814954735
10814963646
10814969078
10814977989
10814985802
10814994225
10815001427
10815008263
10815015343
10815022850
10815030174
10815037865
10815044701
10815052269
10815059654
10815066124
10815073265
10815080406
10815087486
10815094322
10815102745
10815109581
10815120140
10815126243
10815138145
10815146324
10815152916
10815159691
10815168663
10815176414
10815182945
10815189720
10815196800
10815205650
10815214500
10815221519
10815228660
10815235862
10815242454
10815250266
10815262168
10815269431
10815277915
10815285301
10815291648
10815294334
10815306480
10815317405
10815325401
10815332969
10815341087
10815348716
10815352622
10815361350
10815367149
10815375938
10815382957
10815391501
10815400107
10815404685
10815413413
10815419517
10815427329
10815435019
10815441489
10815449729
10815456015
10815463279
10815472007
10815477378
10815485740
10815492087
10815498618
10815506613
10815515219
10815520224
10815529013
10815534018
10815543296
10815551657
10815557639
10815566489
10815573386
10815583334
10815589621
10815596396
10815602622
10815610983
10815620444
10815628012
10815635336
10815642538
10815648764
10815656027
10815663901
10815671652
10815679465
10815687643
10815696615
10815703634
10815710592
10815717978
10815725546
10815732748
10815739340
10815746481
10815755575
10815762045
10815768210
10815777243
10815783407
10815790182
10815799948
10815806784
10815814169
10815820822
10815827658
10815834188
10815840719
10815847860
10815858663
10815868490
10815875082
10815881857
10815888754
10815897543
10815903402
10815912557
10815917867
10815927023
10815935995
10815941793
10815949422
10815955282
10815963583
10815972188
10815980123
10815988607
10815996358
10816003499
10816011617
10816018941
10816026571
10816031270
10816040304
10816047323
10816056539
10816063924
10816071309
10816079915
10816086507
10816094686
10816104146
10816109944
10816118184
10816123738
10816132222
10816136739
10816145589
10816152730
10816161397
10816166585
10816174092
10816179891
10816184712
10816190816
10816194844
10816201375
10816207112
10816212178
10816217488
10816222066
10816226460
10816232320
10816239095
10816244038
10816248555
10816254719
10816259175
10816266194
10816272298
10816278340
10816282429
10816289204
10816294819
10816300801
10816306294
10816313496
10816318806
10816324666
10816329854
10816336262
10816341633
10816351155
10816356221
10816362568
10816368061
10816375447
10816380207
10816386921
10816392109
10816397053
10816404682
10816411335
10816417134
10816421528
10816426655
10816431355
10816436543
10816441181
10816448200
10816452229
10816459309
10816464558
10816470783
10816479694
10816489155
10816500202
10816509541
10816518452
10816529316
10816539143
10816549763
10816556415
10816564167
10816571491
10816579304
10816586750
10816594745
10816602802
10816609821
10816616535
10816625629
10816632770
10816640522
10816649372
10816656147
10816662494
10816669635
10816676532
10816684284
10816690876
10816697223
10816704364
10816713153
10816722187
10816728534
10816737384
10816741901
10816748737
10816758197
10816765216
10816770587
10816779926
10816786334
10816793353
10816799152
10816808856
10816810931
10816821796
10816828510
10816835223
10816842914
10816851642
10816860309
10816864520
10816874652
10816878985
10816886249
10816894794
10816900958
10816906939
10816914874
10816923663
10816930499
10816936908
10816944171
10816951007
10816957354
10816963763
10816971026
10816978228
10816985980
10816994769
10816998980
10817006610
10817014544
10817020892
10817029009
10817033465
10817040728
10817048236
10817060198
10817065997
10817070941
10817081378
10817088030
10817093462
10817101214
10817107989
10817116595
10817121600
10817133807
10817142168
10817148577
10817154314
10817162981
10817169512
10817176653
10817182329
10817190996
10817196734
10817209551
10817216692
10817223162
10817231096
10817236712
10817245806
10817252825
10817258135
10817266069
10817275408
10817284624
10817289507
10817297991
10817305010
10817313799
10817319536
10817325029
10817333818
10817341753
10817353105
10817363970
10817369646
10817376421
10817382646
10817391679
10817396379
10817404253
10817414812
10817425188
10817432512
10817441545
10817446428
10817451738
10817458940
10817462541
10817469438
10817474748
10817480424
10817485856
10817491228
10817496904
10817502336
10817505082
10817512163
10817517534
10817523454
10817528398
10817534074
10817538286
10817544877
10817549333
10817554460
10817559282
10817567338
10817572526
10817577897
10817583085
10817588761
10817593888
10817600114
10817605363
10817608598
10817616960
10817620011
10817626542
10817630815
10817636918
10817641191
10817646745
10817653337
10817659257
10817666398
10817670304
10817675614
10817684037
10817690690
10817696183
10817700944
10817709367
10817713517
10817720414
10817725114
10817731522
10817736405
10817741532
10817748917
10817754594
10817761979
10817766740
10817772172
10817778397
10817784073
10817789750
10817795670
10817801957
10817808487
10817814042
10817817643
10817824723
10817829667
10817835160
10817842057
10817847428
10817853653
10817859757
10817862809
10817870438
10817877091
10817881546
10817886429
10817893082
10817898026
10817903458
10817910233
10817915909
10817921341
10817926346
10817932327
10817937454
10817943192
10817946732
10817953995
10817959305
10817964432
10817971573
10817976395
10817983048
10817989517
10817996780
10818002945
10818009354
10818014969
10818021072
10818030716
10818035355
10818041885
10818047623
10818052811
10818057388
10818063370
10818067337
10818074478
10818079300
10818084732
10818091873
10818097732
10818102371
10818107742
10818112137
10818118911
10818123245
10818129471
10818134109
10818139908
10818146560
10818150833
10818157425
10818162552
10818167617
10818172012
10818177444
10818182754
10818188613
10818194656
10818200515
10818206008
10818213211
10818217910
10818223892
10818232131
10818237014
10818242507
10818247695
10818253982
10818259414
10818264785
10818269790
10818276443
10818281509
10818285232
10818291030
10818297195
10818303298
10818306533
10818314223
10818319350
10818328139
10818333266
10818337966
10818345046
10818350051
10818355483
10818361159
10818367446
10818373488
10818379531
10818385695
10818391860
10818398025
10818405593
10818413466
10818421279
10818425734
10818433486
10818441420
10818450271
10818455825
10818465834
10818472853
10818480300
10818485976
10818495558
10818500869
10818511306
10818518752
10818528395
10818536696
10818545546
10818553969
10818560988
10818570326
10818576491
10818586134
10818593764
10818600600
10818610182
10818615248
10818623793
10818632582
10818635084
10818649306
10818660353
10818667067
10818679762
10818688307
10818695631
10818706862
10818712721
10818725111
10818733412
10818743483
10818752150
10818755079
10818768812
10818773329
10818784315
10818791212
10818796278
10818805311
10818810133
10818823316
10818829725
10818836561
10818843458
10818852857
10818861097
10818869459
10818875074
10818884473
10818894117
10818899366
10818905470
10818914930
10818921522
10818926893
10818932142
10818942457
10818949476
10818958753
10818966505
10818972547
10818980176
10818986707
10818992261
10819000379
10819004835
10819012647
10819021985
10819030408
10819036817
10819042798
10819048719
10819055738
10819062574
10819069410
10819077039
10819079297
10819090894
10819098218
10819105908
10819113538
10819115735
10819126294
10819132947
10819138074
10819145825
10819152844
10819160657
10819164624
10819175000
10819181531
10819186963
10819194348
10819200574
10819208630
10819215955
10819224805
10819231763
10819237500
10819245373
10819252942
10819259350
10819265698
10819272778
10819280347
10819289319
10819297131
10819302868
10819308972
10819315381
10819322400
10819330212
10819337475
10819345654
10819353589
10819361828
10819369519
10819374524
10819382275
10819387951
10819396130
10819400646
10819411511
10819418469
10819426098
10819434216
10819440502
10819448681
10819453015
10819463757
10819470165
10819476574
10819483715
10819490490
10819498913
10819504284
10819512951
10819520153
10819527904
10819540417
10819547008
10819555675
10819565929
10819575451
10819580944
10819592968
10819597545
10819608715
10819615185
10819622753
10819629284
10819637645
10819645519
10819651500
10819656871
10819662609
10819670787
10819676708
10819683361
10819687938
10819691783
10819703807
10819710887
10819718028
10819724620
10819728954
10819736522
10819742137
10819750255
10819755504
10819764049
10819772716
10819776744
10819783397
10819792003
10819798106
10819802013
10819812083
10819818797
10819825633
10819833507
10819840953
10819847606
10819854686
10819861339
10819867564
10819872996
10819882701
10819887401
10819895884
10819900401
10819910350
10819916942
10819924083
10819929454
10819934825
10819944529
10819948924
10819958323
10819964610
10819972117
10819978831
10819985301
10819990916
10819997019
10820003977
10820010691
10820018565
10820026255
10820032298
10820039927
10820046153
10820050669
10820057810
10820062998
10820070628
10820078501
10820084544
10820090952
10820098154
10820105051
10820110239
10820117503
10820121653
10820130503
10820136912
10820145579
10820154856
10820160166
10820167307
10820171152
10820180308
10820185984
10820190439
10820198130
10820202463
10820213144
10820217783
10820227305
10820233408
10820237253
10820244577
10820251169
10820255686
10820262888
10820272531
10820279917
10820285959
10820293344
10820299936
10820304514
10820313486
10820317636
10820325754
10820335031
10820344797
10820350351
10820361582
10820370004
10820375375
10820383554
10820388437
10820399484
10820403818
10820415720
10820421701
10820431589
10820437814
10820443674
10820451730
10820455514
10820462472
10820473886
10820480722
10820486886
10820492380
10820498422
10820506967
10820513559
10820522531
10820530160
10820535409
10820546334
10820550424
10820558419
10820564767
10820569406
10820579171
10820586129
10820593515
10820603402
10820608468
10820615365
10820623361
10820627511
10820635446
10820643685
10820649117
10820656259
10820663461
10820670236
10820678597
10820685372
10820694955
10820700997
10820710946
10820716134
10820725045
10820733651
10820741158
10820749398
10820754891
10820763009
10820769539
10820778390
10820782784
10820789803
10820798836
10820808297
10820817330
10820823983
10820831856
10820835946
10820842293
10820849800
10820856270
10820864083
10820868843
10820882393
10820888802
10820896370
10820902413
10820909859
10820916634
10820922859
10820929390
10820936409
10820945320
10820953926
10820958138
10820965584
10820973396
10820979866
10820985420
10820992806
10820998421
10821004707
10821012093
10821021919
10821028267
10821032844
10821040657
10821046516
10821052559
10821059273
10821065803
10821077522
10821085457
10821087593
10821098030
10821103767
10821109688
10821116279
10821121772
10821129463
10821133857
10821143074
10821150032
10821156501
10821163948
10821170723
10821175605
10821186347
10821193550
10821201179
10821208381
10821219245
10821227790
10821234626
10821241645
10821251960
10821257453
10821264777
10821271613
10821278144
10821301826
10821306647
10821311103
10821314826
10821317695
10821322089
10821326118
10821331428
10821334724
10821337897
10821341865
10821344367
10821347480
10821350776
10821353950
10821357429
10821360602
10821364631
10821368049
10821371528
10821374213
10821377631
10821381415
10821383979
10821387885
10821391425
10821394416
10821397468
10821401618
10821405036
10821407966
10821411933
10821415168
10821419562
10821424384
10821427985
10821432319
10821436713
10821440009
10821443000
10821448981
10821453070
10821457099
10821461737
10821465766
10821470832
10821475226
10821480048
10821483100
10821487555
10821490546
10821496344
10821500983
10821504218
10821508856
10821512213
10821517951
10821522406
10821526068
10821531561
10821535773
10821540412
10821543524
10821548956
10821552619
10821556525
10821560126
10821565985
10821570319
10821574408
10821579169
10821583441
10821588812
10821592841
10821599127
10821604742
10821609930
10821614264
10821618597
10821623053
10821627142
10821630316
10821637030
10821640814
10821646124
10821650824
10821654974
10821658453
10821663702
10821667608
10821673163
10821675665
10821681402
10821686224
10821690680
10821694403
10821699225
10821702643
10821711248
10821716497
10821721136
10821725531
10821729986
10821733648
10821738775
10821742437
10821748663
10821752996
10821758490
10821762396
10821767279
10821772283
10821777166
10821781195
10821788214
10821792303
10821798406
10821802130
10821807257
10821812506
10821815557
10821821417
10821826055
10821832525
10821836920
10821844061
10821848394
10821853033
10821857427
10821863043
10821870672
10821875677
10821883245
10821889471
10821892889
10821899847
10821904363
10821910894
10821916204
10821921941
10821925725
10821931585
10821937139
10821942937
10821947942
10821951787
10821959051
10821963384
10821968145
10821972234
10821978521
10821980779
10821987676
10821990667
10821998784
10822004339
10822008672
10822012822
10822017339
10822021489
10822027227
10822029851
10822039190
10822043035
10822049993
10822052678
10822058843
10822063787
10822068730
10822072942
10822080999
10822087285
10822092290
10822096196
10822101018
10822106389
10822112004
10822117253
10822123662
10822129033
10822134465
10822139531
10822144292
10822148015
10822153325
10822157658
10822164555
10822170354
10822173650
10822179875
10822185429
10822191655
10822195622
10822200566
10822206731
10822213383
10822218999
10822224065
10822230290
10822234807
10822240178
10822245366
10822250859
10822257634
10822260747
10822268498
10822272709
10822278508
10822284550
10822289616
10822293034
10822300908
10822307377
10822312626
10822315861
10822323674
10822328618
10822335514
10822340947
10822346867
10822352543
10822358708
10822363530
10822370549
10822376530
10822381657
10822387821
10822393925
10822400456
10822407047
10822413578
10822420597
10822426884
10822430302
10822441960
10822448612
10822454350
10822459538
10822464542
10822469730
10822472904
10822481144
10822485600
10822492069
10822496281
10822501774
10822506779
10822511234
10822516605
10822521305
10822528141
10822533634
10822537662
10822543766
10822548649
10822553348
10822557133
10822563602
10822569706
10822573978
10822579593
10822583988
10822589542
10822593876
10822598392
10822604007
10822608585
10822614261
10822619205
10822625187
10822630375
10822635318
10822639225
10822645572
10822652286
10822658756
10822664615
10822668827
10822673709
10822679325
10822684574
10822690250
10822693851
10822700504
10822705020
10822711124
10822716251
10822721012
10822724613
10822729862
10822734561
10822741275
10822748477
10822754276
10822758426
10822763858
10822768192
10822774173
10822778323
10822783511
10822790225
10822796939
10822801089
10822806277
10822810977
10822816714
10822821475
10822826114
10822832767
10822836917
10822842654
10822846866
10822853580
10822856631
10822862857
10822866946
10822873843
10822880618
10822886233
10822890201
10822895572
10822901736
10822906009
10822910708
10822914004
10822921267
10822928469
10822934268
10822940005
10822945193
10822952700
10822959109
10822967471
10822976504
10822983706
10822988589
10822994631
10823000491
10823007266
10823012271
10823018801
10823023013
10823029116
10823035586
10823039553
10823045290
10823048831
10823055239
10823062197
10823066714
10823070925
10823077212
10823081911
10823086733
10823089785
10823099001
10823102846
10823109743
10823115298
10823120180
10823125368
10823130801
10823136599
10823140505
10823145083
10823152651
10823158022
10823163454
10823168154
10823172854
10823179506
10823183474
10823189882
10823194826
10823201479
10823202822
10823212771
10823217714
10823223513
10823226687
10823234377
10823239626
10823246523
10823251894
10823258547
10823263491
10823270693
10823274904
10823280092
10823285646
10823292971
10823298342
10823303896
10823309999
10823315065
10823322389
10823326967
10823333803
10823338564
10823346010
10823351076
10823356447
10823363344
10823367799
10823374757
10823380128
10823385561
10823391908
10823398500
10823405214
10823409669
10823414308
10823421632
10823427736
10823433046
10823437746
10823444581
10823451356
10823457216
10823461793
10823466371
10823473024
10823477357
10823483888
10823488588
10823495302
10823501344
10823505861
10823510926
10823517274
10823523133
10823527406
10823534913
10823542970
10823551088
10823557862
10823566957
10823573426
10823580323
10823589234
10823601625
10823607789
10823622315
10823629029
10823636964
10823643800
10823648255
10823657410
10823663880
10823669373
10823678773
10823683106
10823691285
10823697938
10823703370
10823710755
10823719178
10823726319
10823730530
10823738526
10823744935
10823752503
10823759461
10823764588
10823772339
10823780091
10823785645
10823791932
10823802857
10823809205
10823815430
10823822571
10823829285
10823835328
10823841797
10823847962
10823855347
10823860413
10823871399
10823879517
10823885559
10823894776
10823901917
10823910767
10823920044
10823930298
10823935303
10823949036
10823954468
10823965759
10823969788
10823979675
10823986145
10823991760
10823999390
10824003784
10824017334
10824024170
10824031494
10824038452
10824046326
10824053833
10824058105
10824066406
10824074890
10824083435
10824090637
10824097839
10824103454
10824112365
10824118408
10824124878
10824131530
10824139160
10824144226
10824157592
10824165405
10824171875
10824179138
10824184936
10824193786
10824198791
10824205627
10824213806
10824224120
10824232421
10824237304
10824247375
10824255370
10824265868
10824272887
10824282714
10824289977
10824297240
10824305541
10824310119
10824320129
10824326842
10824332702
10824340636
10824345153
10824355285
10824362060
10824367980
10824377013
10824381286
10824391845
10824398681
10824404296
10824412291
10824416747
10824428283
10824437743
10824449401
10824459166
10824467955
10824476195
10824483763
10824490660
10824499083
10824507933
10824513609
10824522765
10824529295
10824537901
10824544066
10824550658
10824558165
10824566527
10824571959
10824577940
10824588438
10824597227
10824602293
10824609129
10824615416
10824622923
10824629637
10824635557
10824641905
10824653990
10824660093
10824666258
10824673521
10824681334
10824687132
10824692686
10824698179
10824704954
10824709410
10824721434
10824728086
10824734068
10824740782
10824748045
10824755979
10824763365
10824770079
10824780393
10824789915
10824796629
10824801939
10824809080
10824813841
10824821592
10824827390
10824834165
10824843382
10824850156
10824857420
10824862730
10824870237
10824876890
10824882566
10824888547
10824896665
10824901426
10824905332
10824915891
10824922361
10824930112
10824936338
10824944028
10824952329
10824956846
10824965635
10824972471
10824979856
10824989988
10824996763
10825002073
10825009031
10825015683
10825023496
10825029905
10825038572
10825045285
10825055417
10825062314
10825069699
10825076108
10825078305
10825088681
10825095151
10825100705
10825110166
10825117490
10825125607
10825130917
10825139707
10825146603
10825156918
10825164792
10825171384
10825179807
10825188840
10825197568
10825203000
10825210202
10825219296
10825226132
10825235776
10825240903
10825249325
10825257931
10825268734
10825277646
10825285214
10825292599
10825300778
10825306149
10825314389
10825319271
10825333126
10825341549
10825349728
10825358151
10825365963
10825375057
10825382687
10825390255
10825398373
10825402523
10825409481
10825413815
10825427487
10825431759
10825438839
10825447384
10825452572
10825459652
10825463741
10825473873
10825478390
10825488766
10825495296
10825501644
10825508724
10825513912
10825521664
10825527523
10825532711
10825541561
