10934663657
10934666831
10934670249
10934673240
10934676658
10934679465
10934682639
10934686545
10934689536
10934695639
10934699668
10934703391
10934707114
10934713889
10934717978
10934722007
10934727500
10934732321
10934737021
10934743430
10934747336
10934753806
10934757956
10934764365
10934771079
10934776755
10934782126
10934788291
10934793601
10934798667
10934804831
10934809714
10934813193
10934819540
10934825522
10934830100
10934834677
10934842184
10934849081
10934854147
10934860251
10934863974
10934871176
10934876791
10934881552
10934888388
10934894675
10934900778
10934905905
10934912008
10934917013
10934922262
10934927450
10934932699
10934938559
10934944662
10934950644
10934955649
10934960470
10934966208
10934971640
10934977499
10934982321
10934987143
10934992392
10934997030
10935001486
10935008017
10935012411
10935017477
10935023703
10935028891
10935034567
10935039328
10935045431
10935050436
10935055014
10935062033
10935066488
10935071371
10935077230
10935083822
10935090597
10935096273
10935103170
10935108541
10935113790
10935120748
10935125692
10935133688
10935141012
10935147665
10935154684
10935159383
10935166830
10935173360
10935179342
10935185323
10935190084
10935199117
10935205526
10935210714
10935218587
10935224569
10935238607
10935246419
10935253621
10935259664
10935267171
10935274740
10935282552
10935287801
10935294759
10935299947
10935308004
10935311971
10935320089
10935325643
10935333882
10935337789
10935346089
10935353047
10935357991
10935363362
10935371297
10935377828
10935384114
10935388081
10935396626
10935403096
10935410359
10935417378
10935422688
10935429768
10935436543
10935443440
10935448750
10935456563
10935463643
10935467671
10935476277
10935480244
10935489888
10935496602
10935503560
10935510090
10935517415
10935521931
10935530415
10935539204
10935546223
10935553059
10935560383
10935564412
10935572895
10935576924
10935586140
10935592854
10935601216
10935605427
10935613850
10935619709
10935627522
10935633137
10935640461
10935646443
10935655110
10935661396
10935668904
10935675251
10935683308
10935689655
10935697102
10935705463
10935712971
10935719318
10935728169
10935733784
10935741047
10935748676
10935753193
10935763081
10935770527
10935777241
10935784138
10935791767
10935800617
10935808002
10935814228
10935823139
10935829242
10935838764
10935847004
10935853779
10935859943
10935867878
10935876178
10935881061
10935891254
10935898456
10935904987
10935914447
10935925983
10935934467
10935941303
10935951557
10935957843
10935966144
10935974262
10935983661
10935992694
10935998187
10936005817
10936012775
10936020892
10936026202
10936033954
10936039020
10936046466
10936049823
10936059283
10936062945
10936073138
10936081744
10936088641
10936093951
10936100726
10936108111
10936115069
10936123248
10936130572
10936137042
10936144122
10936151568
10936158404
10936164508
10936174029
10936180621
10936189471
10936193377
10936203753
10936210528
10936217425
10936225726
10936234576
10936241900
10936249102
10936256426
10936262286
10936267779
10936277728
10936283282
10936290057
10936296954
10936305193
10936312090
10936319964
10936327166
10936335528
10936340899
10936350420
10936357500
10936365801
10936373675
10936381914
10936388933
10936396441
10936403033
10936412554
10936417864
10936425860
10936435015
10936441729
10936448504
10936455767
10936464251
10936468828
10936479021
10936486528
10936494097
10936501543
10936509661
10936518389
10936523027
10936533892
10936542742
10936550859
10936557695
10936564836
10936573931
10936579729
10936592607
10936604814
10936611284
10936620927
10936628862
10936636858
10936644731
10936652055
10936658403
10936664567
10936672380
10936679826
10936687456
10936693315
10936703874
10936709123
10936718034
10936726640
10936731706
10936741350
10936752153
10936759050
10936767472
10936775285
10936782487
10936790422
10936797258
10936805436
10936812760
10936819902
10936826310
10936833329
10936841020
10936848893
10936858109
10936866166
10936874589
10936881791
10936889054
10936895280
10936904069
10936911515
10936920670
10936928117
10936935014
10936942826
10936949235
10936956803
10936964555
10936974991
10936980851
10936988358
10936995682
10937003983
10937010026
10937018509
10937026993
10937032364
10937039811
10937048050
10937059769
10937066361
10937076310
10937085587
10937093644
10937100113
10937109330
10937116165
10937122574
10937129593
10937139176
10937144730
10937154556
10937162491
10937169815
10937180313
10937185928
10937193924
10937201309
10937209549
10937217606
10937225174
10937234756
10937245804
10937253067
10937261429
10937269485
10937277847
10937286453
10937295730
10937303177
10937312454
10937324173
10937329300
10937336990
10937344619
10937353775
10937359512
10937366043
10937371475
10937382095
10937387100
10937395401
10937401504
10937408401
10937417739
10937421218
10937429336
10937438186
10937443191
10937451858
10937457412
10937466384
10937476089
10937482070
10937491287
10937495132
10937505386
10937513320
10937521621
10937529433
10937536697
10937544082
10937553054
10937560317
10937568618
10937576308
10937584060
10937590285
10937598403
10937606032
10937613662
10937622207
10937630263
10937637404
10937644423
10937652419
10937660292
10937668654
10937677687
10937683181
10937692885
10937697097
10937706862
10937715712
10937722426
10937732436
10937737624
10937746169
10937754347
10937761366
10937769484
10937776686
10937785903
10937793166
10937800612
10937809523
10937818190
10937826491
10937832228
10937841200
10937854262
10937869398
10937887587
10937900587
10937910841
10937920241
10937927748
10937937208
10937941725
10937954969
10937963697
10937977797
10937989088
10937995558
10938004835
10938017042
10938022962
10938031996
10938039076
10938048292
10938056471
10938063856
10938066175
10938076917
10938084120
10938091810
10938099317
10938105787
10938110792
10938122144
10938126966
10938137830
10938145765
10938153028
10938160047
10938166578
10938172925
10938181837
10938188184
10938196851
10938205396
10938211805
10938220105
10938225171
10938234632
10938242261
10938249707
10938256543
10938264234
10938273084
10938280896
10938287793
10938290784
10938304883
10938312512
10938319470
10938328382
10938338574
10938345044
10938349744
10938359632
10938368176
10938375562
10938385938
10938393872
10938401929
10938408521
10938416272
10938422681
10938431653
10938439160
10938446973
10938456616
10938462109
10938470349
10938479016
10938485242
10938492871
10938499341
10938507458
10938512402
10938522168
10938529980
10938535107
10938539319
10938548840
10938556775
10938564465
10938572155
10938578503
10938586193
10938593762
10938601757
10938607800
10938615185
10938623364
10938630688
10938638745
10938646313
10938654186
10938656933
10938667797
10938676769
10938685131
10938693127
10938701611
10938708935
10938715710
10938725170
10938733166
10938737987
10938749950
10938758678
10938765148
10938774670
10938780468
10938787243
10938794994
10938803112
10938810619
10938816478
10938824047
10938831371
10938838939
10938843578
10938852794
10938857189
10938866405
10938872814
10938881298
10938887584
10938895275
10938901744
10938908824
10938914501
10938922191
10938929637
10938936962
10938944591
10938950755
10938958324
10938965465
10938971263
10938979137
10938986705
10938991100
10939001170
10939005687
10939013866
10939020213
10939029246
10939036388
10939044078
10939050426
10939058971
10939068187
10939074473
10939083507
10939090098
10939098033
10939106395
10939113841
10939122081
10939129588
10939132152
10939142527
10939147227
10939157542
10939164927
10939172496
10939176829
10939185374
10939191783
10939198802
10939206980
10939213999
10939220347
10939229319
10939236338
10939243662
10939249949
10939258738
10939265208
10939270274
10939280039
10939286936
10939296824
10939305247
10939311472
10939318613
10939326304
10939332590
10939342539
10939349558
10939358103
10939364146
10939371897
10939380320
10939388621
10939394968
10939402842
10939409189
10939416025
10939424875
10939431833
10939440073
10939448862
10939454783
10939463755
10939470163
10939478647
10939485910
10939495249
10939500437
10939510385
10939518320
10939528574
10939533457
10939542917
10939549875
10939561228
10939566110
10939575693
10939580087
10939589182
10939595651
10939603464
10939610117
10939618112
10939624338
10939632455
10939638681
10939645761
10939651437
10939660043
10939665964
10939674203
10939681772
10939689096
10939695444
10939702890
10939710214
10939718149
10939724374
10939729257
10939740487
10939745675
10939754403
10939758432
10939767160
10939773629
10939781564
10939787973
10939795724
10939801950
10939811105
10939816720
10939825143
10939831002
10939839547
10939845223
10939850839
10939861703
10939868844
10939876534
10939881051
10939891000
10939895333
10939905465
10939909982
10939921273
10939926461
10939935860
10939942025
10939949776
10939956246
10939963692
10939971810
10939979867
10939985970
10939994271
10939999886
10940007760
10940015389
10940022530
10940028084
10940036629
10940045479
10940053353
10940059090
10940065560
10940073006
10940079293
10940088082
10940094368
10940103340
10940109871
10940117073
10940122627
10940131905
10940137581
10940145943
10940151619
10940160652
10940168709
10940175240
10940182747
10940188362
10940196358
10940200752
10940210152
10940216682
10940225716
10940232490
10940240242
10940247993
10940256782
10940268623
10940276985
10940286812
10940293281
10940304207
10940311470
10940319099
10940325691
10940334053
10940340278
10940349800
10940354255
10940363044
10940370185
10940376655
10940383552
10940390937
10940397651
10940406623
10940413337
10940421333
10940428169
10940436347
10940442756
10940451545
10940456611
10940465705
10940471748
10940479682
10940485908
10940494331
10940501716
10940509406
10940513801
10940524909
10940529731
10940540534
10940546821
10940554938
10940559943
10940569709
10940578315
10940586738
10940593879
10940600104
10940607551
10940615668
10940623847
10940631781
10940639777
10940647467
10940658088
10940666632
10940674567
10940683051
10940690680
10940699958
10940708197
10940715399
10940721747
10940730963
10940735663
10940745673
10940751471
10940761298
10940768988
10940776190
10940785101
10940791571
10940800726
10940805548
10940816351
10940823675
10940832342
10940839850
10940846197
10940855841
10940862372
10940873114
10940880987
10940888800
10940896673
10940903265
10940912054
10940920477
10940927069
10940934088
10940942633
10940950567
10940958685
10940965948
10940974981
10940984137
10940991033
10941005682
10941015447
10941022955
10941028631
10941039434
10941044317
10941055547
10941060186
10941069769
10941076360
10941084722
10941091009
10941097845
10941104009
10941113409
10941119817
10941126043
10941134344
10941141912
10941147588
10941155645
10941161443
10941170721
10941176397
10941184148
10941191839
10941198186
10941205877
10941211126
10941218511
10941224920
10941232915
10941239141
10941246831
10941253057
10941262761
10941269719
10941277654
10941284062
10941292791
10941301702
10941309636
10941315862
10941323247
10941331731
10941339543
10941345708
10941350652
10941362065
10941366887
10941376897
10941383916
10941391789
10941398625
10941406438
10941412785
10941421818
10941428227
10941436650
10941442998
10941451787
10941460210
10941465092
10941474919
10941480107
10941489323
10941496220
10941505192
10941512517
10941519352
10941527592
10941535344
10941541569
10941546452
10941557988
10941562992
10941573246
10941578129
10941586613
10941593632
10941601933
10941608097
10941618778
10941627751
10941634953
10941641361
10941648808
10941657108
10941664127
10941672550
10941679508
10941687870
10941692997
10941703861
10941708805
10941717045
10941724247
10941733036
10941740116
10941748722
10941755070
10941764103
10941770572
10941779300
10941788700
10941795963
10941805546
10941810917
10941825687
10941833439
10941842655
10941849857
10941856510
10941864994
10941870731
10941879642
10941885440
10941893741
10941901493
10941907901
10941915348
10941921695
10941929263
10941936771
10941942691
10941948917
10941956607
10941963077
10941971866
10941978336
10941986026
10941992618
10941999393
10942007510
10942013675
10942021976
10942028873
10942034732
10942043033
10942048709
10942058353
10942064151
10942071475
10942078921
10942085757
10942093387
10942099795
10942107303
10942112796
10942121951
10942126895
10942137637
10942146121
10942154483
10942159304
10942168643
10942175723
10942184024
10942191104
10942200381
10942207278
10942214480
10942223696
10942230410
10942236758
10942245486
10942253420
10942259402
10942267580
10942275576
10942284365
10942290591
10942299563
10942309450
10942315981
10942323733
10942332583
10942337588
10942347475
10942354372
10942362002
10942368777
10942377932
10942384951
10942394106
10942400881
10942408938
10942415102
10942422060
10942430239
10942439150
10942446047
10942455873
10942462160
10942466982
10942477053
10942483889
10942492189
10942498964
10942506777
10942513063
10942521974
10942528139
10942536134
10942544313
10942550539
10942559084
10942568727
10942578310
10942588503
10942598085
10942604677
10942612123
10942623109
10942628053
10942638124
10942646791
10942652650
10942660158
10942669252
10942674196
10942681947
10942691102
10942698976
10942705812
10942712587
10942720948
10942728395
10942734742
10942739564
10942750856
10942755677
10942766175
10942773866
10942779908
10942786256
10942793641
10942801881
10942808473
10942814759
10942822938
10942828675
10942836793
10942842591
10942850587
10942858216
10942864137
10942871766
10942880006
10942885682
10942893922
10942900086
10942907960
10942915650
10942922486
10942930421
10942939332
10942946290
10942952515
10942960572
10942968934
10942976868
10942983399
10942992127
10942998353
10943006470
10943017579
10943023865
10943032349
10943037903
10943047791
10943055420
10943062622
10943069580
10943079529
10943084290
10943094605
10943101868
10943110108
10943116333
10943124695
10943131165
10943139343
10943147644
10943155762
10943161865
10943170593
10943176819
10943183777
10943193237
10943200195
10943208862
10943215698
10943223633
10943232727
10943239990
10943246216
10943254822
10943261108
10943269409
10943277893
10943283935
10943293579
10943301452
10943307800
10943314941
10943322204
10943331421
10943338806
10943345031
10943354370
10943361206
10943370056
10943377014
10943382507
10943394897
10943400756
10943412719
10943423217
10943432739
10943441833
10943449157
10943457336
10943466125
10943474365
10943480834
10943488647
10943497314
10943505553
10943512145
10943520141
10943528380
10943533568
10943544433
10943549499
10943558715
10943565612
10943574767
10943581969
10943588256
10943596618
10943604430
10943613280
10943621642
10943627868
10943632872
10943643737
10943648619
10943657653
10943664672
10943672911
10943679808
10943688597
10943694884
10943703673
10943709838
10943718688
10943725096
10943733763
10943742369
10943748412
10943756896
10943761717
10943772032
10943779112
10943785826
10943792296
10943802794
10943812193
10943820067
10943826353
10943834349
10943842467
10943849791
10943858824
10943867369
10943873900
10943882811
10943888365
10943895628
10943904600
10943912840
10943918455
10943926146
10943935423
10943943480
10943949278
10943955687
10943964964
10943972715
10943980650
10943987730
10943995237
10944002256
10944011900
10944019529
10944025388
10944031919
10944041685
10944046262
10944057005
10944063902
10944070860
10944077451
10944084653
10944093015
10944098569
10944106260
10944113218
10944120969
10944128293
10944135984
10944142637
10944150205
10944154661
10944163083
10944175229
10944182065
10944194639
10944201719
10944213498
10944218808
10944230954
10944238767
10944248532
10944255674
10944263669
10944271909
10944280271
10944287595
10944295163
10944302915
10944311032
10944317075
10944325376
10944330258
10944340512
10944344968
10944354062
10944361264
10944372250
10944380368
10944388242
10944392941
10944402341
10944409665
10944415341
10944421811
10944430478
10944436825
10944444638
10944450436
10944459714
10944465390
10944473568
10944479489
10944487851
10944495419
10944501156
10944509335
10944514340
10944525326
10944530209
10944538937
10944546078
10944554318
10944563351
10944568905
10944577389
10944584774
10944592953
10944595761
10944607784
10944613888
10944622372
10944630306
10944637081
10944644161
10944653622
10944660580
10944667721
10944674130
10944683102
10944691402
10944694149
10944706173
10944713619
10944719845
10944726803
10944736690
10944741512
10944750789
10944757747
10944766292
10944772823
10944781978
10944788204
10944791073
10944803890
10944808834
10944818050
10944824947
10944834835
10944839717
10944849605
10944856441
10944864742
10944870845
10944880062
10944886348
10944894344
10944902706
10944910945
10944917293
10944925899
10944932185
10944939327
10944949397
10944957271
10944964656
10944972102
10944982417
10944987910
10944996699
10945006892
10945015376
10945024898
10945034968
10945043941
10945051570
10945059871
10945067073
10945073359
10945084102
10945090449
10945097957
10945106379
10945114009
10945120417
10945128535
10945136348
10945144343
10945153193
10945158015
10945167536
10945174433
10945182307
10945188594
10945197322
10945203852
10945209895
10945220637
10945227900
10945236140
10945241267
10945249629
10945256709
10945265315
10945272639
10945281367
10945288447
10945296381
10945302851
10945311091
10945319575
10945326166
10945334406
10945339533
10945348383
10945355463
10945363886
10945371210
10945380549
10945387629
10945393976
10945402338
10945411554
10945417780
10945426813
10945433161
10945441339
10945449518
10945455439
10945464472
10945469355
10945488947
10945499323
10945506525
10945516596
10945526239
10945535211
10945544489
10945551325
10945558099
10945564874
10945571954
10945577692
10945584405
10945590936
10945598138
10945605768
10945611932
10945619440
10945625970
10945632318
10945639459
10945647455
10945655511
10945662652
10945670770
10945676629
10945684076
10945688714
10945697870
10945702447
10945712945
10945720697
10945728204
10945734063
10945741388
10945748956
10945754937
10945763421
10945771966
10945778802
10945791375
10945798882
10945807061
10945813775
10945820428
10945832940
10945841302
10945847405
10945854668
10945860467
10945867364
10945872674
10945881524
10945886834
10945893609
10945901360
10945907891
10945913262
10945922295
10945927972
10945935906
10945943352
10945950615
10945958428
10945965874
10945971612
10945979241
10945987114
10945993645
10946001275
10946006524
10946015129
10946019585
10946029351
10946034050
10946042961
10946049431
10946058953
10946065361
10946072441
10946078972
10946086724
10946095146
10946101372
10946107109
10946116387
10946122978
10946140434
10946146111
10946153679
10946161308
10946168144
10946175957
10946183464
10946189262
10946197563
10946203545
10946211906
10946218376
10946225212
10946235588
10946240471
10946248649
10946258232
10946265678
10946272453
10946279899
10946288322
10946297661
10946303886
10946311882
10946318473
10946327018
10946333427
10946340507
10946348503
10946357475
10946365409
10946372367
10946379753
10946386161
10946394889
10946403312
10946409843
10946418144
10946423271
10946433830
10946438834
10946448600
10946455741
10946463371
10946470390
10946478141
10946484489
10946492911
10946501334
10946509574
10946515922
10946525260
10946532706
10946538199
10946548575
10946556571
10946570853
10946579581
10946586600
10946596305
10946603019
10946610892
10946619376
10946625296
10946633536
10946641654
10946650077
10946658011
10946665579
10946672537
10946678885
10946688101
10946694022
10946702384
10946710379
10946716849
10946725211
10946731619
10946739554
10946746939
10946753897
10946764639
10946771475
10946780142
10946787588
10946793692
10946802237
10946810355
10946817068
10946825979
10946834341
10946840323
10946848746
10946853933
10946864187
10946871145
10946879080
10946886099
10946895071
10946901236
10946909719
10946918203
10946925283
10946933462
10946936209
10946948660
10946953848
10946965872
10946971060
10946978811
10946985281
10946993398
10946999807
10947005850
10947013723
10947021352
10947027334
10947035635
10947043203
10947050283
10947056020
10947060476
10947070608
10947078359
10947088308
10947093130
10947100820
10947107412
10947114370
10947122610
10947129018
10947134817
10947144826
10947151052
10947159475
10947165395
10947169912
10947180715
10947185109
10947196889
10947203542
10947211477
10947218557
10947224416
10947231679
10947239247
10947246511
10947253102
10947259572
10947269094
10947275685
10947282277
10947288259
10947296010
10947305715
10947314015
10947321706
10947332387
10947343984
10947352589
10947362477
10947369679
10947380177
10947387440
10947392628
10947403432
10947409047
10947420705
10947427724
10947436024
10947443165
10947449940
10947458912
10947466969
10947473561
10947482045
10947490345
10947493153
10947504994
10947510975
10947518788
10947525868
10947537281
10947542042
10947550770
10947558033
10947567494
10947573902
10947580067
10947589283
10947595692
10947604237
10947610462
10947618885
10947625843
10947635120
10947639942
10947650013
10947654835
10947667286
10947672169
10947681019
10947688099
10947695362
10947704334
10947711658
10947717945
10947726063
10947734363
10947741443
10947749927
10947755848
10947764820
10947769947
10947778186
10947785083
10947795154
10947802112
10947810291
10947816700
10947823841
10947832202
10947838794
10947847156
10947852161
10947862415
10947867542
10947877368
10947884387
10947892688
10947899829
10947907337
10947913623
10947924121
10947933154
10947939014
10947947376
10947954395
10947962756
10947970752
10947976977
10947985095
10947992480
10947999438
10948007251
10948014453
10948022265
10948028552
10948039477
10948048205
10948055896
10948062488
10948071826
10948078296
10948083117
10948094043
10948098925
10948109362
10948116320
10948124804
10948132006
10948140795
10948147082
10948156970
10948164233
10948171740
10948180773
10948187731
10948197253
10948202624
10948212512
10948220141
10948230883
10948238940
10948246203
10948252612
10948261523
10948269945
10948276781
10948285082
10948287951
10948300890
10948306750
10948314440
10948321459
10948330492
10948334887
10948344835
10948351305
10948360277
10948365221
10948374132
10948380541
10948388659
10948397081
10948404528
10948412950
10948419481
10948427904
10948433702
10948441332
10948451586
10948458727
10948465624
10948475450
10948480333
10948489855
10948497362
10948504503
10948510668
10948520799
10948527147
10948535997
10948542528
10948550951
10948557420
10948562303
10948572679
10948579698
10948587633
10948594713
10948603380
10948609910
10948617845
10948626878
10948634385
10948640733
10948649522
10948655992
10948664537
10948672776
10948677964
10948686692
10948693589
10948701829
10948708909
10948717210
10948726365
10948733018
10948739915
10948747911
10948756272
10948764451
10948770738
10948779649
10948785996
10948793015
10948801438
10948808396
10948816270
10948825303
10948831651
10948837937
10948847764
10948854050
10948858811
10948870347
10948876267
10948885178
10948890061
10948900254
10948907151
10948915757
10948922654
10948929673
10948935898
10948944138
10948952500
10948958970
10948967515
10948972519
10948986008
10948994309
10949004990
10949013291
10949021408
10949028427
10949038559
10949044602
10949054001
10949062790
10949069809
10949074753
10949085739
10949090683
10949101059
10949105942
10949116257
10949123337
10949132004
10949139023
10949145309
10949154465
10949162033
10949168320
10949176865
10949185226
10949192551
10949198959
10949207382
10949213791
10949221725
10949229294
10949236191
10949244186
10949250290
10949258957
10949268051
10949275436
10949282028
10949290512
10949296798
10949306015
10949314682
10949320663
10949329452
10949334396
10949343185
10949350326
10949358505
10949364730
10949376205
10949383285
10949391158
10949397384
10949405563
10949413986
10949420272
10949428634
10949434737
10949444076
10949449020
10949458907
10949465987
10949474166
10949482528
10949490523
10949497970
10949506515
10949515121
10949523726
10949530074
10949538131
10949546431
10949549300
10949560592
10949565658
10949575179
10949581649
10949590926
10949598006
10949604415
10949613753
10949620223
10949628524
10949637313
10949643599
10949652022
10949658431
10949666365
10949674605
10949679427
10949689253
10949694380
10949704207
10949711165
10949717757
10949726973
10949732771
10949741133
10949748579
10949756941
10949764632
10949773115
10949781477
10949787825
10949792952
10949803511
10949811384
10949821150
10949829024
10949842329
10949845015
10949858564
10949865156
10949874678
10949880171
10949891768
10949899519
10949907698
10949913801
10949921919
10949927656
10949935163
10949942854
10949950971
10949956648
10949962202
10949971540
10949980024
10949987653
10949994795
10950000471
10950008222
10950015852
10950021589
10950031110
10950038862
10950044599
10950051862
10950059980
10950064558
10950073286
10950079694
10950089399
10950096723
10950103193
10950109785
10950117719
10950124128
10950131269
10950139448
10950146467
10950152326
10950159955
10950167585
10950173505
10950181195
10950187665
10950195234
10950202985
10950208783
10950216108
10950224225
10950232770
10950239301
10950246381
10950254071
10950263349
10950269513
10950278546
10950284650
10950293073
10950301068
10950307843
10950312848
10950324262
10950330182
10950339337
10950344281
10950354535
10950361615
10950369549
10950376569
10950383954
10950390240
10950400250
10950406476
10950414532
10950423382
10950429913
10950438336
10950443341
10950453778
10950462811
10950470074
10950477032
10950485821
10950492901
10950505780
10950512860
10950520794
10950527752
10950535198
10950544049
10950551190
10950557476
10950566326
10950572552
10950580792
10950589520
10950596050
10950609783
10950617168
10950624004
10950634197
10950641399
10950649090
10950658306
10950668194
10950675762
10950687481
10950693645
10950702801
10950709209
10950717937
10950726177
10950733623
10950742046
10950749553
10950758037
10950760906
10950772930
10950777752
10950786907
10950793804
10950801616
10950810466
10950817180
10950823528
10950832683
10950839397
10950847393
10950855815
10950862590
10950871074
10950879497
10950885967
10950893840
10950901958
10950909099
10950917583
10950924480
10950932780
10950939799
10950948222
10950954448
10950957256
10950970683
10950974162
10950986796
10950991679
10951003520
10951008525
10951019999
10951024821
10951035197
10951042094
10951050334
10951057414
10951066020
10951075053
10951081157
10951090312
10951097819
10951104106
10951112773
10951119059
10951127604
10951133891
10951141947
10951149272
10951156230
10951165629
10951173197
10951179850
10951188944
10951195475
10951203959
10951212443
10951218729
10951227091
10951233439
10951241984
10951250529
10951259257
10951268107
10951273234
10951282816
10951290873
10951297098
10951304301
10951312601
10951318888
10951327250
10951336222
10951343607
10951350016
10951358378
10951364847
10951373758
10951379984
10951388041
10951396769
10951404703
10951413126
10951417826
10951426737
10951434427
10951444803
10951453043
10951462015
10951469766
10951481058
10951489664
10951496500
10951504190
10951515482
10951523721
10951533609
10951541544
10951549356
10951556558
10951564981
10951571878
10951579874
10951586099
10951594095
10951602456
10951609292
10951617715
10951625345
10951631692
10951639749
10951646097
10951653116
10951663430
10951670511
10951677774
10951684060
10951692117
10951700418
10951708535
10951714883
10951723062
10951732156
10951740396
10951747048
10951755105
10951761697
10951768655
10951776650
10951785623
10951793862
10951800759
10951808694
10951817666
10951823647
10951831765
10951839944
10951846291
10951855141
10951863808
10951872048
10951878213
10951887246
10951893532
10951900490
10951908913
10951916115
10951925698
10951932656
10951940407
10951946938
10951955910
10951962319
10951969521
10951977761
10951987587
10951996071
10952002663
10952011147
10952017006
10952025429
10952033425
10952040444
10952047341
10952055336
10952061745
10952070412
10952076637
10952084694
10952093239
10952101845
10952108376
10952117470
10952123878
10952128822
10952139381
10952146461
10952153847
10952160133
10952170448
10952177650
10952183998
10952192238
10952200294
10952206825
10952215858
10952222145
10952230324
10952236610
10952243629
10952257911
10952265663
10952275673
10952282142
10952291664
10952297462
10952307655
10952314918
10952323402
10952333778
10952344581
10952349647
10952360633
10952365516
10952374976
10952382179
10952392432
10952399329
10952407264
10952413673
10952421790
10952428260
10952436805
10952444984
10952451026
10952460303
10952468726
10952475013
10952482093
10952489783
10952496985
10952506324
10952513404
10952522742
10952529090
10952537146
10952546119
10952552466
10952560645
10952567420
10952575476
10952582801
10952592322
10952598548
10952606543
10952613745
10952619116
10952627417
10952633155
10952639075
10952648047
10952657141
10952663672
10952671423
10952678748
10952684607
10952689002
10952699255
10952703833
10952712927
10952719458
10952728064
10952734534
10952741492
10952747412
10952755652
10952761328
10952769446
10952777746
10952784216
10952792090
10952797949
10952805578
10952810156
10952819372
10952825842
10952834509
10952841589
10952849279
10952855749
10952863379
10952869177
10952876745
10952884436
10952891577
10952899572
10952906652
10952914282
10952920202
10952928015
10952932470
10952941137
10952947668
10952955969
10952963232
10952970617
10952979040
10952986181
10952991796
10952999731
10953005468
10953009863
10953021215
10953026281
10953036413
10953041112
10953051061
10953060583
10953070653
10953079992
10953090063
10953097936
10953105871
10953116124
10953123815
10953132726
10953140233
10953150182
10953157262
10953166478
10953173558
10953181066
10953187413
10953196324
10953204747
10953212499
10953218907
10953227330
10953233190
10953240453
10953248082
10953252599
10953262547
10953269078
10953277074
10953283788
10953293614
10953302098
10953310948
10953316380
10953324681
10953333714
10953341649
10953348790
10953356175
10953365208
10953373143
10953379368
10953387608
10953395970
10953403294
10953412388
10953419407
10953427830
10953432896
10953441746
10953448765
10953457371
10953464207
10953472874
10953479161
10953487339
10953495640
10953503941
10953510166
10953515110
10953526341
10953531285
10953542698
10953547886
10953558445
10953563389
10953571995
10953581089
10953588108
10953594334
10953604832
10953611179
10953619785
10953626072
10953634190
10953642612
10953649815
10953656040
10953663181
10953674778
10953679844
10953690220
10953697300
10953704319
10953713657
10953719883
10953726169
10953736484
10953742893
10953750278
10953758640
10953764682
10953774204
10953779209
10953789402
10953797519
10953803928
10953810886
10953819370
10953825595
10953834018
10953840488
10953849582
10953858188
10953865329
10953873996
10953882236
10953891757
10953894809
10953907321
10953912631
10953924411
10953929721
10953941379
10953947421
10953962314
10953970309
10953976779
10953985385
10953991672
10953999667
10954008395
10954013461
10954023776
10954030917
10954038730
10954045993
10954053805
10954063021
10954069918
10954076266
10954085910
10954092318
10954101351
10954107882
10954112765
10954122714
10954131503
10954137911
10954144808
10954153658
10954160861
10954168246
10954174716
10954184542
10954190951
10954199984
10954206332
10954214327
10954222933
10954228915
10954236422
10954244112
10954252596
10954259432
10954269564
10954277071
10954284945
10954291170
10954300875
10954307284
10954316988
10954323824
10954329561
10954340120
10954345003
10954356051
10954363985
10954370333
10954377474
10954385958
10954392855
10954400301
10954409273
10954415621
10954422090
10954431673
10954437959
10954444979
10954453462
10954458406
10954469270
10954474031
10954484041
10954490999
10954498567
10954504915
10954514131
10954520357
10954530550
10954536897
10954544893
10954553316
10954559602
10954568025
10954572908
10954581575
10954588777
10954599580
10954604402
10954613984
10954620881
10954629915
10954636873
10954645234
10954651521
10954660005
10954666169
10954674287
10954680879
10954688386
10954698030
10954706330
10954714021
10954721772
10954731050
10954740937
10954749482
10954754914
10954764863
10954774629
10954781403
10954788911
10954797944
10954804597
10954813264
10954820466
10954828156
10954835053
10954843232
10954849396
10954858979
10954865204
10954874299
10954882660
10954889008
10954897309
10954903290
10954912262
10954920807
10954928010
10954935029
10954943451
10954950348
10954958100
10954964508
10954974091
10954980561
10954987702
10954996247
10955002350
10955011444
10955016327
10955026276
10955033417
10955041718
10955048859
10955058441
10955065277
10955072174
10955078766
10955088959
10955097443
10955105133
10955111359
10955116791
10955128387
10955133331
10955143646
10955150848
10955159271
10955166351
10955174957
10955181366
10955189300
10955197601
10955204254
10955212738
10955217621
10955226654
10955233917
10955242706
10955249664
10955258148
10955265106
10955272674
10955278900
10955288543
10955294830
10955302459
10955310699
10955316619
10955325591
10955333587
10955340423
10955347503
10955355621
10955361968
10955370452
10955376983
10955388397
10955394561
10955402740
10955411285
10955419463
10955425872
10955430755
10955441253
10955446441
10955457305
10955465362
10955471160
10955480437
10955487761
10955494109
10955501311
10955509856
10955516997
10955526275
10955533660
10955543731
10955552642
10955559295
10955568572
10955575591
10955583342
10955592375
10955602263
10955613555
10955618498
10955630034
10955638091
10955644499
10955651518
10955661101
10955668791
10955675688
10955682829
10955692229
10955699187
10955707182
10955713713
10955725188
10955731474
10955741362
10955747954
10955756377
10955762724
10955770781
10955779387
10955785429
10955793852
10955798735
10955809721
10955814665
10955823515
10955830717
10955839689
10955846769
10955855314
10955861540
10955870207
10955876371
10955884550
10955892851
10955898832
10955907987
10955912992
10955922514
10955929411
10955936918
10955943144
10955951322
10955959806
10955966459
10955974699
10955982938
10955991544
10955999418
10956005643
10956014249
10956020780
10956027921
10956037870
10956042753
10956051298
10956057645
10956066739
10956073026
10956081327
10956089689
10956096341
10956104642
10956113370
10956120206
10956125028
10956135648
10956142789
10956151151
10956158292
10956166227
10956172696
10956182462
10956188687
10956197660
10956204129
10956209989
10956219998
10956228726
10956235135
10956243375
10956249906
10956256925
10956265775
10956272916
10956280972
10956287259
10956297025
10956303311
10956312711
10956319180
10956324246
10956334622
10956339444
10956350003
10956355374
10956366177
10956374112
10956382107
10956391873
10956402981
10956410367
10956419644
10956425381
10956433987
10956442105
10956453579
10956460598
10956468960
10956476162
10956484036
10956490689
10956499844
10956506130
10956514920
10956523281
10956530667
10956536953
10956546291
10956552700
10956559597
10956568020
10956575222
10956583767
10956592739
10956599697
10956606106
10956614834
10956621059
10956629299
10956637600
10956643520
10956652248
10956657253
10956667751
10956674709
10956682644
10956689602
10956697292
10956706936
10956714077
10956721218
10956730495
10956738308
10956744716
10956750393
10956758815
10956764675
10956771083
10956780178
10956787197
10956794460
10956800930
10956808559
10956814235
10956823268
10956829128
10956836452
10956845241
10956854274
10956860011
10956867519
10956873317
10956881313
10956887111
10956893398
10956904628
10956909450
10956918666
10956925075
10956932338
10956938869
10956945643
10956951503
10956960597
10956969630
10956976283
10956984035
10956990016
10956997767
10957002345
10957011561
10957018153
10957027125
10957034083
10957041529
10957048549
10957058680
10957067652
10957075770
10957083033
10957091395
10957098414
10957106532
10957114283
10957120692
10957126978
10957136988
10957143763
10957152491
10957160792
10957168482
10957173792
10957185999
10957191920
10957201685
10957209742
10957223475
10957232874
10957241785
10957249293
10957255884
10957260889
10957272486
10957277613
10957288111
10957296106
10957302515
10957309656
10957318079
10957324366
10957334009
10957340540
10957348230
10957356592
10957364160
10957370630
10957379358
10957385584
10957392664
10957402307
10957409326
10957416651
10957422998
10957432031
10957438318
10957446558
10957454981
10957461755
10957470117
10957476221
10957486108
10957491113
10957500024
10957507288
10957518030
10957525049
10957534204
10957541223
10957549951
10957556299
10957564905
10957571435
10957579553
10957588098
10957595849
10957604272
10957610071
10957620263
10957625146
10957633569
10957640649
10957650109
10957657128
10957665673
10957671960
10957680566
10957686853
10957696008
10957704492
10957710778
10957719262
10957724206
10957732995
10957740136
10957749658
10957756799
10957765160
10957772302
10957781335
10957788537
10957796899
10957803124
10957812035
10957818383
10957827477
10957833825
10957838830
10957848473
10957855675
10957863610
10957870812
10957880700
10957887597
10957895714
10957901940
10957912072
10957918663
10957926476
10957934838
10957941491
10957949974
10957954979
10957965538
10957970543
10957979210
10957986595
10957996300
10958003685
10958013512
10958021813
10958031883
10958038841
10958049156
10958056847
10958065636
10958073570
10958085167
10958092430
10958100365
10958107567
10958117577
10958124473
10958131981
10958141136
10958149498
10958156639
10958164451
10958170860
10958179710
10958186546
10958195091
10958201378
10958211326
10958217979
10958222801
10958233360
10958242210
10958248680
10958255699
10958263572
10958270042
10958278160
10958287376
10958293113
10958301597
10958310142
10958316673
10958321494
10958331443
10958338584
10958349693
10958354759
10958364158
10958371238
10958379112
10958386436
10958393394
10958399741
10958409751
10958416282
10958425193
10958431602
10958436545
10958447654
10958452659
10958462180
10958469565
10958479514
10958487327
10958495994
10958503074
10958511618
10958518882
10958527671
10958537253
10958544394
10958550864
10958560080
10958568442
10958576132
10958582602
10958591208
10958597739
10958605795
10958614707
10958619528
10958628195
10958635459
10958643942
10958650473
10958660483
10958667075
10958676413
10958683249
10958688986
10958699362
10958707480
10958713827
10958720846
10958728293
10958735556
10958745627
10958752646
10958759482
10958766012
10958775290
10958783713
10958791098
10958797690
10958802572
10958814840
10958820089
10958829977
10958838339
10958846090
10958854208
10958863974
10958870993
10958882345
10958888754
10958899740
10958906820
10958916891
10958923422
10958932516
10958938558
10958947347
10958953939
10958958883
10958970785
10958976705
10958985860
10958990804
10959001180
10959008138
10959016073
10959023031
10959031087
10959037435
10959045370
10959053976
10959061239
10959067586
10959076742
10959083089
10959091085
10959099569
10959104512
10959113179
10959122396
10959128804
10959135152
10959146077
10959152486
10959161458
10959167684
10959176717
10959183003
10959188008
10959198873
10959203816
10959213216
10959220235
10959228719
10959235982
10959244832
10959251241
10959259847
10959266194
10959275777
10959284566
10959292561
10959301167
10959308675
10959315083
10959324361
10959330647
10959338643
10959346455
10959353230
10959363545
10959371480
10959378010
10959385029
10959393574
10959400105
10959411030
10959418293
10959425679
10959432087
10959440205
10959448811
10959455830
10959462300
10959469319
10959479512
10959484638
10959493855
10959500813
10959508625
10959515095
10959524494
10959530781
10959539326
10959547871
10959554707
10959563191
10959569111
10959577656
10959582478
10959592182
10959599445
10959608173
10959617268
10959624775
10959631306
10959638264
10959646564
10959655292
10959661884
10959671283
10959682270
10959690632
10959697773
10959705890
10959716327
10959726764
10959736652
10959744464
10959751239
10959759723
10959768878
10959777301
10959784320
10959791339
10959799640
10959806232
10959814655
10959822650
10959828998
10959837665
10959844074
10959851154
10959859515
10959866534
10959874713
10959883746
10959891437
10959897906
10959905902
10959912433
10959918231
10959928668
10959934772
10959944354
10959949176
10959959125
10959966205
10959974750
10959981708
10959989337
10959995746
10960004657
10960014117
10960020404
10960028827
10960037066
10960043963
10960052630
10960059100
10960064044
10960078082
10960085040
10960095355
10960100360
10960110613
10960117816
10960126116
10960133013
10960139849
10960149371
10960155474
10960163836
10960170916
10960179217
10960186053
10960194659
10960202959
10960213763
10960222857
10960228716
10960236712
10960244280
10960252581
10960257952
10960266253
10960273821
10960282488
10960292803
10960300371
10960308123
10960317034
10960323015
10960333452
10960339556
10960349932
10960355547
10960366899
10960374285
10960380388
10960390886
10960395952
10960404741
10960412370
10960419939
10960427629
10960434404
10960444902
10960454179
10960461748
10960471452
10960476030
10960487260
10960496355
10960504533
10960514970
10960520952
10960531999
10960537797
10960545000
10960552934
10960561906
10960572770
10960576677
10960587236
10960593400
10960600175
10960608659
10960615556
10960625749
10960632035
10960641618
10960648454
10960655961
10960664567
10960672868
10960681718
10960687394
10960696000
10960700395
10960712357
10960719621
10960727433
10960735307
10960740983
10960751237
10960756608
10960765580
10960774247
10960780167
10960790726
10960798051
10960806046
10960810563
10960819962
10960827164
10960836564
10960847916
10960853837
10960861344
10960869706
10960876420
10960883194
10960890519
10960899125
10960905777
10960914627
10960922684
10960930375
10960938309
10960947220
10960955094
10960961624
10960970352
10960977005
10960985550
10960993424
10961000504
10961008499
10961017594
10961024063
10961030594
10961038529
10961047806
10961057144
10961063919
10961069595
10961078384
10961085281
10961092422
10961099930
10961107681
10961116165
10961124344
10961130874
10961138382
10961147110
10961153641
10961165725
10961174331
10961183731
10961191482
10961199051
10961209365
10961216629
10961224746
10961233902
10961240310
10961249160
10961256179
10961263748
10961272964
10961279983
10961287979
10961294509
10961301589
10961310378
10961316055
10961325454
10961331985
10961340469
10961349319
10961356765
10961363357
10961368423
10961380141
10961384475
10961394912
10961404311
10961410659
10961418777
10961428420
10961435988
10961443191
10961450515
10961457290
10961466872
10961474746
10961481521
10961490981
10961497451
10961506728
10961514785
10961520888
10961528456
10961537856
10961542372
10961552321
10961560744
10961566847
10961575514
10961583510
10961592238
10961597914
10961607314
10961613783
10961620986
10961628066
10961636305
10961643202
10961652602
10961659438
10961667189
10961674635
10961683180
10961691298
10961700697
10961708021
10961714552
10961721876
10961730116
10961736647
10961743361
10961753676
10961758986
10961769240
10961778456
10961784254
10961792189
10961800551
10961808607
10961815748
10961825087
10961829664
10961839369
10961844007
10961853041
10961861952
10961873121
10961880567
10961887098
10961896559
10961903272
10961911146
10961920179
10961927625
10961942152
10961950452
10961958204
10961967420
10961974927
10961983289
10961989454
10961997266
10962005933
10962012891
10962021314
10962028760
10962037122
10962044263
10962050611
10962057691
10962067457
10962075208
10962082532
10962089551
10962097913
10962104871
10962113111
10962119641
10962129285
10962135755
10962143567
10962152112
10962158155
10962166577
10962171460
10962181714
10962189710
10962196424
10962203320
10962211194
10962220166
10962227063
10962233350
10962241528
10962249951
10962258008
10962266431
10962272351
10962280896
10962285779
10962296033
10962303052
10962311841
10962318799
10962327588
10962334790
10962342846
10962349072
10962357495
10962365979
10962368908
10962380139
10962389294
10962395581
10962403576
10962411877
10962417065
10962426770
10962434033
10962441357
10962447949
10962456860
10962466381
10962473706
10962480053
10962488659
10962495617
10962504833
10962513561
10962518627
10962528027
10962535107
10962544506
10962549389
10962559093
10962566235
10962573681
10962580090
10962589245
10962595776
10962604992
10962613598
10962619945
10962628551
10962634899
10962643322
10962648083
10962656383
10962660412
10962667736
10962671093
10962677746
10962682628
10962688976
10962694652
10962701854
10962707470
10962714244
10962722118
10962727672
10962731761
10962740123
10962743419
10962752574
10962758251
10962761852
10962767223
10962772411
10962776805
10962780345
10962786144
10962791820
10962796398
10962800426
10962805736
10962809520
10962814891
10962819042
10962825939
10962833080
10962838451
10962843150
10962848644
10962852916
10962859630
10962862682
10962870189
10962873180
10962879588
10962885142
10962890636
10962895763
10962900951
10962906077
10962913341
10962918162
10962922496
10962925914
10962935313
10962938609
10962945384
10962950328
10962955638
10962961802
10962967540
10962972484
10962977794
10962982127
10962988597
10962992991
10962996226
10963004954
10963010325
10963014659
10963020457
10963024668
10963029368
10963035655
10963040477
10963046092
10963051829
10963057139
10963061534
10963067332
10963073130
10963078501
10963082713
10963088755
10963095103
10963099925
10963105662
10963109080
10963115489
10963120371
10963126597
10963131968
10963137034
10963143687
10963149851
10963154246
10963159190
10963165293
10963170237
10963174448
10963180735
10963186716
10963192087
10963197764
10963201975
10963207773
10963211069
10963217600
10963222361
10963228953
10963235300
10963241160
10963246348
10963251780
10963256968
10963263804
10963268992
10963276499
10963282175
10963287973
10963294260
10963298899
10963303415
10963308542
10963313242
10963318979
10963325388
10963330515
10963334909
10963339304
10963344675
10963349314
10963354929
10963356882
10963366281
10963372019
10963375986
10963379831
10963386972
10963390451
10963397470
10963400827
10963407480
10963412546
10963418222
10963422495
10963428171
10963433115
10963438730
10963443002
10963449289
10963455881
10963461069
10963465463
10963471017
10963475412
10963481515
10963485849
10963491708
10963497690
10963503427
10963507760
10963511178
10963518259
10963521432
10963528024
10963533029
10963540658
10963544381
10963551889
10963557565
10963562570
10963567636
10963574716
10963581064
10963588388
10963592355
10963599801
10963605111
10963610360
10963617196
10963621957
10963627267
10963634347
10963639657
10963647470
10963652047
10963658212
10963662728
10963666451
10963673409
10963678781
10963685922
10963691781
10963696908
10963703256
10963710214
10963714120
10963721749
10963727914
10963735787
10963739938
10963748238
10963751900
10963758492
10963763985
10963770760
10963776131
10963781930
10963786996
10963795174
10963800851
10963806100
10963810494
10963815499
10963823250
10963830086
10963836617
10963845894
10963849495
10963858040
10963861458
10963869393
10963873238
10963882637
10963888558
10963893624
10963896981
10963903817
10963907235
10963913521
10963918892
10963923531
10963928719
10963935311
10963938729
10963945870
10963949654
10963955269
10963960030
10963966072
10963970528
10963976021
10963981331
10963987129
10963991768
10963997017
10964001595
10964007149
10964011971
10964017769
10964023872
10964029060
10964033455
10964039864
10964044136
10964050484
10964057808
10964063667
10964068184
10964071907
10964080269
10964084236
10964091072
10964095711
10964100288
10964106819
10964112800
10964117195
10964122993
10964127449
10964133552
10964139473
10964145271
10964152717
10964157844
10964162056
10964168037
10964172493
10964177864
10964183296
10964187996
10964194038
10964200569
10964206428
10964211067
10964216133
10964222236
10964226997
10964231269
10964237068
10964244331
10964249580
10964255195
10964259162
10964264839
10964270149
10964275520
10964280158
10964287666
10964292365
10964299812
10964304817
10964311714
10964317329
10964325446
10964329719
10964338569
10964342475
10964351081
10964355231
10964362128
10964367744
10964374946
10964380134
10964386298
10964393561
10964396064
10964405952
10964412360
10964417609
10964421271
10964430305
10964434943
10964442512
10964448127
10964457343
10964463752
10964468512
10964474982
10964479194
10964485480
10964492682
10964497260
10964502570
10964507514
10964513068
10964517890
10964523383
10964527716
10964534003
10964540595
10964545722
10964549994
10964555365
10964561164
10964566229
10964571906
10964575873
10964583930
10964587836
10964595099
10964598700
10964605719
10964610419
10964615485
10964621893
10964628363
10964632819
10964639899
10964644476
10964650824
10964655707
10964659247
10964666022
10964671332
10964678351
10964683905
10964689337
10964694586
10964701544
10964706244
10964713141
10964717901
10964722235
10964731939
10964736822
10964740729
10964745672
10964752020
10964758246
10964765020
10964770819
10964776434
10964781744
10964789495
10964794073
10964800604
10964805365
10964810492
10964814825
10964820562
10964827581
10964834906
10964841375
10964846807
10964851690
10964857488
10964863836
10964868475
10964874639
10964879339
10964885137
10964890936
10964896673
10964901861
10964906072
10964911565
10964918585
10964922674
10964928655
10964933782
10964939581
10964944524
10964950750
10964955511
10964961675
10964966680
10964973333
10964978033
10964983770
10964989568
10964994146
10965000982
10965005498
10965016546
10965025579
10965030462
10965037603
10965042913
10965048528
10965053228
10965058721
10965067754
10965073430
10965078740
10965083562
10965088872
10965094182
10965098149
10965101201
10965108770
10965111882
10965119329
10965122686
10965129033
10965133306
10965139104
10965143621
10965149724
10965156438
10965161992
10965166936
10965172612
10965176946
10965182561
10965188298
10965193730
10965200383
10965206670
10965211491
10965216740
10965222478
10965227849
10965232182
10965237981
10965244633
10965248601
10965254826
10965260381
10965265568
10965270512
10965275151
10965281377
10965286442
10965293034
10965298405
10965302800
10965307438
10965313237
10965318364
10965324040
10965329594
10965336552
10965342106
10965346806
10965352055
10965357731
10965362980
10965369267
10965374150
10965381657
10965388920
10965395024
10965399662
10965401799
10965410466
10965414982
10965420903
10965424504
10965432987
10965436894
10965444523
10965448490
10965455021
10965459660
10965466191
10965470524
10965479130
10965483463
10965488835
10965494633
10965500370
10965504704
10965508732
10965516178
10965520023
10965528202
10965532169
10965538883
10965544132
10965550236
10965555119
10965560917
10965567142
10965573551
10965580021
10965587162
10965591801
10965595707
10965604435
10965608402
10965616581
10965620975
10965629032
10965634647
10965641788
10965648685
10965656437
10965661503
10965667057
10965672245
10965678226
10965682621
10965687870
10965693973
10965698978
10965705143
10965710025
10965715763
10965720584
10965727298
10965731937
10965737308
10965744144
10965750003
10965755313
10965761478
10965766178
10965771610
10965776981
10965782657
10965788455
10965794071
10965798465
10965802738
10965810489
10965816104
10965820499
10965826724
10965831424
10965838931
10965843936
10965848636
10965854983
10965860599
10965867557
10965873660
10965880191
10965886294
10965893191
10965898868
10965905826
10965910769
10965916018
10965920962
10965926761
10965931277
10965935733
10965940432
10965947085
10965952395
10965958682
10965963382
10965967959
10965972354
10965978152
10965982547
10965991214
10965996463
10966002505
10966008487
10966012820
10966018862
10966023989
10966030093
10966035403
10966041384
10966046328
10966053347
10966058230
10966065005
10966069705
10966075747
10966080691
10966086550
10966093691
10966099123
10966104434
10966111392
10966118411
10966124453
10966130557
10966136538
10966144534
10966150881
10966155764
10966164919
10966170412
10966180422
10966188235
10966195925
10966203127
10966206972
10966221010
10966227236
10966240114
10966245241
10966253603
10966261904
10966271975
10966280825
10966286440
10966299623
10966305483
10966314211
10966320375
10966325197
10966332460
10966337526
10966349794
10966356996
10966364504
10966375368
10966382997
10966392030
10966399233
10966407839
10966414430
10966423463
10966429933
10966438234
10966445619
10966454713
10966461732
10966467897
10966472414
10966476808
10966481752
10966486574
10966491334
10966494935
10966500001
10966502504
10966509706
10966512575
10966518800
10966523927
10966528444
10966532838
10966536073
10966542238
10966547181
10966551210
10966556031
10966560182
10966565553
10966570741
10966575380
10966580812
10966585450
10966591371
10966595887
10966602540
10966605592
10966611512
10966615846
10966622438
10966626954
10966632752
10966637086
10966642579
10966646546
10966653199
10966656007
10966663697
10966669190
10966675050
10966678712
10966684998
10966690186
10966695741
10966698487
10966705506
10966711915
10966716065
10966721436
10966726624
10966730958
10966735291
10966738770
10966746094
10966752137
10966757874
10966762696
10966766907
10966772462
10966777650
10966784424
10966789002
10966796021
10966801758
10966807923
10966814271
10966820252
10966827149
10966832276
10966838196
10966846558
10966848694
10966862549
10966868531
10966872986
10966878846
10966885987
10966891663
10966898194
10966903931
10966909119
10966914551
10966919495
10966925415
10966930115
10966936463
10966941529
10966946778
10966951477
10966957154
10966963562
10966968994
10966974548
10966982056
10966986511
10966992676
10966997192
10967001892
10967006470
10967013001
10967019836
10967025940
10967030823
10967035095
10967040955
10967044922
10967050964
10967055298
10967062195
10967066894
10967073120
10967079346
10967084411
10967088867
10967094910
10967099304
10967106262
10967111572
10967115906
10967122253
10967126526
10967130554
10967138183
10967143493
10967150573
10967155883
10967161621
10967164856
10967171936
10967175415
10967182129
10967186767
10967193481
10967198791
10967206298
10967211730
10967217468
10967222534
10967227661
10967233825
10967238647
10967244995
10967250732
10967257018
10967262512
10967267211
10967272582
10967278137
10967283080
10967291137
10967295776
10967302795
10967308166
10967315246
10967323486
10967331847
10967334594
10967345824
10967356933
10967364013
10967369750
10967378661
10967387328
10967393249
10967400634
10967406615
10967417174
10967426330
10967435363
10967441527
10967450255
10967458251
10967466796
10967473632
10967481078
10967490905
10967500060
10967506041
10967516478
10967521422
10967528197
10967537047
10967539855
10967550231
10967554747
10967562193
10967568358
10967577086
10967582945
10967589171
10967595091
10967602049
10967609801
10967615904
10967618773
10967632079
10967635069
10967645323
10967649901
10967657896
10967663939
10967670531
10967676817
10967681456
10967690977
10967697935
10967706785
10967713011
10967722593
10967730711
10967739744
10967747130
10967756163
10967763975
10967769285
10967778929
10967787046
10967794920
10967802366
10967805845
10967819090
10967825132
10967833738
10967840696
10967849241
10967856138
10967864073
10967870237
10967877195
10967885191
10967892027
10967899839
10967907835
10967914793
10967923399
10967929746
10967934934
10967943174
10967950315
10967957273
10967965879
10967968931
10967979551
10967985288
10967995298
10967999875
10968007932
10968014463
10968019529
10968029538
10968034238
10968042478
10968050840
10968058408
10968066831
10968072141
10968080503
10968085019
10968094297
10968100705
10968105893
10968114682
10968122006
10968131284
10968137815
10968140744
10968150937
10968158017
10968166196
10968172605
10968175412
10968187375
10968193234
10968201291
10968209103
10968215695
10968222836
10968228390
10968237851
10968245908
10968254086
10968263547
10968267270
10968277218
10968285397
10968292966
10968301510
10968305722
10968319943
10968325985
10968334347
10968342160
10968354977
10968359494
10968369259
10968377316
10968382931
10968389889
10968395504
10968402218
10968407711
10968412167
10968418148
10968422543
10968427304
10968433041
10968437802
10968444210
10968449032
10968455441
10968460262
10968465511
10968469723
10968476193
10968480709
10968487057
10968493282
10968497555
10968503353
10968507320
10968513668
10968519344
10968524227
10968528927
10968534420
10968540951
10968546017
10968550533
10968556881
10968561092
10968566891
10968573604
10968580318
10968586483
10968593319
10968599361
10968604183
10968610225
10968615108
10968621273
10968627193
10968634639
10968639644
10968645260
10968647274
10968655697
10968658931
10968665950
10968671199
10968677059
10968682308
10968689937
10968694576
10968699520
10968703853
10968709590
10968713863
10968719417
10968726314
10968732601
10968738155
10968743221
10968747615
10968750972
10968758479
10968761775
10968769344
10968774715
10968780025
10968784969
10968792537
10968799129
10968805598
10968812373
10968818904
10968825069
10968832149
10968838313
10968845882
10968852229
10968857173
10968866878
10968874507
10968882930
10968890498
10968894160
10968905818
10968911555
10968919551
10968926448
10968934321
10968941340
10968949458
10968958125
10968968440
10968976313
10968985591
10968994014
10969001948
10969008052
10969016474
10969024043
10969033076
10969040095
10969048518
10969054621
10969059626
10969068171
10969073176
10969078608
10969083796
10969091608
10969095515
10969102595
10969106196
10969114985
10969118830
10969127192
10969131037
10969138666
10969143305
10969150263
10969156794
10969162653
10969168085
10969174006
10969178156
10969186701
10969192072
10969196528
10969202082
10969207636
10969210871
10969217280
10969222223
10969228571
10969233515
10969239557
10969244013
10969250910
10969255487
10969261957
10969267694
10969272455
10969278803
10969284662
10969289057
10969292841
10969300348
10969303522
10969311151
10969316522
10969323786
10969327448
10969335016
10969339960
10969344782
10969351007
10969355219
10969359613
10969366205
10969370477
10969377069
10969382684
10969387201
10969392755
10969397943
10969403741
10969407526
10969414911
10969418512
10969425470
10969429010
10969436761
10969442010
10969448175
10969453424
10969458917
10969463922
10969470331
10969476068
10969481439
10969485589
10969488885
10969497003
10969500604
10969509759
10969514459
10969520318
10969525934
10969530389
10969535699
10969541192
10969545953
10969552728
10969559625
10969565789
10969570611
10969575921
10969580987
10969588678
10969593499
10969600518
10969607598
10969613824
10969621209
10969626641
10969631585
10969637811
10969642266
10969648675
10969655023
10969660088
10969664422
10969669427
10969673699
10969678704
10969684441
10969689996
10969694756
10969700433
10969705071
10969711846
10969717217
10969722283
10969727288
10969732964
10969742181
10969748589
10969753594
10969759759
10969764580
10969770074
10969775689
10969781731
10969786004
10969791009
10969796746
10969801507
10969807061
10969812371
10969818474
10969822625
10969828362
10969834160
10969839714
10969844658
10969849419
10969854790
10969861321
10969866143
10969868157
10969876763
10969882012
10969887871
10969889763
10969898125
10969901482
10969908196
10969913506
10969919304
10969924553
10969932488
10969937615
10969943535
10969949089
10969954155
10969960259
10969966667
10969973259
10969980095
10969986015
10969992058
10969996574
10970002434
10970008720
10970013908
10970020988
10970025688
10970031975
10970037712
10970042412
10970047661
10970053215
10970057854
10970064018
10970072502
10970077568
10970083793
10970088859
10970093742
10970099907
10970104545
10970109855
10970116508
10970123893
10970129448
10970134086
10970140373
10970146721
10970151298
10970157646
10970161308
10970169731
10970176994
10970185173
10970192192
10970200492
10970207389
10970214042
10970220573
10970226066
10970233390
10970238029
10970241325
10970248649
10970251823
10970259940
10970263236
10970270011
10970273734
10970280814
10970286552
10970292472
10970295951
10970303153
10970307853
10970313407
10970320487
10970325004
10970329765
10970334952
10970341239
10970345939
10970350150
10970356437
10970362601
10970367911
10970372367
10970378104
10970382377
10970387992
10970393668
10970399039
10970405753
10970410880
10970416922
10970421927
10970427848
10970432670
10970439200
10970444205
10970448600
10970457267
10970462149
10970468192
10970472098
10970479666
10970483329
10970490042
10970494742
10970500601
10970508963
10970513846
10970519950
10970522086
10970530753
10970534354
10970541678
10970546866
10970555167
10970560660
