10826085383
10826090815
10826095637
10826100886
10826105646
10826110834
10826115534
10826121393
10826125849
10826130427
10826135676
10826140314
10826144587
10826149347
10826154719
10826158869
10826164057
10826169245
10826174250
10826178888
10826185785
10826190485
10826195673
10826201593
10826205683
10826210627
10826215815
10826221674
10826227045
10826231989
10826237299
10826241999
10826247492
10826252497
10826258295
10826262934
10826267633
10826273493
10826278192
10826282526
10826287836
10826291864
10826296442
10826300165
10826304071
10826308527
10826313226
10826316461
10826320245
10826324274
10826328668
10826332941
10826337213
10826342157
10826346979
10826352777
10826358392
10826365839
10826371820
10826378229
10826384515
10826392023
10826396417
10826403314
10826407281
10826414972
10826419183
10826426385
10826433099
10826439813
10826445978
10826450738
10826456720
10826461542
10826468011
10826474298
10826479669
10826486078
10826493280
10826499017
10826504815
10826510370
10826515496
10826522699
10826529473
10826535211
10826540887
10826546380
10826551995
10826557550
10826563653
10826570733
10826577813
10826583612
10826587884
10826593682
10826599847
10826605035
10826611443
10826617974
10826624688
10826630303
10826635125
10826642083
10826647271
10826653985
10826658624
10826667046
10826672906
10826678033
10826683526
10826690118
10826695733
10826701348
10826706963
10826714593
10826720696
10826726189
10826731866
10826737664
10826743218
10826750176
10826756463
10826763543
10826769036
10826775139
10826780388
10826784600
10826791741
10826796441
10826803276
10826808281
10826815239
10826820061
10826827080
10826832512
10826837944
10826843132
10826850640
10826856926
10826863640
10826869622
10826876152
10826882805
10826890129
10826897026
10826904534
10826910698
10826919670
10826926018
10826933952
10826942375
10826949150
10826956413
10826963432
10826969292
10826975578
10826983452
10826987846
10826995903
10827000664
10827013115
10827018486
10827025993
10827033745
10827039177
10827048210
10827054374
10827061638
10827068351
10827074699
10827080742
10827086662
10827092643
10827099052
10827103569
10827113334
10827119499
10827124687
10827130729
10827137138
10827143425
10827149040
10827155204
10827164909
10827171256
10827177177
10827183158
10827188896
10827195121
10827201896
10827208854
10827217277
10827224723
10827230583
10827237846
10827243949
10827250236
10827258537
10827264823
10827273551
10827280326
10827288200
10827296439
10827301139
10827309501
10827314994
10827323539
10827331168
10827338187
10827345817
10827353446
10827359061
10827366202
10827373343
10827380668
10827385306
10827395133
10827401603
10827409720
10827416983
10827425467
10827432303
10827440726
10827450492
10827457633
10827465079
10827470816
10827477286
10827485221
10827491629
10827499137
10827505484
10827511099
10827524710
10827530081
10827538870
10827546744
10827552908
10827560599
10827568106
10827572928
10827582877
10827590384
10827598807
10827606131
10827614859
10827624197
10827630606
10827639639
10827648611
10827656057
10827665762
10827670706
10827678824
10827687918
10827694510
10827700613
10827710684
10827719534
10827726675
10827735708
10827743093
10827749197
10827757131
10827763601
10827771292
10827780203
10827787893
10827793691
10827802358
10827808157
10827813467
10827822622
10827830557
10827839346
10827845144
10827854116
10827861745
10827868093
10827875173
10827881277
10827888113
10827895681
10827903493
10827910879
10827917898
10827924489
10827931020
10827939077
10827945608
10827952443
10827960500
10827968190
10827974172
10827980275
10827988515
10827994191
10827999868
10828007619
10828017507
10828022939
10828030141
10828037282
10828045461
10828052846
10828058217
10828065236
10828075002
10828082692
10828090199
10828097707
10828105397
10828113698
10828120900
10828128713
10828135915
10828143483
10828150624
10828158620
10828165211
10828172658
10828180409
10828186940
10828196034
10828202443
10828211232
10828216481
10828226430
10828234425
10828241200
10828248097
10828256398
10828265980
10828272816
10828280751
10828287648
10828294789
10828302174
10828310292
10828319264
10828325428
10828334706
10828342213
10828352040
10828358998
10828367298
10828378102
10828385243
10828394154
10828401783
10828410023
10828417286
10828428333
10828435719
10828443714
10828450184
10828460133
10828467152
10828477589
10828483753
10828492420
10828498829
10828506824
10828516346
10828522205
10828529529
10828536609
10828542835
10828550159
10828557483
10828564747
10828571338
10828578113
10828587574
10828593982
10828599964
10828608142
10828615161
10828620777
10828628589
10828637256
10828645191
10828653980
10828659656
10828670093
10828678394
10828685291
10828690723
10828700305
10828708057
10828714526
10828722461
10828728259
10828733752
10828743945
10828750232
10828758472
10828766711
10828774036
10828782031
10828788806
10828796680
10828804431
10828811328
10828819629
10828827075
10828836413
10828844470
10828849658
10828859301
10828867175
10828876330
10828882006
10828891223
10828899585
10828906115
10828915026
10828925402
10828931201
10828940966
10828952685
10828959094
10828967700
10828974475
10828982165
10828990405
10828998827
10829004992
10829012988
10829020495
10829028307
10829034533
10829041491
10829051134
10829055895
10829064562
10829070910
10829079943
10829086047
10829093737
10829102282
10829108141
10829117602
10829125353
10829132677
10829140551
10829147509
10829155382
10829162523
10829169909
10829178820
10829186144
10829194017
10829200426
10829209887
10829216478
10829225695
10829233690
10829242662
10829252245
10829258348
10829267687
10829276048
10829285753
10829291612
10829300951
10829308580
10829314623
10829322313
10829329393
10829336168
10829344896
10829351915
10829361009
10829367845
10829375719
10829382005
10829387681
10829396104
10829403917
10829412218
10829419847
10829426805
10829434007
10829440538
10829446885
10829454820
10829461168
10829467820
10829476426
10829482591
10829488511
10829496934
10829505357
10829511155
10829520311
10829528428
10829538133
10829545823
10829551377
10829558579
10829565415
10829571580
10829580247
10829586472
10829593553
10829602342
10829607774
10829616013
10829623155
10829628892
10829636216
10829642197
10829650437
10829660325
10829667832
10829674180
10829681443
10829687668
10829693833
10829702378
10829708909
10829716538
10829723313
10829731431
10829737839
10829742539
10829750107
10829757432
10829765122
10829772995
10829779953
10829788132
10829795456
10829803147
10829809189
10829816330
10829822007
10829828598
10829837326
10829843796
10829850876
10829859177
10829864792
10829873093
10829877854
10829885544
10829893051
10829900559
10829908066
10829915268
10829922714
10829929306
10829936447
10829943222
10829948471
10829960434
10829968735
10829976974
10829984665
10829990646
10829997787
10830007797
10830014206
10830020920
10830029587
10830036789
10830043808
10830053817
10830060348
10830067978
10830074630
10830079818
10830090438
10830095321
10830105148
10830112960
10830119308
10830126693
10830132370
10830139938
10830148544
10830156234
10830162155
10830169418
10830177047
10830184188
10830190414
10830197616
10830207504
10830212631
10830221908
10830230270
10830238876
10830246810
10830254623
10830262923
10830270614
10830278182
10830286971
10830294295
10830303573
10830311019
10830316146
10830325667
10830331771
10830340011
10830347945
10830356063
10830361312
10830369002
10830376265
10830382308
10830389388
10830398421
10830406111
10830413802
10830418318
10830427169
10830433577
10830438277
10830448226
10830453231
10830463851
10830472151
10830478133
10830486250
10830492049
10830499190
10830506087
10830513228
10830521773
10830527327
10830535017
10830542342
10830548994
10830555281
10830562727
10830569075
10830576704
10830585310
10830592451
10830598677
10830605879
10830611555
10830618941
10830627119
10830632551
10830641279
10830649336
10830656111
10830663435
10830670149
10830677351
10830684736
10830689375
10830698469
10830704939
10830712690
10830721479
10830728620
10830735762
10830744306
10830750715
10830760603
10830768049
10830777570
10830784406
10830792341
10830799055
10830807356
10830814253
10830822675
10830829694
10830836835
10830842634
10830851057
10830857648
10830862958
10830870527
10830877790
10830889020
10830897565
10830907697
10830915815
10830923688
10830931867
10830938581
10830946454
10830953412
10830960187
10830965925
10830972089
10830978742
10830985517
10830991315
10830998151
10831005170
10831011151
10831017255
10831023847
10831030194
10831035932
10831043134
10831051068
10831057355
10831063275
10831069989
10831074872
10831081830
10831087323
10831094525
10831102826
10831110272
10831115582
10831122662
10831127972
10831134564
10831142255
10831149152
10831156232
10831163556
10831170575
10831177289
10831183453
10831190228
10831197796
10831202679
10831210248
10831217450
10831223980
10831230694
10831237408
10831244061
10831251263
10831255352
10831265057
10831272381
10831279522
10831286785
10831294903
10831302166
10831311016
10831316449
10831327069
10831333111
10831341656
10831348919
10831356121
10831363445
10831368817
10831374981
10831384747
10831391155
10831400494
10831404827
10831413982
10831420208
10831426373
10831434612
10831444195
10831452007
10831461773
10831470074
10831477825
10831487835
10831494976
10831502971
10831513225
10831522869
10831530254
10831541729
10831549175
10831556133
10831563701
10831573223
10831580608
10831588176
10831595317
10831601665
10831609294
10831615398
10831621624
10831632060
10831639995
10831648296
10831656413
10831663066
10831670635
10831678081
10831686199
10831694743
10831701030
10831710490
10831716411
10831725200
10831730022
10831739116
10831746989
10831754314
10831762065
10831769084
10831776347
10831782573
10831790141
10831799907
10831804790
10831813029
10831819987
10831826396
10831833354
10831840922
10831848307
10831854289
10831861247
10831870463
10831878032
10831885112
10831892497
10831900431
10831907572
10831914103
10831923625
10831930888
10831938517
10831946147
10831952677
10831960124
10831970194
10831978251
10831986247
10831994608
10832002970
10832010905
10832018229
10832026591
10832032145
10832042826
10832052042
10832058146
10832065958
10832072489
10832080668
10832089518
10832097513
10832104532
10832112284
10832119303
10832127115
10832135538
10832140360
10832150187
10832157023
10832165567
10832172342
10832177591
10832185465
10832193827
10832202433
10832210428
10832218851
10832224527
10832237955
10832243631
10832254007
10832262735
10832269754
10832277323
10832284464
10832292520
10832298929
10832305704
10832314188
10832320718
10832329507
10832334085
10832344217
10832350870
10832358560
10832368265
10832376016
10832382486
10832390481
10832396646
10832404764
10832410989
10832420022
10832426614
10832435525
10832441934
10832449685
10832457620
10832465371
10832473001
10832477761
10832486734
10832493753
10832502725
10832511026
10832518655
10832525918
10832535440
10832543069
10832552041
10832559609
10832566140
10832573220
10832581765
10832588906
10832596108
10832601540
10832612283
10832617715
10832625771
10832633096
10832639870
10832647012
10832653725
10832660134
10832669167
10832675820
10832684670
10832691201
10832698525
10832704201
10832712441
10832718056
10832725686
10832734536
10832740395
10832749001
10832754433
10832761574
10832768837
10832775673
10832782631
10832790932
10832797768
10832807778
10832815590
10832822975
10832830544
10832839882
10832845436
10832854469
10832862831
10832869362
10832878639
10832884865
10832893532
10832899574
10832907509
10832916908
10832924843
10832930702
10832938759
10832944801
10832952919
10832959022
10832967262
10832976967
10832986061
10832992409
10833001076
10833010841
10833016945
10833026954
10833034157
10833042823
10833048500
10833057594
10833065406
10833071815
10833080055
10833086341
10833092933
10833102577
10833109657
10833116004
10833122291
10833130897
10833137367
10833144386
10833150306
10833158546
10833166541
10833173133
10833178809
10833186622
10833194740
10833202003
10833207679
10833215125
10833222938
10833230262
10833237769
10833245643
10833251624
10833258643
10833266395
10833273658
10833280677
10833287940
10833294410
10833301673
10833308387
10833314673
10833322425
10833329566
10833338843
10833345679
10833352942
10833359290
10833367225
10833375769
10833381629
10833390052
10833398230
10833405982
10833413977
10833420630
10833427771
10833435279
10833442359
10833451514
10833458533
10833464087
10833472876
10833483374
10833489539
10833495154
10833505591
10833512122
10833520483
10833529578
10833538855
10833546667
10833556128
10833562842
10833569678
10833575476
10833584814
10833590735
10833595923
10833605017
10833610754
10833620093
10833625586
10833633581
10833640905
10833646765
10833653173
10833661963
10833671789
10833679235
10833683630
10833691381
10833697607
10833705053
10833713415
10833718603
10833728063
10833732946
10833740637
10833748510
10833757665
10833764990
10833772558
10833780309
10833792455
10833801916
10833810156
10833819860
10833826940
10833834203
10833840978
10833849828
10833859411
10833866674
10833874242
10833881444
10833888463
10833894201
10833900243
10833909643
10833917150
10833925512
10833933141
10833939855
10833947118
10833953283
10833960912
10833969823
10833975072
10833983007
10833990087
10833996862
10834003881
10834010839
10834017980
10834026341
10834034215
10834040135
10834047338
10834054906
10834062169
10834068273
10834075963
10834085545
10834093297
10834099828
10834107518
10834116185
10834122594
10834129796
10834137486
10834146092
10834154210
10834163548
10834171422
10834178380
10834186986
10834194737
10834203709
10834211949
10834217686
10834227513
10834233738
10834240635
10834247899
10834257298
10834263951
10834272190
10834278355
10834287266
10834295689
10834301853
10834312229
10834319004
10834326878
10834333958
10834344273
10834348911
10834357884
10834365269
10834372349
10834381809
10834389927
10834397190
10834403843
10834412205
10834418064
10834425938
10834434483
10834444553
10834451511
10834457676
10834465000
10834472019
10834480625
10834489597
10834499729
10834509372
10834517978
10834525364
10834534275
10834541904
10834550083
10834561069
10834569980
10834578159
10834585239
10834593845
10834600925
10834608005
10834616550
10834623874
10834631503
10834638828
10834645847
10834652988
10834659824
10834666171
10834673679
10834679965
10834689060
10834695285
10834702060
10834710422
10834717075
10834722812
10834731174
10834737765
10834744968
10834754001
10834759555
10834768527
10834773898
10834781283
10834788363
10834796359
10834803561
10834809848
10834816134
10834823825
10834830294
10834838107
10834846408
10834853305
10834861789
10834868380
10834874911
10834882907
10834891268
10834897250
10834906283
10834914523
10834921359
10834929354
10834936740
10834943575
10834951876
10834959017
10834966769
10834972994
10834981478
10834990817
10834996066
10835005404
10835013338
10835019564
10835027438
10835034457
10835042391
10835049959
10835056795
10835064303
10835073458
10835079378
10835088717
10835096468
10835102816
10835110872
10835118075
10835125765
10835133333
10835142000
10835164949
10835171968
10835182405
10835189730
10835198458
10835205355
10835212374
10835218843
10835227205
10835235506
10835241365
10835251314
10835257234
10835264986
10835272981
10835282747
10835288301
10835296358
10835303377
10835312166
10835321138
10835328950
10835336641
10835344453
10835352022
10835360139
10835367341
10835377534
10835388093
10835394990
10835403535
10835412019
10835416902
10835427034
10835434358
10835440950
10835450044
10835455232
10835464448
10835470308
10835479158
10835487092
10835493806
10835501863
10835511140
10835516145
10835524507
10835531465
10835539765
10835547334
10835555757
10835561982
10835570588
10835579011
10835587373
10835593842
10835601838
10835609345
10835617158
10835623505
10835630769
10835638398
10835645905
10835652680
10835659821
10835667145
10835676179
10835683442
10835689850
10835698945
10835705292
10835713288
10835722199
10835728302
10835735932
10835743988
10835752167
10835757050
10835767182
10835774140
10835781037
10835787323
10835797272
10835803681
10835809601
10835819061
10835827240
10835836151
10835842133
10835849457
10835857391
10835865021
10835872101
10835880890
10835887970
10835894745
10835903595
10835910309
10835916840
10835926910
10835933136
10835941193
10835947601
10835955658
10835965057
10835972931
10835980133
10835988189
10835995819
10836003509
10836009857
10836016632
10836024933
10836033783
10836040191
10836046539
10836054168
10836062042
10836069915
10836078460
10836087066
10836096221
10836107208
10836113800
10836122466
10836131439
10836140350
10836149932
10836158416
10836167632
10836176788
10836183868
10836190032
10836201446
10836207610
10836214812
10836222076
10836230559
10836237823
10836245086
10836250396
10836258636
10836265716
10836271697
10836278106
10836287200
10836294097
10836302337
10836308806
10836316924
10836323150
10836331389
10836337798
10836345733
10836354888
10836360564
10836369170
10836377104
10836384062
10836391875
10836399871
10836406829
10836415618
10836420012
10836429045
10836435332
10836442412
10836450774
10836457060
10836462920
10836470549
10836478972
10836484831
10836493987
10836501555
10836508635
10836516569
10836523955
10836532439
10836539763
10836546904
10836556608
10836561491
10836570830
10836577360
10836586577
10836593901
10836599089
10836608488
10836614348
10836623259
10836631193
10836637968
10836645842
10836652922
10836659819
10836669645
10836676603
10836684965
10836691923
10836699369
10836705534
10836713651
10836721891
10836730009
10836738249
10836744169
10836753385
10836758512
10836768644
10836779752
10836786222
10836793302
10836803312
10836810941
10836819425
10836827116
10836834135
10836841886
10836849821
10836858060
10836867582
10836872404
10836882474
10836887540
10836897733
10836905301
10836913480
10836920316
10836928678
10836939908
10836947477
10836955350
10836963468
10836969876
10836978055
10836987638
10836994046
10837002774
10837013272
10837019559
10837028226
10837034451
10837042325
10837050931
10837056851
10837065030
10837072354
10837078030
10837084622
10837093533
10837099881
10837107327
10837113675
10837121548
10837127530
10837135281
10837143338
10837150540
10837156460
10837164273
10837171963
10837180203
10837185879
10837194058
10837199795
10837207242
10837214627
10837222500
10837230862
10837235928
10837245083
10837252041
10837261624
10837268643
10837276211
10837282742
10837291043
10837297390
10837305325
10837314175
10837322048
10837328884
10837336697
10837343166
10837350063
10837359768
10837366909
10837375332
10837382229
10837390041
10837396267
10837404751
10837413418
10837419277
10837428005
10837433864
10837443508
10837451565
10837459499
10837464382
10837474331
10837481411
10837488125
10837494350
10837502651
10837511745
10837520107
10837526394
10837534511
10837541225
10837549099
10837556240
10837563869
10837574916
10837579860
10837589931
10837597011
10837604885
10837611843
10837619533
10837626003
10837633998
10837642848
10837648891
10837656276
10837664150
10837672572
10837677638
10837687831
10837692775
10837704677
10837715175
10837722987
10837729030
10837738917
10837744411
10837753383
10837761378
10837770167
10837779017
10837789088
10837797145
10837803309
10837810023
10837818934
10837826197
10837833827
10837842433
10837849147
10837854945
10837864100
10837869899
10837877955
10837884242
10837892359
10837900843
10837908290
10837914942
10837922267
10837928980
10837936488
10837944178
10837952113
10837958949
10837965357
10837973841
10837980311
10837988184
10837995325
10838003321
10838009547
10838017725
10838027308
10838033106
10838041468
10838049586
10838056483
10838064539
10838070887
10838078211
10838086512
10838093592
10838102381
10838108728
10838116907
10838123316
10838131128
10838137964
10838146082
10838156031
10838163965
10838170801
10838178797
10838185144
10838192224
10838199671
10838208704
10838216455
10838222803
10838231104
10838237573
10838245752
10838254297
10838262232
10838268640
10838276514
10838284326
10838291467
10838299463
10838306787
10838315210
10838321619
10838330713
10838337121
10838345544
10838352075
10838359888
10838367212
10838375085
10838383630
10838388513
10838399072
10838406030
10838414819
10838421899
10838429467
10838436059
10838445153
10838451379
10838459314
10838465783
10838473657
10838481164
10838488915
10838496484
10838503442
10838512292
10838519860
10838528527
10838535180
10838543969
10838553613
10838562890
10838570763
10838579797
10838586449
10838595849
10838602013
10838610497
10838620751
10838629296
10838635827
10838643212
10838651452
10838657128
10838665429
10838673180
10838681847
10838687462
10838695641
10838700280
10838709496
10838716942
10838722985
10838730492
10838737999
10838745140
10838753197
10838760521
10838767479
10838774926
10838781090
10838788109
10838799401
10838807152
10838813439
10838819908
10838827477
10838834679
10838842980
10838849266
10838858238
10838864891
10838872765
10838881615
10838887413
10838896324
10838904137
10838910423
10838917625
10838926964
10838931785
10838941063
10838948204
10838955528
10838961815
10838971885
10838978233
10838986229
10838993309
10839001182
10839007957
10839014854
10839024315
10839031211
10839038963
10839046165
10839055992
10839063011
10839070701
10839076927
10839085533
10839092063
10839100059
10839109031
10839114951
10839123924
10839128684
10839138816
10839146812
10839153404
10839160239
10839168052
10839174216
10839182273
10839190696
10839198753
10839206504
10839214378
10839222251
10839227256
10839237144
10839242026
10839252036
10839258872
10839266685
10839273032
10839281699
10839287986
10839296164
10839304587
10839312644
10839327720
10839334739
10839342917
10839350241
10839358237
10839367575
10839374655
10839383811
10839395285
10839403708
10839411643
10839418234
10839425864
10839432456
10839439047
10839447592
10839454062
10839462546
10839469077
10839476584
10839483054
10839492148
10839499289
10839506369
10839512167
10839519308
10839527670
10839535177
10839542685
10839547995
10839556296
10839563742
10839570334
10839577414
10839584433
10839592184
10839599752
10839606894
10839615805
10839622824
10839630758
10839637228
10839645224
10839651632
10839660299
10839666647
10839674215
10839680075
10839687765
10839696127
10839702108
10839711813
10839718282
10839726583
10839734518
10839741842
10839749838
10839756307
10839763143
10839772787
10839779989
10839787557
10839794515
10839801961
10839808187
10839819173
10839825460
10839833272
10839840841
10839848836
10839855794
10839863790
10839870931
10839878011
10839885763
10839895162
10839901876
10839910909
10839917196
10839923665
10839931539
10839940572
10839948506
10839956746
10839962606
10839971822
10839977986
10839985738
10839993733
10840001973
10840007100
10840017903
10840024678
10840032430
10840039327
10840046468
10840054646
10840061726
10840067952
10840079793
10840093098
10840101094
10840109029
10840117879
10840127644
10840136189
10840144429
10840154378
10840161213
10840170125
10840179951
10840187031
10840197102
10840203389
10840209675
10840222065
10840231648
10840237690
10840246601
10840253437
10840262287
10840268696
10840275410
10840284260
10840291096
10840296894
10840305744
10840311543
10840317036
10840326496
10840333820
10840341023
10840348530
10840354755
10840362202
10840370014
10840375813
10840384418
10840390827
10840398334
10840405048
10840414081
10840420551
10840428058
10840434040
10840439472
10840448505
10840453815
10840464130
10840469745
10840477863
10840485248
10840492328
10840496784
10840506000
10840512470
10840519428
10840526142
10840535846
10840542255
10840547016
10840554523
10840561969
10840569904
10840575153
10840584979
10840592670
10840599262
10840606342
10840615009
10840622333
10840629108
10840636432
10840645343
10840651263
10840659564
10840667499
10840676471
10840681842
10840691302
10840700641
10840707721
10840716815
10840722796
10840732135
10840738605
10840747394
10840753741
10840762958
10840769793
10840778033
10840785113
10840793475
10840802447
10840808856
10840818194
10840824237
10840833087
10840840838
10840848162
10840855853
10840862933
10840870501
10840878192
10840885699
10840896075
10840901019
10840912859
10840920855
10840927813
10840933917
10840944109
10840950701
10840961321
10840967852
10840976275
10840984576
10840992449
10840999590
10841007464
10841015032
10841023577
10841032976
10841039446
10841045672
10841053911
10841062578
10841071245
10841077593
10841085283
10841091692
10841099627
10841108477
10841113298
10841122881
10841130144
10841137285
10841143572
10841153520
10841160601
10841168840
10841177080
10841181780
10841190752
10841196062
10841203691
10841210771
10841218096
10841225298
10841233049
10841240312
10841247514
10841255327
10841262712
10841269670
10841277177
10841284196
10841292924
10841299577
10841308305
10841314531
10841322587
10841330339
10841338457
10841346086
10841354082
10841361894
10841369767
10841375749
10841382707
10841391618
10841398515
10841406572
10841412797
10841421342
10841428605
10841436662
10841445268
10841451371
10841460038
10841467912
10841474198
10841481156
10841489640
10841496537
10841501847
10841512773
10841517960
10841527299
10841533341
10841542924
10841550858
10841558671
10841564591
10841572892
10841580765
10841588090
10841595170
10841603837
10841611161
10841620011
10841627152
10841634415
10841640702
10841648575
10841656632
10841664506
10841671280
10841678544
10841686600
10841694474
10841700455
10841709000
10841717484
10841725785
10841734146
10841742081
10841752213
10841759598
10841768509
10841775833
10841784195
10841792862
10841801834
10841811722
10841818253
10841826187
10841834610
10841840958
10841848465
10841854874
10841861588
10841869888
10841874710
10841882523
10841889664
10841896500
10841903763
10841911636
10841918838
10841926712
10841933853
10841940262
10841947586
10841954361
10841962906
10841970779
10841978836
10841986404
10841993301
10842000930
10842009842
10842016800
10842022964
10842028823
10842038833
10842046646
10842054763
10842060806
10842069656
10842077651
10842085220
10842090225
10842099075
10842105972
10842115493
10842122329
10842130203
10842136611
10842144973
10842151260
10842159316
10842167007
10842174758
10842183547
10842191360
10842198745
10842203811
10842212539
10842219680
10842227187
10842233718
10842242324
10842248549
10842256606
10842265639
10842271499
10842279189
10842287246
10842294997
10842302993
10842310317
10842317336
10842324965
10842331374
10842341201
10842347487
10842353530
10842362990
10842370803
10842378188
10842386183
10842393996
10842398940
10842407973
10842415114
10842423476
10842430129
10842440443
10842448439
10842455641
10842462599
10842470412
10842477126
10842484633
10842493605
10842499464
10842512099
10842518812
10842526686
10842536635
10842544081
10842552076
10842558790
10842565077
10842577711
10842586805
10842594435
10842602552
10842609571
10842617933
10842624403
10842632032
10842639906
10842647230
10842655775
10842661390
10842669020
10842676161
10842683790
10842690931
10842698377
10842705763
10842712415
10842719129
10842728040
10842735670
10842742139
10842749220
10842758375
10842765516
10842774122
10842780347
10842787183
10842793043
10842800672
10842809034
10842813917
10842823804
10842831861
10842840406
10842846143
10842853345
10842861463
10842868238
10842875562
10842883802
10842890882
10842898938
10842908094
10842915479
10842921827
10842929883
10842936353
10842944165
10842952466
10842960462
10842968946
10842973706
10842982984
10842990247
10842997571
10843003858
10843014050
10843020337
10843026196
10843036206
10843042065
10843049451
10843057507
10843065686
10843073743
10843082165
10843089001
10843096814
10843103772
10843113232
10843120190
10843125500
10843134839
10843140637
10843150158
10843158093
10843166211
10843172375
10843180676
10843188610
10843194531
10843201428
10843209484
10843218762
10843224133
10843231518
10843239392
10843247387
10843255322
10843263684
10843268566
10843279431
10843287426
10843294750
10843302502
10843310009
10843317638
10843325634
10843334667
10843345165
10843353405
10843361340
10843371654
10843378857
10843389477
10843396313
10843408031
10843413708
10843429149
10843436840
10843444042
10843449840
10843457103
10843464245
10843470897
10843481212
10843488475
10843496654
10843501171
10843508861
10843518444
10843526683
10843531444
10843540905
10843548351
10843557140
10843564159
10843572826
10843579723
10843590099
10843596874
10843604503
10843610973
10843619029
10843625499
10843633006
10843638805
10843645946
10843655894
10843668346
10843674632
10843682811
10843689830
10843699718
10843707164
10843715953
10843723460
10843733836
10843742564
10843751231
10843759959
10843768748
10843776561
10843784251
10843792064
10843799022
10843806224
10843813426
10843820506
10843830027
10843837107
10843842112
10843850474
10843858348
10843865916
10843874095
10843883006
10843888804
10843897654
10843905711
10843912364
10843919505
10843928172
10843935191
10843943736
10843950083
10843955943
10843965952
10843972056
10843981455
10843989451
10843997141
10844003062
10844010691
10844017771
10844025034
10844034067
10844041758
10844048777
10844053965
10844063852
10844069956
10844079783
10844085642
10844093760
10844101755
10844110300
10844115549
10844126474
10844134104
10844143015
10844150522
10844157724
10844164621
10844172861
10844181589
10844190805
10844198740
10844206979
10844215402
10844223520
10844233774
10844240060
10844249094
10844256174
10844264047
10844269662
10844277719
10844285043
10844291635
10844298776
10844305490
10844311716
10844320444
10844326730
10844335336
10844341867
10844349008
10844355417
10844363961
10844370736
10844378549
10844384958
10844392953
10844401254
10844407296
10844416513
10844422372
10844431405
10844439218
10844446115
10844453561
10844460885
10844467233
10844473824
10844482858
10844490365
10844496835
10844504830
10844513192
10844519296
10844527535
10844535409
10844543343
10844551522
10844558053
10844564828
10844573617
10844580575
10844589059
10844596200
10844605355
10844611519
10844617440
10844627938
10844633919
10844642159
10844650216
10844659005
10844664193
10844673836
10844678658
10844690071
10844695321
10844704232
10844710335
10844719002
10844725228
10844733101
10844742012
10844747872
10844757881
10844763680
10844772591
10844777535
10844786751
10844793709
10844802742
10844809761
10844817879
10844824959
10844833626
10844840523
10844848152
10844854439
10844863716
10844869575
10844878242
10844884895
10844894783
10844901069
10844909004
10844915108
10844923652
10844932380
10844941780
10844950386
10844960029
10844970344
10844978035
10844985298
10844993354
10844999885
10845007392
10845018257
10845025947
10845032844
10845039863
10845048042
10845055061
10845060798
10845068122
10845075874
10845081062
10845089729
10845097053
10845103706
10845111091
10845118293
10845125678
10845132209
10845139411
10845147407
10845151984
10845160590
10845166999
10845175300
10845182441
10845191230
10845197700
10845205817
10845212287
10845220710
10845227057
10845235908
10845242377
10845250190
10845257331
10845265265
10845272529
10845280524
10845287360
10845294196
10845301520
10845310736
10845318488
10845325507
10845333258
10845339545
10845347479
10845356391
10845362189
10845371039
10845379096
10845386725
10845394537
10845401862
10845409735
10845415839
10845422980
10845431158
10845437445
10845446600
10845452887
10845460577
10845468512
10845476507
10845484015
10845491949
10845497626
10845504706
10845513128
10845523382
10845532293
10845540411
10845546759
10845553839
10845562140
10845568609
10845579168
10845586554
10845594976
10845601385
10845607122
10845616949
10845625006
10845632574
10845638433
10845646673
10845654608
10845663275
10845671392
10845677496
10845684515
10845693121
10845699774
10845704534
10845716619
10845725286
10845732854
10845741094
10845748174
10845756841
10845763555
10845772893
10845779790
10845787847
10845797124
10845803228
10845812078
10845821111
10845830266
10845836858
10845845464
10845853215
10845861577
10845866826
10845874089
10845880559
10845889104
10845895513
10845902959
10845909490
10845916997
10845925115
10845930791
10845936467
10845944402
10845951787
10845959050
10845966802
10845974065
10845982121
10845989629
10845996404
10846004216
10846012273
10846020146
10846026799
10846034245
10846042424
10846047551
10846055852
10846062199
10846070317
10846078801
10846087834
10846097294
10846103764
10846110234
10846120427
10846126835
10846134831
10846141362
10846149418
10846157658
10846165776
10846172429
10846179509
10846188298
10846195317
10846200566
10846208927
10846216679
10846225895
10846231694
10846241642
10846247685
10846256535
10846264530
10846271122
10846279667
10846289066
10846298283
10846304508
10846311283
10846316593
10846326115
10846330814
10846339603
10846345219
10846356571
10846363102
10846370365
10846377567
10846384891
10846389225
10846397953
10846404239
10846411014
10846420109
10846427250
10846433780
10846440922
10846446720
10846454166
10846462528
10846467899
10846476627
10846484256
10846491886
10846499149
10846504520
10846513980
10846520572
10846531253
10846540897
10846549991
10846558841
10846568607
10846575870
10846586490
10846594241
10846604495
10846613284
10846620059
10846630862
10846639102
10846646670
10846654483
10846662784
10846669864
10846676944
10846684268
10846693118
10846699466
10846707278
10846715823
10846725406
10846732303
10846740542
10846746707
10846754214
10846762515
10846770266
10846776065
10846786197
10846795840
10846802371
10846809451
10846817752
10846823001
10846833499
10846841311
10846848086
10846858096
10846864565
10846873110
10846880618
10846888186
10846895083
10846902590
10846908450
10846916872
10846925417
10846930849
10846938418
10846946841
10846954897
10846961916
10846968935
10846975832
10846982729
10846990420
10846996767
10847005495
10847013979
10847020449
10847029177
10847036196
10847043276
10847049990
10847058474
10847068850
10847074282
10847083681
10847090090
10847097597
10847102419
10847111757
10847119997
10847127809
10847134218
10847141481
10847148805
10847156740
10847163271
10847171938
10847178774
10847188295
10847195619
10847201479
10847211305
10847218752
10847228700
10847236208
10847245912
10847252809
10847261110
10847269289
10847278566
10847289735
10847296083
10847304933
10847311586
10847318483
10847327943
10847334962
10847342042
10847350221
10847358155
10847364930
10847373109
10847382203
10847389650
10847397645
10847406251
10847414857
10847422975
10847430116
10847438722
10847446656
10847451783
10847459840
10847465943
10847473267
10847481202
10847486817
10847495179
10847502992
10847510011
10847516724
10847524964
10847532838
10847539613
10847549805
10847555176
10847563721
10847570252
10847578126
10847582947
10847591187
10847599671
10847608338
10847614441
10847621277
10847629395
10847634644
10847644593
10847654297
10847661011
10847668152
10847675232
10847683411
10847690125
10847698365
10847705750
10847714661
10847722107
10847728211
10847735474
10847741394
10847752197
10847760010
10847768006
10847776245
10847783569
10847789734
10847796143
10847805908
10847813965
10847820679
10847828186
10847835388
10847843689
10847851807
10847860229
10847866821
10847875854
10847881958
10847889831
10847897278
10847905823
10847916504
10847925964
10847933044
10847941711
10847951355
10847956360
10847962463
10847973754
10847980957
10847991333
10847998474
10848007202
10848011413
10848018676
10848028442
10848036315
10848044128
10848051696
10848057372
10848065307
10848072631
10848082214
10848088622
10848095214
10848102844
10848110961
10848118591
10848125549
10848133361
10848141540
10848146239
10848154784
10848161559
10848166564
10848173949
10848182128
10848192138
10848199523
10848205077
10848213439
10848219909
10848228820
10848237426
10848243651
10848250487
10848257750
10848265197
10848272277
10848281188
10848289733
10848296386
10848303221
10848309691
10848317565
10848327147
10848332884
10848342467
10848348998
10848356139
10848364623
10848370787
10848378661
10848388365
10848394896
10848401061
10848409544
10848417723
10848423277
10848433592
10848440489
10848448912
10848455626
10848464415
10848471617
10848480284
10848487852
10848494932
10848502623
10848510130
10848519407
10848526610
10848533018
10848542784
10848550047
10848563231
10848571653
10848582212
10848588987
10848596128
10848603819
10848611631
10848622923
10848631346
10848638426
10848646787
10848655027
10848661375
10848669920
10848675779
10848682981
10848689390
10848695005
10848701109
10848709531
10848717649
10848725950
10848732481
10848738706
10848746519
10848755308
10848762022
10848770872
10848778440
10848785764
10848794675
10848800290
10848807859
10848816770
10848825010
10848833188
10848841123
10848851255
10848857053
10848869138
10848879148
10848888059
10848894406
10848901364
10848909726
10848918576
10848927243
10848934751
10848941464
10848949521
10848957456
10848965390
10848973569
10848979733
10848990659
10848997739
10849003964
10849010251
10849018674
10849026608
10849036984
10849045224
10849051999
10849060666
10849067258
10849074826
10849081357
10849091000
10849098019
10849105099
10849112423
10849120846
10849125790
10849132138
10849144101
10849152279
10849158993
10849165707
10849172726
10849180722
10849186825
10849196102
10849205136
10849211605
10849219418
10849227474
10849236386
10849242428
10849252377
10849264034
10849271053
10849278866
10849288265
10849296505
10849301510
10849311092
10849320431
10849329342
10849336788
10849343868
10849352474
10849360897
10849367306
10849377498
10849384273
10849389217
10849398250
10849404171
10849412288
10849419491
10849426754
10849433895
10849440059
10849448665
10849454464
10849462886
10849470028
10849475948
10849485591
10849491573
10849498531
10849504940
10849513423
10849522823
10849531246
10849538509
10849544856
10849551936
10849558711
10849566829
10849575801
10849582149
10849590755
10849598628
10849606014
10849613094
10849623286
10849633052
10849639033
10849645015
10849653499
10849661311
10849668757
10849676326
10849683711
10849693660
10849700862
10849706965
10849714656
10849721003
10849727473
10849736750
10849744075
10849749751
10849756526
10849764155
10849770564
10849778071
10849786616
10849792720
10849801814
10849808894
10849818782
10849824519
10849834468
10849843012
10849850398
10849857173
10849866450
10849872370
10849881770
10849888361
10849898127
10849906489
10849915949
10849924982
10849932795
10849941584
10849951594
10849960749
10849966486
10849979609
10849989924
10849997370
10850002802
10850015253
10850024164
10850031733
10850039240
10850044306
10850054682
10850058710
10850070124
10850077082
10850083673
10850092585
10850099787
10850107843
10850114862
10850123651
10850131525
10850139032
10850146356
10850152765
10850160150
10850166254
10850174616
10850183771
10850190241
10850199335
10850206293
10850212213
10850220148
10850228693
10850234247
10850242548
10850250421
10850258295
10850264215
10850273004
10850281183
10850288202
10850296686
10850304193
10850313104
10850319574
10850327874
10850335077
10850341790
10850351678
10850361077
10850367913
10850375421
10850384088
10850391168
10850399713
10850405755
10850416314
10850422051
10850430902
10850437921
10850445184
10850451959
10850459893
10850468072
10850474297
10850483636
10850489678
10850499871
10850506341
10850513665
10850520745
10850528191
10850535882
10850546014
10850553216
10850560357
10850569634
10850576958
10850586052
10850596062
10850603325
10850613274
10850622735
10850629693
10850638726
10850646904
10850656792
10850662957
10850672356
10850678215
10850687615
10850696343
10850702873
10850712761
10850721367
10850728935
10850733696
10850742546
10850749931
10850757378
10850765556
10850773674
10850782829
10850788078
10850795403
10850805107
10850811272
10850819023
10850827446
10850835808
10850840568
10850848869
10850857109
10850862663
10850870415
10850879143
10850887138
10850894523
10850901481
10850910515
10850915825
10850924370
10850931144
10850939201
10850946464
10850953910
10850958610
10850968132
10850975822
10850985466
10850993400
10851000663
10851007865
10851017509
10851022941
10851031425
10851037956
10851045463
10851051689
10851060478
10851066764
10851074210
10851080497
10851090873
10851099845
10851106010
10851115287
10851121757
10851129203
10851136222
10851144462
10851151542
10851158927
10851166984
10851174430
10851180350
10851189811
10851199454
10851206901
10851213614
10851221183
10851227774
10851235099
10851244254
10851253470
10851259146
10851267752
10851277823
10851286612
10851295584
10851303580
10851309439
10851320853
10851327750
10851336417
10851343924
10851351737
10851357352
10851368094
10851375540
10851383780
10851391165
10851400076
10851406058
10851412894
10851421805
10851429495
10851437002
10851445120
10851452261
10851459707
10851466055
10851475271
10851482718
10851492056
10851497549
10851506338
10851513784
10851521048
10851529898
10851538626
10851543875
10851552053
10851558889
10851567617
10851574392
10851584341
10851592642
10851598806
10851606741
10851615591
10851620474
10851627920
10851639395
10851646230
10851652212
10851660818
10851667165
10851675161
10851682363
10851691274
10851698843
10851707815
10851712514
10851721609
10851728994
10851734975
10851743886
10851750905
10851759572
10851768239
10851774343
10851781667
10851787771
10851796804
10851805410
10851813405
10851820180
10851828603
10851834829
10851842092
10851850148
10851857473
10851866994
10851877309
10851887258
10851894155
10851902089
10851910573
10851918935
10851926808
10851937978
10851947499
10851955068
10851962331
10851972829
10851984303
10851991933
10851997670
10852009389
10852018178
10852026234
10852032826
10852046742
10852056752
10852062672
10852071339
10852079579
10852086659
10852094533
10852102528
10852109852
10852116688
10852124379
10852131031
10852138661
10852147023
10852155445
10852162281
10852171864
10852177601
10852186085
10852192555
10852199269
10852207875
10852217213
10852225147
10852232227
10852241139
10852248402
10852257374
10852265614
10852273609
10852281117
10852288868
10852296192
10852304005
10852311085
10852318836
10852325550
10852332691
10852341724
10852347767
10852356495
10852365650
10852372425
10852377735
10852386097
10852395130
10852402698
10852411976
10852419361
10852427112
10852433887
10852440601
10852449451
10852456409
10852463611
10852471546
10852478015
10852486621
10852493335
10852501453
10852508777
10852517078
10852524402
10852531543
10852538623
10852546192
10852553882
10852562976
10852571704
10852578601
10852586292
10852594287
10852602771
10852609912
10852616138
10852623340
10852631030
10852639941
10852646045
10852653613
10852659472
10852667712
10852676623
10852682300
10852693103
10852699511
10852706775
10852716967
10852725329
10852731494
10852739795
10852748828
10852760241
10852767321
10852775683
10852782397
10852791552
10852798815
10852807543
10852816027
10852823412
10852829516
10852838366
10852844775
10852853014
10852861620
10852867358
10852875964
10852883349
10852891833
10852897814
10852907458
10852913927
10852921496
10852929186
10852937487
10852943529
10852950915
10852959215
10852967577
10852975756
10852983141
10852990954
10852997728
10853005419
10853012011
10853022203
10853028917
10853036669
10853042894
10853053820
10853061876
10853068712
10853076769
10853083971
10853091722
10853099047
10853106127
10853113573
10853120714
10853129381
10853138475
10853145372
10853151476
10853156603
10853163377
10853168810
10853176134
10853182665
10853186998
10853193468
10853200059
10853203905
10853212022
10853216295
10853224535
10853230516
10853236619
10853241197
10853245225
10853250657
10853256578
10853261156
10853268114
10853275438
10853280076
10853284776
10853290269
10853296922
10853302659
10853307481
10853314439
10853321885
10853327867
10853332994
10853338792
10853343736
10853349046
10853353501
10853359666
10853367784
10853371995
10853378587
10853382798
10853388841
10853395921
10853400865
10853407395
10853415574
10853420518
10853426377
10853432115
10853437180
10853442002
10853448411
10853453538
10853460618
10853468064
10853473618
10853479600
10853483689
10853488084
10853494126
10853499314
10853504563
10853509446
10853514878
10853519578
10853524705
10853530076
10853534653
10853539963
10853545640
10853550828
10853555161
10853559495
10853565293
10853570054
10853575730
10853580185
10853585618
10853590256
10853596482
10853600815
10853606736
10853610947
10853616501
10853623520
10853628098
10853634568
10853640122
10853646164
10853650437
10853657334
10853663559
10853670578
10853674790
10853680832
10853686753
10853693222
10853699570
10853704453
10853710190
10853717880
10853724289
10853729843
10853733200
10853740036
10853744797
10853748337
10853755417
10853759140
10853765610
10853770187
10853777084
10853781418
10853787949
10853793686
10853797958
10853803085
10853810471
10853817001
10853822678
10853827377
10853833420
10853838119
10853843613
10853847763
10853851669
10853859848
10853864425
10853870529
10853876938
10853883896
10853889023
10853896225
10853903427
10853908310
10853916366
10853926193
10853931686
10853940048
10853945236
10853953353
10853960128
10853965499
10853975387
10853982528
10853993453
10854000900
10854006820
10854014449
10854021591
10854027633
10854038436
10854048446
10854056991
10854063216
10854079879
10854083297
10854094161
10854103744
10854109908
10854117721
10854122848
10854132735
10854142074
10854147750
10854154403
10854159896
10854166366
10854171248
10854176314
10854181746
10854186507
10854192733
10854197677
10854203902
10854208358
10854214339
10854218551
10854223861
10854232955
10854238875
10854243575
10854247237
10854253890
10854259139
10854264449
10854268660
10854273665
10854280684
10854286177
10854291670
10854296309
10854301009
10854306868
10854311751
10854317305
10854322371
10854328780
10854333663
10854337080
10854344038
10854349349
10854353560
10854359175
10854363875
10854370772
10854375349
10854380965
10854385908
10854391280
10854396590
10854401411
10854406905
10854411665
10854417097
10854421431
10854426680
10854432356
10854437849
10854442488
10854448042
10854452681
10854458418
10854464888
10854470869
10854475813
10854481001
10854486921
10854492109
10854497603
10854504011
10854511091
10854516035
10854522749
10854527143
10854531111
10854538252
10854542402
10854548994
10854554853
10854561384
10854568037
10854575300
10854582563
10854589887
10854595136
10854602278
10854611128
10854622419
10854627180
10854633772
10854644026
10854649702
10854660993
10854666547
10854673444
10854685529
10854695600
10854702436
10854708417
10854718976
10854723188
10854731916
10854738935
10854748212
10854756269
10854764753
10854774701
10854779340
10854787275
10854794721
10854799238
10854806134
10854810834
10854818891
10854823652
10854828412
10854833783
10854839399
10854844587
10854849958
10854853315
10854859540
10854864423
10854870587
10854875287
10854881818
10854886701
10854891828
10854898664
10854904035
10854908856
10854915204
10854920087
10854923627
10854929181
10854934552
10854940473
10854945905
10854951520
10854957013
10854962506
10854965863
10854972028
10854976788
10854983319
10854987958
10854992413
10854999188
10855004376
10855009259
10855013653
10855019574
10855025006
10855030499
10855036297
10855043744
10855050030
10855054913
10855060528
10855065899
10855071148
10855076153
10855080914
10855087262
10855091900
10855098309
10855102520
10855108075
10855114239
10855120160
10855125653
10855131573
10855137005
10855143536
10855150006
10855153668
10855160748
10855165325
10855172589
10855177288
10855183392
10855189373
10855195416
10855201214
10855207256
10855214031
10855221234
10855229229
10855235088
10855243755
10855249188
10855256878
10855263836
10855270916
10855279888
10855289532
10855296123
10855304424
10855308086
10855319195
10855328899
10855335491
10855340923
10855351665
10855356243
10855366314
10855373577
10855379192
10855385479
10855398784
10855410381
10855418377
10855426006
10855434917
10855443096
10855446331
10855455608
10855463481
10855469280
10855477703
10855484111
10855491069
10855501262
10855507121
10855513347
10855523479
10855530376
10855540813
10855550761
10855555949
10855563762
10855569743
10855579631
10855587077
10855594585
10855603068
10855611247
10855619792
10855626811
10855634379
10855638957
10855646586
10855653056
10855662211
10855668986
10855675517
10855682780
10855690715
10855699626
10855706401
10855713115
10855720378
10855727824
10855735392
10855742778
10855749125
10855755595
10855764262
10855771708
10855777995
10855786418
10855793131
10855798319
10855807658
10855812419
10855820414
10855828227
10855837138
10855844279
10855851176
10855859415
10855868266
10855874247
10855885355
10855892557
10855900797
10855907389
10855913676
10855924357
10855933939
10855941752
10855947367
10855957132
10855962076
10855971842
10855981180
10855990091
10855997355
10856001932
10856010965
10856017374
10856026163
10856033426
10856038004
10856047647
10856055704
10856061502
10856070108
10856077371
10856084390
10856090860
10856097269
10856104227
10856111612
10856119119
10856126688
10856133707
10856140787
10856149210
10856155008
10856163004
10856168497
10856176004
10856184305
10856189432
10856197977
10856205545
10856212259
10856220560
10856226236
10856234231
10856239664
10856246438
10856255777
10856264505
10856274698
10856281350
10856290506
10856295877
10856303384
10856309304
10856319864
10856326333
10856332009
10856340921
10856349527
10856355203
10856363931
10856370034
10856376016
10856383706
10856390054
10856394631
10856403237
10856408669
10856414102
10856418252
10856423013
10856429299
10856433938
10856437539
10856446023
10856451150
10856457253
10856460854
10856466592
10856472085
10856476907
10856483010
10856491494
10856496804
10856503335
10856507424
10856514077
10856520730
10856525368
10856531350
10856536721
10856543679
10856548134
10856555092
10856560463
10856566323
10856572854
10856577614
10856584389
10856590676
10856596840
10856600563
10856608681
10856612465
10856618935
10856625771
10856631386
10856637490
10856642433
10856649453
10856653908
10856660744
10856665322
10856671242
10856676674
10856683144
10856689919
10856697243
10856702492
10856706947
10856713722
10856717568
10856723732
10856729714
10856735817
10856741921
10856746986
10856752113
10856758339
10856763649
10856769936
10856774635
10856779030
10856787147
10856791969
10856797707
10856803688
10856810158
10856814064
10856821449
10856825050
10856832252
10856837990
10856844459
10856849342
10856856239
10856860939
10856866859
10856873146
10856877479
10856884315
10856890663
10856896827
10856900550
10856908119
10856913795
10856920936
10856926246
10856930580
10856938880
10856947914
10856953895
10856957862
10856963966
10856970558
10856976417
10856982826
10856989173
10856995765
10857002479
10857006629
10857012367
10857017982
10857022865
10857027992
10857033424
10857038490
10857044227
10857050391
10857054725
10857061012
10857064552
10857071021
10857074989
10857082923
10857087623
10857094459
10857100867
10857105323
10857112647
10857117408
10857121619
10857127845
10857133033
10857138648
10857144446
10857151221
10857155555
10857162330
10857168006
10857174537
10857180396
10857186133
10857190223
10857195655
10857201026
10857206702
10857212134
10857217444
10857223059
10857228614
10857233435
10857239905
10857244483
10857250525
10857256385
10857262366
10857268653
10857274817
10857279822
10857286292
10857291358
10857296851
10857303504
10857308753
10857314124
10857319556
10857326453
10857331213
10857337073
10857342993
10857347632
10857353980
10857357581
10857364478
10857369910
10857377356
10857382849
10857387549
10857392309
10857398352
10857404272
10857410254
10857415259
10857423559
10857428503
10857434424
10857439429
10857444555
10857448340
10857456030
10857460364
10857466833
10857473608
10857480505
10857484839
10857490454
10857496008
10857501806
10857507238
10857513159
10857520727
10857529150
10857534643
10857541479
10857547338
10857551245
10857558020
10857564550
10857570898
10857577551
10857586828
10857593664
10857598425
10857604101
10857608984
10857614050
10857621435
10857625585
10857630712
10857636572
10857641698
10857645971
10857651098
10857656713
10857662023
10857667638
10857672765
10857677038
10857681310
10857688634
10857692907
10857699987
10857704748
10857710790
10857715429
10857720922
10857725194
10857731115
10857736608
10857740758
10857747106
10857753087
10857759130
10857763280
10857770665
10857775182
10857781774
10857786168
10857794042
10857798619
10857805089
10857811010
10857816259
10857820165
10857826635
10857831700
10857837621
10857843480
10857851354
10857856542
10857861669
10857866551
10857872472
10857878331
10857884374
10857889379
10857897252
10857902684
10857906468
10857912755
10857918004
10857921849
10857928258
10857934178
10857941502
10857949559
10857954076
10857959996
10857965672
10857971471
10857976170
10857981602
10857987218
10857992894
10858000096
10858005284
10858009007
10858015294
10858021092
10858026097
10858032200
10858037999
10858044224
10858049962
10858056004
10858060460
10858065037
10858071446
10858076024
10858081822
10858089329
10858094456
10858099278
10858105137
10858110752
10858116429
10858122959
10858127964
10858134373
10858142735
10858149815
10858157322
10858163914
10858169895
10858174351
10858181004
10858188023
10858192784
10858199742
10858205113
10858209263
10858214390
10858220005
10858225437
10858232029
10858237583
10858243870
10858249058
10858255833
10858261265
10858265964
10858273228
10858278355
10858285252
10858289707
10858293674
10858299839
10858305149
10858309910
10858315220
10858320713
10858326389
10858332310
10858337681
10858342014
10858346897
10858352878
10858357090
10858363987
10858371372
10858377170
10858383213
10858386936
10858393222
10858397251
10858404331
10858409885
10858415622
10858423374
10858428012
10858433872
10858440586
10858444614
10858452243
10858457553
10858463779
10858472324
10858477512
10858482334
10858488254
10858494602
10858500461
10858505527
10858511142
10858517062
10858522678
10858529025
10858534946
10858539951
10858544955
10858550998
10858556369
10858562900
10858568027
10858574252
10858579196
10858585910
10858591464
10858596652
10858601474
10858608127
10858613498
10858619052
10858623630
10858629733
10858636081
10858641757
10858647006
10858653903
10858660678
10858665622
10858671725
10858676791
10858682345
10858687960
10858693576
10858698336
10858704928
10858714389
10858719821
10858726168
10858732699
10858738131
10858745700
10858751376
10858757418
10858764865
10858768038
10858775424
10858779330
10858786410
10858791293
10858797518
10858803011
10858808749
10858813509
10858817904
10858823702
10858829501
10858833834
10858839877
10858846651
10858851473
10858856966
10858861483
10858867342
10858873202
10858880160
10858885226
10858890780
10858895968
10858902071
10858907015
10858912630
10858916720
10858920992
10858928988
10858932955
10858939974
10858943941
10858949495
10858954744
10858959261
10858964205
10858970797
10858976168
10858982210
10858986788
10858993563
10858998140
10859004000
10859009981
10859015779
10859022432
10859028597
10859033968
10859037569
10859043978
10859049166
10859055879
10859061861
10859068147
10859073702
10859079622
10859084200
10859090242
10859095186
10859100984
10859106233
10859111360
10859117464
10859124117
10859130769
10859136385
10859142122
10859146761
10859152559
10859157808
10859163606
10859169710
10859175996
10859181306
10859187471
10859193635
10859200044
10859205293
10859210542
10859214326
10859225068
10859230684
10859235689
10859239656
10859246003
10859252046
10859257234
10859263093
10859268708
10859274446
10859281953
10859285554
10859292146
10859297822
10859304414
10859309907
10859316133
10859323762
10859330659
10859335847
10859342317
10859347444
10859353120
10859358613
10859364289
10859369111
10859376069
10859383454
10859388581
10859394196
10859399018
10859402680
10859410066
10859413545
10859419709
10859425629
10859430329
10859435639
10859441315
10859446748
10859452424
10859457612
10859464875
10859468903
10859475129
10859478852
10859484772
10859489472
10859493134
10859497346
10859503571
10859507966
10859513154
10859517792
10859523224
10859527497
10859530671
10859536225
10859541840
10859549958
10859556366
10859560700
10859566376
10859572113
10859578217
10859584687
10859591462
10859598481
10859605805
10859613678
10859619049
10859626923
10859634613
10859640961
10859648590
10859653900
10859665741
10859674957
10859681671
10859686920
10859692536
10859701019
10859709808
10859715973
10859724457
10859730560
10859740204
10859746429
10859755035
10859760956
10859767975
10859774994
10859777923
10859787567
10859793426
10859802093
10859810699
10859817291
10859823822
10859830292
10859835907
10859841217
10859847992
10859855072
10859857147
10859868988
10859875030
10859884002
10859891204
10859897674
10859902008
10859908477
10859914215
10859921600
10859928680
10859936309
10859942901
10859948150
10859952972
10859960418
10859967681
10859974395
10859980560
10859988311
10859997100
10860007842
10860015533
10860021514
10860029021
10860034881
10860041534
10860051116
10860060210
10860067229
10860074859
10860084014
10860090606
10860095977
10860104095
10860111541
10860118133
10860127166
10860135528
10860144439
10860151153
10860159453
10860167693
10860174407
10860180571
10860186675
10860191253
10860195281
10860200103
10860204192
10860208892
10860213408
10860218108
10860222686
10860226714
10860232268
10860237151
10860241484
10860246062
10860252288
10860257475
10860261138
10860266448
10860270964
10860277495
10860282073
10860288115
10860294280
10860299651
10860303984
10860309782
10860314116
10860319609
10860324126
10860329253
10860335234
10860341216
10860345488
10860350859
10860354704
10860360442
10860366667
10860370085
10860376311
10860382414
10860386626
10860392241
10860399138
10860403410
10860411223
10860415434
10860423308
10860427458
10860434233
10860438200
10860444792
10860448942
10860454741
10860460051
10860466032
10860471464
10860477690
10860481779
10860488005
10860491545
10860497648
10860502287
10860508696
10860513334
10860521574
10860526823
10860532926
10860538114
10860541960
10860548673
10860554655
10860560270
10860566313
10860571745
10860577787
10860584684
10860589933
10860599333
10860604582
10860611295
10860617094
10860624174
10860629484
10860635709
10860641874
10860648344
10860654203
10860658659
10860666837
10860672941
10860677824
10860682950
10860688016
10860692350
10860697416
10860701932
10860709257
10860714994
10860718778
10860723966
10860729093
10860733610
10860738675
10860745755
10860750943
10860755765
10860760953
10860767118
10860772611
10860777066
10860782376
10860787931
10860793363
10860798551
10860803189
10860808683
10860813443
10860819303
10860823514
10860829373
10860836881
10860841153
10860847257
10860851224
10860857511
10860862943
10860868375
10860871793
10860878079
10860882901
10860889981
10860893521
10860900296
10860905423
10860911404
10860916165
10860920621
10860929227
10860934048
10860941739
10860946194
10860952786
10860957059
10860963467
10860967068
10860975613
10860980984
10860987515
10860992703
10860999234
10861004483
10861008511
10861014187
10861020047
10861027127
10861032376
10861039578
10861043911
10861049954
10861055935
10861060940
10861066311
10861070034
10861079007
10861083279
10861089016
10861095059
10861100491
10861106411
10861111843
10861117886
10861122036
10861129910
10861134487
10861140103
10861145901
10861150723
10861156887
10861163601
10861167996
10861177456
10861182949
10861190273
10861197109
10861204006
10861208767
10861214443
10861219936
10861226650
10861231899
10861239285
10861244656
10861250515
10861256618
10861263149
10861268886
10861274807
10861280422
10861288235
10861292324
10861298427
10861304775
10861309048
10861314419
10861319973
10861325832
10861331691
10861335842
10861341274
10861346950
10861352443
10861358059
10861363613
10861369228
10861375515
10861379116
10861385158
10861389736
10861395656
10861400539
10861403957
10861411830
10861417324
10861422206
10861426357
10861431911
10861437343
10861443813
10861447719
10861453700
10861459255
10861464260
10861469875
10861475063
10861480312
10861486965
10861492214
10861495998
10861503322
10861510097
10861514858
10861520595
10861526576
10861532497
10861538295
10861542201
10861548976
10861554286
10861560573
10861565883
10861572536
10861577602
10861581752
10861587794
10861593715
10861600551
10861607020
10861613368
10861616969
10861623866
10861629237
10861635463
10861641322
10861649073
10861654689
10861660182
10861665919
10861671717
10861677699
10861683802
10861687709
10861694850
10861701442
