10568462690
10568468550
10568473310
10568478987
10568484785
10568490522
10568494428
10568500471
10568506086
10568512922
10568517744
10568523969
10568529279
10568534589
10568541547
10568546613
10568552656
10568558454
10568564497
10568571333
10568584272
10568589887
10568597211
10568603254
10568610456
10568619184
10568625715
10568632795
10568638471
10568645917
10568650861
10568659955
10568668073
10568674482
10568680097
10568686445
10568692853
10568699201
10568706159
10568713361
10568720563
10568726484
10568731183
10568738568
10568745343
10568750226
10568757245
10568763654
10568769513
10568776105
10568782147
10568789411
10568794477
10568800275
10568805951
10568812726
10568818707
10568824689
10568831036
10568836713
10568842267
10568848065
10568853864
10568860150
10568865704
10568871320
10568877362
10568884015
10568890668
10568897259
10568903363
10568909283
10568916302
10568921979
10568927838
10568933636
10568940106
10568944989
10568952374
10568959210
10568964886
10568971417
10568976727
10568984295
10568990826
10568997174
10569003582
10569009686
10569018048
10569023175
10569029339
10569036297
10569042279
10569048199
10569053448
10569061993
10569067547
10569073345
10569080242
10569083599
10569092327
10569096356
10569105511
10569112713
10569119549
10569125103
10569132366
10569137432
10569144451
10569152081
10569158001
10569165752
10569171917
10569176739
10569181744
10569188580
10569194683
10569200725
10569207012
10569212749
10569219829
10569224895
10569230938
10569237346
10569243511
10569250408
10569256634
10569263530
10569268352
10569275310
10569280010
10569287944
10569293926
10569301677
10569307842
10569314678
10569322429
10569328960
10569335247
10569340129
10569347209
10569352581
10569359661
10569366008
10569371990
10569378826
10569384990
10569393169
10569399883
10569406902
10569414409
10569421794
10569429363
10569435954
10569444194
10569449992
10569458293
10569463298
10569473003
10569478618
10569486003
10569494792
10569500468
10569508830
10569516215
10569521709
10569528850
10569535441
10569543986
10569552104
10569558452
10569566325
10569573344
10569579936
10569587321
10569594218
10569603312
10569610514
10569616374
10569620829
10569630595
10569635295
10569645365
10569653910
10569661967
10569668681
10569676615
10569682902
10569689433
10569698405
10569706095
10569718546
10569727580
10569737162
10569744059
10569749674
10569759501
10569767741
10569776408
10569782206
10569792582
10569800516
10569806010
10569813151
10569820353
10569824808
10569833231
10569841105
10569848978
10569854960
10569862894
10569869303
10569877482
10569883219
10569893351
10569901896
10569907999
10569915873
10569923624
10569929422
10569937845
10569943155
10569953775
10569958963
10569968546
10569975199
10569982401
10569991068
10569998087
10570004129
10570012552
10570018472
10570026590
10570034525
10570042703
10570048746
10570056985
10570062967
10570070108
10570080362
10570085062
10570095315
10570101968
10570109292
10570116128
10570123392
10570132242
10570139200
10570145181
10570153970
10570161905
10570168252
10570176187
10570184610
10570191079
10570196389
10570207437
10570214700
10570222879
10570230081
10570238565
10570245278
10570254068
10570260781
10570269998
10570276528
10570281838
10570292275
10570297036
10570307534
10570314492
10570321328
10570328896
10570338723
10570346108
10570355569
10570362832
10570369851
10570378762
10570385598
10570395730
10570404275
10570411721
10570419961
10570426919
10570434487
10570442116
10570451088
10570457314
10570467690
10570474160
10570482949
10570489724
10570494851
10570508583
10570517067
10570526833
10570538124
10570547219
10570554848
10570563210
10570571694
10570578591
10570589516
10570598976
10570606728
10570615395
10570623634
10570630898
10570638893
10570646462
10570652443
10570662209
10570668373
10570676918
10570682777
10570689430
10570697670
10570704445
10570711708
10570717201
10570727699
10570734291
10570741127
10570746803
10570754738
10570760231
10570767738
10570775306
10570784034
10570792152
10570799110
10570807167
10570816017
10570825111
10570831825
10570840919
10570848182
10570854469
10570863136
10570869178
10570878028
10570884315
10570893165
10570899635
10570904884
10570917396
10570926734
10570935523
10570944007
10570952247
10570959510
10570968238
10570975318
10570983924
10570989295
10570999122
10571006690
10571014869
10571022437
10571031470
10571038795
10571048865
10571055884
10571063147
10571072486
10571080542
10571087500
10571093970
10571103553
10571111914
10571118262
10571126441
10571132605
10571141761
10571151465
10571159400
10571168067
10571174903
10571183631
10571189124
10571198096
10571205359
10571212683
10571218787
10571226843
10571236243
10571243872
10571250037
10571258276
10571266333
10571273596
10571283118
10571289770
10571298682
10571303931
10571318335
10571326575
10571336218
10571344580
10571350927
10571360022
10571368139
10571373205
10571385840
10571391089
10571400244
10571408117
10571417944
10571424597
10571432836
10571439001
10571448156
10571454382
10571461523
10571469580
10571476293
10571484350
10571489294
10571498205
10571505102
10571514196
10571521032
10571528173
10571534887
10571542516
10571551427
10571558141
10571564062
10571573278
10571579198
10571587926
10571594152
10571604406
10571610937
10571619420
10571628393
10571634923
10571641210
10571650915
10571656957
10571664403
10571670690
10571679113
10571685460
10571694127
10571700597
10571708959
10571717870
10571725194
10571731664
10571739843
10571748571
10571756993
10571764623
10571771886
10571778966
10571785375
10571793248
10571802342
10571808690
10571815282
10571823155
10571832188
10571836888
10571846349
10571854832
10571864293
10571870824
10571879613
10571887791
10571894078
10571903355
10571910008
10571921910
10571931798
10571937657
10571946507
10571952000
10571962193
10571967442
10571978001
10571984471
10571991612
10572000340
10572004856
10572012669
10572021153
10572030796
10572039158
10572044895
10572053929
10572061253
10572069493
10572076451
10572086033
10572094517
10572102451
10572110142
10572117649
10572125889
10572134068
10572141636
10572149143
10572156406
10572162205
10572171238
10572177525
10572186130
10572192966
10572204258
10572209751
10572219639
10572226169
10572231479
10572240330
10572245151
10572256138
10572264072
10572271579
10572278171
10572283664
10572291416
10572300632
10572308078
10572316318
10572323886
10572329502
10572334934
10572345127
10572349826
10572358615
10572366672
10572373691
10572380283
10572386386
10572395053
10572403415
10572411350
10572420017
10572425754
10572435397
10572440891
10572449924
10572457797
10572464633
10572473788
10572478854
10572487155
10572494968
10572502414
10572510409
10572517917
10572526217
10572533786
10572540194
10572547213
10572555148
10572563449
10572570285
10572578341
10572584689
10572592196
10572599398
10572605929
10572612704
10572622470
10572630770
10572638156
10572646334
10572652316
10572660067
10572667086
10572676608
10572683688
10572690646
10572698397
10572704379
10572714144
10572720431
10572728060
10572735995
10572743502
10572750948
10572758761
10572766817
10572774874
10572783663
10572795260
10572802950
10572812655
10572819002
10572828524
10572834810
10572844515
10572853121
10572859346
10572866182
10572873385
10572881075
10572889009
10572896273
10572903902
10572910738
10572918978
10572924654
10572932894
10572940767
10572947481
10572956697
10572962557
10572970918
10572977022
10572984102
10572992281
10572999666
10573008577
10573016939
10573023897
10573030794
10573037325
10573044771
10573050630
10573060091
10573067110
10573075899
10573082490
10573089448
10573097383
10573106050
10573113985
10573121736
10573128389
10573137849
10573143403
10573152376
10573160371
10573165498
10573173066
10573180940
10573188935
10573193574
10573203767
10573212434
10573220369
10573227632
10573236604
10573242646
10573248689
10573259004
10573266084
10573273713
10573280183
10573287873
10573294465
10573300691
10573309907
10573317475
10573325105
10573333527
10573340791
10573347199
10573353364
10573364289
10573372895
10573378327
10573386323
10573394013
10573402070
10573412018
10573421540
10573429780
10573437165
10573445954
10573451081
10573459931
10573468049
10573478547
10573485138
10573492402
10573500275
10573506684
10573511689
10573519257
10573528839
10573536530
10573546417
10573553925
10573560639
10573568207
10573574738
10573582245
10573589386
10573597443
10573604157
10573611969
10573619293
10573625458
10573633026
10573641632
10573647797
10573655975
10573663727
10573670502
10573677154
10573684418
10573692230
10573698578
10573708649
10573716339
10573723175
10573729400
10573736053
10573745147
10573750457
10573760223
10573764068
10573773468
10573781585
10573788910
10573797271
10573805328
10573813140
10573817230
10573825958
10573833343
10573840484
10573848602
10573857025
10573864898
10573872955
10573879913
10573887786
10573893401
10573903167
10573910308
10573917144
10573925628
10573931426
10573938995
10573945159
10573955718
10573965118
10573972686
10573980559
10573986236
10573997039
10574005096
10574011748
10574020232
10574025786
10574034148
10574042205
10574049529
10574058318
10574065154
10574076018
10574082427
10574092192
10574096831
10574107573
10574117217
10574125334
10574134734
10574143462
10574153044
10574161467
10574168547
10574177641
10574186369
10574192351
10574199553
10574207243
10574215361
10574221953
10574231352
10574240202
10574246672
10574252776
10574261259
10574269072
10574275420
10574285857
10574292448
10574300505
10574304594
10574316374
10574323637
10574329069
10574338347
10574350004
10574355558
10574363066
10574370146
10574377775
10574385954
10574394865
10574404142
10574412687
10574418486
10574425260
10574433134
10574438566
10574448637
10574457670
10574465299
10574472502
10574478422
10574487882
10574497648
10574504362
10574511137
10574518461
10574526579
10574534208
10574540311
10574547819
10574555326
10574563444
10574569364
10574577238
10574584623
10574591825
10574601652
10574610868
10574618314
10574626615
10574634794
10574642972
10574652189
10574661161
10574666349
10574676419
10574688932
10574695890
10574704007
10574709928
10574720609
10574727933
10574736966
10574745816
10574752591
10574761441
10574768643
10574778165
10574786221
10574795438
10574803128
10574808804
10574819302
10574826016
10574836697
10574844083
10574853787
10574861294
10574868558
10574875455
10574883389
10574892605
10574900235
10574906338
10574916653
10574923245
10574929104
10574936368
10574944790
10574951260
10574959439
10574966275
10574975247
10574981472
10574988003
10574996426
10575003689
10575012966
10575019985
10575026455
10575034146
10575042202
10575050869
10575055691
10575065823
10575072659
10575079495
10575086819
10575092251
10575100918
10575106838
10575115994
10575122890
10575130642
10575138821
10575142849
10575152676
10575161892
10575168484
10575176845
10575184597
10575191006
10575196804
10575208339
10575216335
10575223415
10575231655
10575237758
10575245083
10575250820
10575260219
10575269252
10575277187
10575285610
10575289882
10575299343
10575306240
10575313137
10575320583
10575328212
10575334987
10575341518
10575348781
10575356960
10575364528
10575373439
10575379665
10575389674
10575396388
10575403224
10575411464
10575423488
10575430507
10575440334
10575448512
10575456874
10575464015
10575474330
10575482387
10575490504
10575500758
10575507167
10575514491
10575522853
10575531154
10575537867
10575546657
10575551478
10575560817
10575568690
10575576747
10575585597
10575591822
10575601649
10575610011
10575614833
10575623439
10575629786
10575638941
10575646510
10575653224
10575662318
10575668055
10575678065
10575686183
10575692957
10575700343
10575708338
10575717310
10575721644
10575731287
10575738612
10575745936
10575755884
10575763514
10575769800
10575778406
10575785120
10575793177
10575800440
10575810389
10575816370
10575824427
10575830835
10575838099
10575847132
10575854273
10575863367
10575871302
10575878809
10575885767
10575892542
10575900110
10575906946
10575916590
10575922205
10575929895
10575934168
10575944544
10575950769
10575957849
10575967859
10575973840
10575981165
10575986597
10575996668
10576004175
10576010889
10576018152
10576025781
10576033472
10576040857
10576048303
10576056909
10576067468
10576076501
10576082727
10576088464
10576094568
10576103906
10576113000
10576122033
10576128808
10576136377
10576146997
10576154626
10576163659
10576173242
10576182519
10576191003
10576196130
10576204980
10576213037
10576220666
10576226098
10576236535
10576244775
10576251061
10576258264
10576265344
10576274499
10576283471
10576291222
10576299706
10576306908
10576313683
10576319726
10576329064
10576336327
10576345299
10576351647
10576360741
10576367272
10576373681
10576380273
10576388451
10576395775
10576405358
10576409875
10576418664
10576428185
10576434533
10576441674
10576449120
10576457482
10576464440
10576471886
10576479027
10576486657
10576493859
10576502404
10576508690
10576517906
10576525658
10576533165
10576537316
10576548424
10576558983
10576564964
10576574303
10576579674
10576588585
10576596336
10576603172
10576612206
10576618187
10576626549
10576631859
10576640343
10576647057
10576654015
10576661766
10576668907
10576675865
10576684288
10576691185
10576698814
10576706444
10576716331
10576721641
10576730003
10576738792
10576745567
10576752769
10576759605
10576770225
10576781639
10576790733
10576800865
10576809715
10576820457
10576827781
10576839012
10576845909
10576855369
10576863181
10576869102
10576877342
10576886192
10576893882
10576900108
10576908653
10576917564
10576924888
10576930259
10576940696
10576948569
10576956260
10576966086
10576972434
10576982261
10576986655
10576997825
10577005149
10577013755
10577022178
10577030600
10577038779
10577046409
10577055930
10577064048
10577074057
10577082419
10577089011
10577095908
10577104880
10577112631
10577122946
10577131674
10577141074
10577149375
10577158835
10577168112
10577174887
10577186118
10577195273
10577207541
10577214621
10577227438
10577236533
10577244711
10577253561
10577263754
10577271078
10577279806
10577287802
10577302817
10577310202
10577322409
10577332174
10577343161
10577352194
10577356100
10577370199
10577380575
10577391378
10577401571
10577409017
10577417929
10577424398
10577437155
10577443929
10577457906
10577467977
10577480978
10577492025
10577503011
10577512838
10577523763
10577534200
10577544881
10577553915
10577568929
10577580038
10577594015
10577603231
10577615194
10577622091
10577634298
10577645223
10577656514
10577666951
10577679708
10577691548
10577698995
10577708577
10577721761
10577733785
10577744710
10577756307
10577770528
10577779439
10577787984
10577798055
10577806905
10577818257
10577827657
10577835347
10577842244
10577850545
10577855794
10577865925
10577871602
10577879414
10577885457
10577896138
10577904255
10577910176
10577917439
10577924946
10577932820
10577940693
10577947895
10577956990
10577961506
10577970295
10577974385
10577986592
10577994343
10577999470
10578008259
10578013935
10578023457
10578029988
10578041096
10578048969
10578056904
10578064777
10578071003
10578078449
10578082600
10578094929
10578107563
10578114277
10578122089
10578129719
10578136188
10578143635
10578152912
10578161396
10578166584
10578174824
10578178974
10578190693
10578198444
10578206623
10578215168
10578220600
10578228595
10578232441
10578242633
10578251423
10578256122
10578265461
10578269123
10578278400
10578282795
10578294757
10578303180
10578309223
10578318439
10578322895
10578333148
10578340167
10578347980
10578354694
10578359943
10578368976
10578377826
10578385455
10578393451
10578399066
10578410663
10578416217
10578427325
10578436175
10578445453
10578454547
10578461749
10578472247
10578482013
10578486590
10578496173
10578504413
10578511554
10578519610
10578527423
10578534137
10578541888
10578549395
10578558368
10578565509
10578571734
10578580767
10578588153
10578595172
10578601214
10578610247
10578617999
10578626116
10578633807
10578639422
10578646868
10578653155
10578664996
10578672991
10578678668
10578687823
10578693682
10578702288
10578708636
10578717852
10578725909
10578733355
10578740252
10578747210
10578753435
10578762652
10578771136
10578779070
10578786516
10578794451
10578799883
10578807512
10578813921
10578825945
10578835344
10578844805
10578852739
10578860552
10578868731
10578874102
10578883257
10578889360
10578901018
10578908464
10578917314
10578924639
10578928789
10578939836
10578947466
10578953386
10578963884
10578969804
10578976518
10578986345
10578995744
10579013628
10579022783
10579035844
10579045549
10579057939
10579066240
10579074235
10579081132
10579089006
10579097185
10579104265
10579112871
10579121232
10579131303
10579139726
10579148698
10579156144
10579163407
10579172685
10579178056
10579191606
10579199479
10579206803
10579213944
10579220597
10579226396
10579233842
10579241532
10579247270
10579256303
10579263444
10579277726
10579287003
10579297807
10579306840
10579315934
10579323624
10579335221
10579341202
10579353226
10579363785
10579375809
10579390275
10579396744
10579403275
10579409623
10579415787
10579422257
10579427750
10579434952
10579440995
10579445939
10579452469
10579457596
10579463822
10579470291
10579478287
10579484757
10579491226
10579497757
10579505814
10579513504
10579521073
10579525467
10579535050
10579542313
10579548660
10579554886
10579559708
10579566849
10579572952
10579580521
10579587845
10579594070
10579600967
10579607925
10579612991
10579620682
10579628128
10579630691
10579643204
10579650101
10579655655
10579662613
10579669266
10579675369
10579684341
10579690811
10579700515
10579707290
10579713943
10579719436
10579727615
10579733291
10579741714
10579749099
10579756179
10579763870
10579770462
10579777969
10579784622
10579792129
10579796585
10579806228
10579810562
10579819351
10579825881
10579834060
10579845718
10579855544
10579863906
10579871291
10579880569
10579887161
10579896255
10579902053
10579911941
10579916579
10579926345
10579934951
10579941115
10579949294
10579955398
10579962539
10579969253
10579976943
10579983657
10579994765
10580002578
10580008193
10580015456
10580025588
10580032668
10580040480
10580047194
10580054213
10580060927
10580069106
10580076125
10580084426
10580091262
10580099562
10580107070
10580115920
10580122267
10580131850
10580136977
10580147536
10580154799
10580163283
10580172194
10580178786
10580187697
10580193556
10580202101
10580210585
10580218336
10580224562
10580235853
10580241102
10580249953
10580258070
10580265822
10580272536
10580278334
10580287428
10580294508
10580302565
10580309218
10580318861
10580324476
10580335768
10580341627
10580354567
10580360609
10580372877
10580378736
10580390333
10580395887
10580406324
10580417982
10580422804
10580439832
10580444410
10580460462
10580467359
10580478346
10580487562
10580491773
10580504530
10580513929
10580527784
10580535169
10580545972
10580554822
10580563978
10580575635
10580585218
10580595228
10580602735
10580615613
10580625989
10580635511
10580643995
10580653882
10580662305
10580669202
10580680799
10580692456
10580708264
10580723706
10580733472
10580741651
10580754834
10580763928
10580777844
10580789929
10580809094
10580816846
10580831006
10580837781
10580849682
10580859631
10580867566
10580880627
10580891675
10580903210
10580913037
10580920788
10580932446
10580943432
10580953686
10580963757
10580971508
10580983715
10580994335
10581004223
10581014355
10581025036
10581034374
10581044628
10581056591
10581062756
10581074474
10581084057
10581091137
10581105663
10581115734
10581125561
10581134838
10581142101
10581152904
10581161938
10581172619
10581186046
10581196239
10581206432
10581217785
10581226390
10581236400
10581245861
10581258312
10581269542
10581278759
10581288768
10581299632
10581311229
10581323070
10581332836
10581342784
10581354503
10581364330
10581375499
10581387218
10581397594
10581409434
10581418773
10581425853
10581437450
10581446788
10581456859
10581466868
10581478770
10581488719
10581494761
10581507579
10581517161
10581524302
10581536448
10581546763
10581556041
10581568492
10581577891
10581587474
10581595042
10581607615
10581616953
10581629771
10581639414
10581646616
10581657481
10581667002
10581679453
10581688975
10581699290
10581708933
10581719553
10581730967
10581740488
10581750437
10581759714
10581766916
10581778818
10581788096
10581799509
10581812021
10581821970
10581831491
10581842173
10581851389
10581860727
10581873484
10581883066
10581890756
10581900827
10581910349
10581921640
10581931101
10581940195
10581953928
10581966379
10581976144
10581988351
10581998422
10582008005
10582015695
10582029794
10582035959
10582047800
10582057382
10582069223
10582078500
10582090341
10582098886
10582108712
10582118600
10582127389
10582136178
10582144906
10582154428
10582165048
10582174508
10582184701
10582193673
10582204110
10582212411
10582221322
10582228890
10582236215
10582246224
10582253243
10582262154
10582268319
10582276315
10582284432
10582290963
10582299203
10582303963
10582313668
10582318612
10582327645
10582336800
10582342965
10582351937
10582359078
10582365304
10582373604
10582382088
10582390023
10582396309
10582405220
10582411263
10582419136
10582425423
10582432259
10582440438
10582449227
10582458687
10582465645
10582472969
10582479927
10582488594
10582494759
10582504341
10582510506
10582518929
10582526985
10582534004
10582542549
10582550484
10582557625
10582562813
10582574593
10582579536
10582589424
10582596504
10582604317
10582611763
10582620430
10582627449
10582634102
10582642464
10582649849
10582660530
10582667305
10582673469
10582682869
10582688972
10582698494
10582704902
10582713386
10582719490
10582728157
10582734321
10582741401
10582749153
10582756355
10582764534
10582773628
10582783882
10582788581
10582797248
10582806343
10582812507
10582818672
10582827155
10582835578
10582843391
10582851753
10582858772
10582867378
10582872260
10582881660
10582890388
10582898139
10582904975
10582918769
10582925361
10582934516
10582943671
10582949958
10582958564
10582964728
10582973639
10582979987
10582988715
10582994880
10583001716
10583010627
10583017463
10583025031
10583032050
10583040168
10583046393
10583055365
10583061591
10583069892
10583075995
10583085333
10583091620
10583096381
10583107672
10583112677
10583122931
10583129706
10583136115
10583144904
10583151007
10583160040
10583167303
10583173346
10583180853
10583189398
10583192328
10583204047
10583208746
10583219061
10583223883
10583233343
10583242132
10583248419
10583254645
10583263983
10583270086
10583278814
10583284857
10583295172
10583301214
10583310309
10583319037
10583322393
10583335821
10583340826
10583350836
10583355902
10583366094
10583373052
10583381780
10583388738
10583395269
10583404180
10583410711
10583418890
10583421880
10583433416
10583441778
10583448003
10583456609
10583462774
10583469549
10583477666
10583487737
10583493963
10583500738
10583508306
10583517522
10583523687
10583530035
10583539861
10583546209
10583555059
10583561101
10583571172
10583577459
10583586431
10583593084
10583602239
10583609014
10583616338
10583624578
10583631231
10583640142
10583647283
10583658879
10583666204
10583676091
10583683293
10583693486
10583700566
10583707402
10583714787
10583724431
10583732793
10583740300
10583748906
10583755193
10583764104
10583770390
10583779362
10583787602
10583793828
10583802312
10583807988
10583817082
10583824895
10583833256
10583838078
10583847966
10583855046
10583862431
10583868474
10583876347
10583884648
10583891484
10583900029
10583906315
10583915043
10583921391
10583929509
10583934269
10583944706
10583952824
10583961003
10583969181
10583975407
10583982426
10583990483
10583997441
10584004276
10584013554
10584019230
10584027592
10584035343
10584041630
10584050053
10584056400
10584063419
10584071232
10584077885
10584087711
10584094486
10584100590
10584106876
10584115543
10584123722
10584130131
10584138370
10584147648
10584156070
10584163395
10584171756
10584177982
10584186466
10584191349
10584200687
10584207523
10584215335
10584221378
10584230716
10584237003
10584245670
10584252384
10584261234
10584268009
10584277225
10584285831
10584291080
10584301517
10584309451
10584315555
10584322391
10584331729
10584338931
10584347476
10584354495
10584362308
10584368533
10584377139
10584385318
10584392337
10584401004
10584406985
10584415286
10584420230
10584430423
10584437137
10584445865
10584453555
10584461734
10584468814
10584477908
10584488040
10584499942
10584506289
10584516360
10584524356
10584532107
10584539065
10584552432
10584560061
10584569522
10584577090
10584585024
10584592166
10584600405
10584608950
10584615054
10584619875
10584629885
10584636782
10584644961
10584651247
10584659914
10584666750
10584675967
10584682314
10584690676
10584698977
10584706118
10584712466
10584720705
10584728823
10584733584
10584744143
10584749087
10584758486
10584765383
10584771792
10584780642
10584786867
10584794985
10584801821
10584809694
10584817202
10584823732
10584831911
10584840334
10584845156
10584854738
10584864076
10584870729
10584877809
10584886659
10584894228
10584902223
10584908571
10584917482
10584923708
10584932436
10584941530
10584949648
10584955934
10584964357
10584970583
10584975404
10584986146
10584994142
10585004091
10585009035
10585019166
10585026857
10585034852
10585041932
10585048524
10585056825
10585063905
10585071718
10585079713
10585087281
10585095094
10585100770
10585108400
10585114747
10585123048
10585130922
10585138673
10585144776
10585152467
10585160401
10585168397
10585174378
10585183473
10585191895
10585202271
10585208741
10585217225
10585223939
10585231568
10585238160
10585247559
10585254945
10585263001
10585270936
10585280030
10585287171
10585297120
10585305909
10585314210
10585322938
10585329896
10585336060
10585344056
10585353089
10585358521
10585369263
10585376404
10585384156
10585390870
10585399048
10585405213
10585412903
10585421326
10585428162
10585436402
10585444092
10585452210
10585458618
10585466919
10585471863
10585481812
10585489014
10585496277
10585502381
10585540039
10585547180
10585556091
10585562683
10585570740
10585578064
10585585571
10585592346
10585600830
10585607056
10585614197
10585622558
10585630005
10585638916
10585646423
10585654480
10585660888
10585667175
10585673950
10585683654
10585691162
10585700805
10585708130
10585718139
10585726501
10585740051
10585749511
10585759643
10585769287
10585783569
10585792724
10585806274
10585816589
10585824035
10585838012
10585845886
10585857177
10585866759
10585877929
10585888122
10585895690
10585909972
10585919799
10585931335
10585941283
10585948729
10585958556
10585968566
10585979430
10585992186
10585996703
10586009520
10586019408
10586030150
10586039427
10586049376
10586061278
10586068419
10586083617
10586090148
10586101073
10586110350
10586117308
10586128600
10586137633
10586150999
10586161009
10586173766
10586187071
10586191588
10586204527
10586214476
10586223814
10586233275
10586241697
10586252867
10586263670
10586278929
10586293455
10586307859
10586320372
10586331236
10586339781
10586354063
10586365599
10586385679
10586389707
10586406065
10586417783
10586430662
10586437193
10586448240
10586458433
10586469358
10586480283
10586490232
10586494810
10586513303
10586521299
10586530820
10586540098
10586551938
10586561460
10586568784
10586582395
10586593381
10586603147
10586611936
10586621030
10586630307
10586637448
10586648801
10586658017
10586671811
10586681699
10586693356
10586703427
10586710446
10586722897
10586732602
10586740353
10586752072
10586763242
10586776425
10586786069
10586796689
10586805966
10586812924
10586824338
10586834042
10586844113
10586852780
10586859311
10586872738
10586883481
10586893429
10586902768
10586913266
10586922299
10586929562
10586939694
10586948727
10586956051
10586972592
10586980343
10586992245
10587002255
10587009640
10587019100
10587026119
10587039669
10587050045
10587062130
10587072262
10587083492
10587092647
10587100094
10587116024
10587124019
10587139278
10587146053
10587158443
10587168270
10587176082
10587189510
10587200496
10587209346
10587222713
10587227535
10587244747
10587251338
10587263545
10587277034
10587281429
10587296687
10587307735
10587318477
10587329585
10587334285
10587350398
10587357600
10587368587
10587378657
10587389949
10587400142
10587411494
10587421138
10587431575
10587443355
10587453425
10587464595
10587475154
10587484980
10587496577
10587506648
10587519587
10587530329
10587542109
10587554072
10587565913
10587574580
10587590754
10587598139
10587611689
10587621821
10587629511
10587640803
10587651789
10587661005
10587673212
10587682429
10587691645
10587698237
10587712702
10587722468
10587730341
10587738886
10587748530
10587757074
10587766596
10587778254
10587783991
10587794306
10587805658
10587815241
10587823847
10587831232
10587842584
10587850702
10587860895
10587868158
10587873956
10587886102
10587891351
10587901483
10587906305
10587916071
10587926263
10587934381
10587939386
10587948541
10587955621
10587964349
10587971185
10587977716
10587984186
10587993158
10588002374
10588009881
10588015985
10588024652
10588030939
10588038629
10588046991
10588051874
10588062249
10588067498
10588077325
10588084161
10588090753
10588097161
10588105462
10588113519
10588120599
10588129083
10588136163
10588144403
10588149224
10588159844
10588165032
10588173760
10588180596
10588189263
10588196099
10588204400
10588210748
10588218072
10588226434
10588233758
10588242181
10588250603
10588258904
10588265923
10588274102
10588279839
10588289056
10588293877
10588303765
10588310662
10588317864
10588324944
10588333306
10588342461
10588349480
10588355523
10588366143
10588374077
10588384209
10588390191
10588399285
10588404961
10588410271
10588420342
10588425164
10588435112
10588439995
10588452141
10588460503
10588470391
10588475823
10588487175
10588492180
10588502373
10588511040
10588519524
10588527824
10588535454
10588543633
10588551567
10588558708
10588566948
10588573845
10588581718
10588588920
10588595207
10588603203
10588611198
10588618156
10588626579
10588631401
10588639763
10588648369
10588658317
10588663322
10588672294
10588681144
10588688835
10588695610
10588702873
10588711906
10588719291
10588725578
10588733024
10588741142
10588748161
10588756339
10588764884
10588771110
10588779838
10588785880
10588792960
10588801200
10588808891
10588817680
10588824699
10588832816
10588841972
10588851249
10588858085
10588863578
10588872916
10588880485
10588889030
10588898673
10588906425
10588913383
10588922355
10588929191
10588936759
10588945670
10588950919
10588963065
10588968558
10588979667
10588984610
10588994559
10589002188
10589010428
10589017386
10589027335
10589034842
10589045401
10589052481
10589057730
10589068717
10589074210
10589082999
10589090567
10589099661
10589106375
10589115347
10589124747
10589133536
10589140005
10589148062
10589154654
10589164053
10589171133
10589178763
10589187125
10589194083
10589203116
10589212332
10589220877
10589226980
10589232718
10589241995
10589246939
10589256949
10589263723
10589272146
10589279043
10589288565
10589297110
10589305960
10589313894
10589327688
10589334829
10589343313
10589350820
10589359609
10589366445
10589376028
10589382925
10589391103
10589398794
10589405630
10589414358
10589421255
10589428884
10589435171
10589443655
10589452627
10589460012
10589466360
10589474233
10589482290
10589488515
10589496816
10589501638
10589512136
10589517080
10589526113
10589532949
10589541066
10589549856
10589557058
10589563222
10589571340
10589579702
10589586721
10589594899
10589601735
10589610219
10589616506
10589625478
10589630788
10589642324
10589647695
10589668019
10589683400
10589695729
10589704335
10589711598
10589719472
10589728200
10589734486
10589743581
10589752980
10589761098
10589767873
10589777638
10589787892
10589799855
10589809865
10589815846
10589824574
10589832936
10589837636
10589847096
10589854786
10589865468
10589870350
10589880055
10589896595
10589921925
10589943714
10589970753
10589994679
10590015980
10590038441
10590058704
10590081531
10590106434
10590130726
10590158863
10590183033
10590191700
10590197742
10590210132
10590217334
10590227466
10590234119
10590243518
10590250598
10590256885
10590271594
10590279651
10590290393
10590298816
10590305103
10590314807
10590323291
10590334521
10590339709
10590351611
10590367847
10590375842
10590385547
10590395129
10590404834
10590412707
10590419604
10590428210
10590434985
10590441638
10590448840
10590463366
10590469836
10590478320
10590486682
10590492785
10590501757
10590508349
10590518237
10590524707
10590533496
10590542407
10590565844
10590587634
10590609362
10590627001
10590652636
10590674303
10590697191
10590720751
10590742601
10590765734
10590788439
10590800829
10590809374
10590819017
10590828173
10590838121
10590845079
10590855089
10590863634
10590873949
10590883653
10590904527
10590913744
10590922899
10590936632
10590944261
10590951829
10590959642
10590967210
10590975633
10590989610
10591002000
10591010362
10591023729
10591032090
10591039659
10591047776
10591056627
10591065049
10591073533
10591080186
10591089463
10591102403
10591109544
10591119065
10591126817
10591134996
10591143418
10591151292
10591157578
10591164109
10591174790
10591180039
10591190720
10591199448
10591208909
10591229722
10591248582
10591273057
10591296006
10591318650
10591345078
10591368943
10591392258
10591413559
10591435593
10591462570
10591489060
10591499313
10591509750
10591517380
10591525986
10591536118
10591544846
10591551681
10591557724
10591572372
10591585800
10591595383
10591605087
10591612961
10591623642
10591636154
10591647140
10591656295
10591664352
10591670700
10591677902
10591686935
10591697189
10591708663
10591715438
10591723861
10591728927
10591739974
10591744735
10591754562
10591762130
10591769027
10591775924
10591786178
10591799606
10591806930
10591814254
10591823653
10591830611
10591839461
10591847518
10591854171
10591863143
10591869857
10591875106
10591904464
10591929366
10591953475
10591975753
10592001631
10592019393
10592031600
10592043440
10592053206
10592063460
10592075667
10592087264
10592100142
10592108199
10592120406
10592127852
10592139143
10592149580
10592160689
10592168745
10592180037
10592187788
10592194258
10592204207
10592212080
10592223005
10592227949
10592237410
10592243452
10592251204
10592259748
10592269514
10592281965
10592292707
10592301374
10592309614
10592317121
10592325300
10592331282
10592342817
10592350202
10592359052
10592369367
10592378950
10592386579
10592395857
10592405317
10592413068
10592421064
10592427717
10592437360
10592444135
10592452985
10592462629
10592470746
10592479597
10592487104
10592493268
10592498273
10592508954
10592513776
10592523542
10592530561
10592538556
10592547406
10592553510
10592559613
10592569623
10592575849
10592583234
10592591352
10592597760
10592606183
10592611066
10592621869
10592626630
10592636762
10592643781
10592650434
10592659284
10592666364
10592675214
10592681561
10592689801
10592697797
10592703900
10592712018
10592720197
10592727338
10592735394
10592740460
10592748639
10592755414
10592764691
10592771710
10592778607
10592784955
10592793927
10592800030
10592808453
10592816754
10592824200
10592830304
10592838177
10592846478
10592851422
10592860638
10592867474
10592875775
10592882183
10592891217
10592897442
10592905682
10592911907
10592921002
10592927654
10592935650
10592944073
10592949200
10592958477
10592965313
10592974102
10592981670
10592989422
10592996441
10593006512
10593014263
10593021038
10593027874
10593036602
10593045025
10593054363
10593060833
10593068279
10593076824
10593082866
10593092327
10593098980
10593105022
10593115703
10593122661
10593132793
10593139629
10593147014
10593156902
10593164653
10593171367
10593181438
10593188335
10593196514
10593206584
10593212627
10593223186
10593230144
10593238811
10593245830
10593261760
10593271709
10593279765
10593288310
10593297282
10593304118
10593310405
10593320232
10593326640
10593335002
10593343303
10593349589
10593357768
10593365825
10593371989
10593380412
10593386821
10593393840
10593403178
10593409953
10593416667
10593425700
10593432231
10593438701
10593447856
10593456096
10593462870
10593471049
10593479655
10593485942
10593494242
10593500468
10593507548
10593517131
10593524150
10593531840
10593538615
10593546183
10593552470
10593561564
10593567790
10593576701
10593585001
10593591044
10593599650
10593604472
10593614176
10593619791
10593629801
10593636576
10593644755
10593651469
10593659464
10593665751
10593674662
10593680826
10593689371
10593697672
10593704203
10593712565
10593717386
10593727640
10593732706
10593742594
10593749491
10593757242
10593764505
10593772745
10593781656
10593788248
10593794474
10593803079
10593811258
10593819559
10593826273
10593831583
10593843057
10593848367
10593859171
10593866068
10593873392
10593882181
10593889505
10593895731
10593904153
10593913065
10593920694
10593927286
10593936136
10593942178
10593946939
10593956277
10593964151
10593974466
10593979471
10593990396
10593995584
10594005899
10594011880
10594022928
10594028299
10594041726
10594046670
10594055703
10594064676
10594072305
10594080850
10594092446
10594098245
10594108254
10594115335
10594123940
10594130044
10594138650
10594145242
10594152810
10594160867
10594169839
10594178384
10594185708
10594193826
10594201638
10594208047
10594212868
10594223794
10594231728
10594238259
10594245156
10594253884
10594260964
10594268349
10594274575
10594282876
10594291176
10594297524
10594305947
10594312844
10594321267
10594329506
10594335854
10594340798
10594351479
10594358986
10594366677
10594375649
10594382851
10594389138
10594398110
10594404213
10594412819
10594419228
10594427834
10594436135
10594442055
10594449623
10594456581
10594464943
10594471901
10594480690
10594487648
10594495766
10594501930
10594510536
10594516762
10594524696
10594532814
10594539894
10594548012
10594553688
10594562965
10594567726
10594577125
10594584144
10594593727
10594600563
10594607765
10594615333
10594625343
10594631996
10594641945
10594648658
10594655861
10594664283
10594671363
10594679542
10594684608
10594697486
10594700355
10594712440
10594717262
10594727760
10594732582
10594742652
10594749610
10594758643
10594765724
10594773658
10594779823
10594788123
10594796180
10594803138
10594811439
10594818275
10594826453
10594833289
10594844031
10594851050
10594861793
10594866736
10594875342
10594882545
10594894874
10594900489
10594909705
10594919532
10594941260
10594947425
10594957007
10594962867
10594970923
10594979163
10594985511
10594993567
10594999549
10595008643
10595013404
10595022559
10595029578
10595037268
10595046057
10595053198
10595059424
10595066809
10595075415
10595078223
10595091406
10595094092
10595105872
10595113989
10595120093
10595127051
10595135779
10595143408
10595150854
10595159765
10595167334
10595174292
10595180517
10595188757
10595196936
10595203222
10595212744
10595218969
10595227514
10595234167
10595239111
10595249060
10595257666
10595263952
10595270788
10595278479
10595287268
10595294348
10595300512
10595308508
10595316686
10595324255
10595330297
10595339025
10595345983
10595351232
10595363073
10595370825
10595378454
10595385229
10595394628
10595401586
10595409765
10595418249
10595426427
10595433324
10595441991
10595448888
10595457494
10595464452
10595472204
10595481237
10595488744
10595496373
10595503026
10595512731
10595520116
10595528661
10595537816
10595546300
10595555333
10595558324
10595571630
10595578893
10595587499
10595595738
10595602574
10595610143
10595618260
10595625218
10595632665
10595642613
10595649144
10595655858
10595665746
10595676305
10595687596
10595694493
10595703160
10595710423
10595713231
10595724644
10595729710
10595741490
10595747349
10595757847
10595765233
10595772435
10595781224
10595787205
10595795445
10595802281
10595810399
10595819249
10595825474
10595830479
10595840977
10595845799
10595856358
10595861302
10595870945
10595877903
10595885533
10595894444
10595901280
10595907688
10595917210
10595923618
10595931126
10595939304
10595947239
10595958408
10595968357
10595980137
10595987095
10595999729
10596009678
10596019871
10596027073
10596034885
10596043918
10596051670
10596058445
10596066807
10596073032
10596081699
10596088352
10596097568
10596104160
10596112400
10596121494
10596126743
10596136997
10596142246
10596153110
10596160801
10596169345
10596176242
10596184299
10596194370
10596203342
10596209934
10596214694
10596225803
10596230869
10596241123
10596245883
10596255222
10596262485
10596270175
10596276401
10596284946
10596293307
10596301364
10596307468
10596315829
10596324130
10596331027
10596337985
10596345676
10596354648
10596362155
10596372531
10596380160
10596387484
10596394259
10596402804
10596410922
10596413669
10596425570
10596430636
10596442233
10596446994
10596457736
10596462680
10596472933
10596480563
10596487643
10596494479
10596502902
10596508883
10596516268
10596520602
10596526400
10596532931
10596536837
10596543368
10596546603
10596556368
10596565890
10596569796
10596576876
10596581515
10596587374
10596591769
10596597384
10596601839
10596607943
10596613070
10596620760
10596623995
10596632113
10596636996
10596644198
10596648348
10596655062
10596657992
10596664583
10596667696
10596674044
10596678438
10596685885
10596688936
10596694979
10596697970
10596704805
10596707735
10596714937
10596717928
10596727266
10596730745
10596736422
10596741121
10596746675
10596751497
10596757906
10596762728
10596768648
10596775057
10596780245
10596784334
10596790132
10596794344
10596800020
10596805452
10596811312
10596817476
10596822908
10596827242
10596830415
10596838106
10596842317
10596848238
10596851717
10596859712
10596865389
10596870882
10596876314
10596881685
10596885896
10596891267
10596897432
10596901155
10596908235
10596912996
10596920320
10596923677
10596931428
10596935152
10596943880
10596949373
10596954744
10596959810
10596965059
10596969942
10596975374
10596977144
10596985261
10596991975
10596996248
10597003267
10597007966
10597013093
10597017488
10597022432
10597028230
10597034455
10597037629
10597045015
10597048921
10597055879
10597061189
10597067598
10597074067
10597079988
10597085115
10597092195
10597095918
10597104157
10597108003
10597117280
10597123750
10597128083
10597133393
10597138764
10597142121
10597148286
10597153047
10597160493
10597165192
10597170258
10597176301
10597180451
10597186127
10597191621
10597195832
10597200776
10597206513
10597212739
10597216889
10597220368
10597228242
10597231415
10597237519
10597242280
10597251191
10597254609
10597261201
10597264618
10597272980
10597276581
10597283783
10597286957
10597295441
10597300751
10597307099
10597311371
10597317963
10597321808
10597327912
10597334565
10597340424
10597348053
10597352997
10597357453
10597363617
10597369965
10597375275
10597379914
10597386322
10597392975
10597396637
10597402924
10597408234
10597413849
10597418427
10597424347
10597430451
10597437592
10597442047
10597448639
10597453461
10597460236
10597465363
10597470917
10597476898
10597482513
10597488251
10597494537
10597499176
10597504791
10597510345
10597515350
10597520843
10597523956
10597532440
10597538055
10597544159
10597546417
10597554535
10597557648
10597564850
10597568573
10597577484
10597581268
10597588043
10597593414
10597599884
10597605133
10597610199
10597614715
10597622039
10597626556
10597636077
10597642059
10597648468
10597654205
10597659942
10597664642
10597672821
10597678070
10597685089
10597692230
10597697235
10597705657
10597710296
10597715972
10597720794
10597726531
10597731048
10597736724
10597741607
10597747222
10597752593
10597758209
10597763580
10597768707
10597775848
10597779876
10597784942
10597790313
10597793731
10597801421
10597804961
10597813262
10597820159
10597824615
10597827849
10597836211
10597839751
10597846892
10597852263
10597860015
10597863860
10597871489
10597876677
10597881377
10597888091
10597892791
10597898955
10597906829
10597911834
10597918181
10597924407
10597929351
10597935576
10597937590
10597945830
10597949553
10597957793
10597963835
10597968657
10597973662
10597980193
10597984526
10597990142
10597996428
10598003508
10598008452
10598015105
10598019866
10598025969
10598030608
10598035918
10598041533
10598046782
10598053313
10598058379
10598064726
10598069792
10598076140
10598080595
10598085173
10598091582
10598097746
10598102873
10598108916
10598113859
10598119902
10598124907
10598130278
10598135466
10598142241
10598149321
10598153715
10598160734
10598167387
10598173735
10598178129
10598185087
10598190092
10598197966
10598202971
10598207487
10598213224
10598215117
10598225370
10598227446
10598238310
10598243254
10598250883
10598254362
10598260893
10598266508
10598272856
10598280302
10598286039
10598293119
10598298734
10598302885
10598308317
10598313810
10598318998
10598323148
10598328886
10598336088
10598341947
10598346220
10598351652
10598355741
10598360563
10598366972
10598371610
10598376981
10598381803
10598388090
10598392728
10598398893
10598402921
10598408781
10598412931
10598419523
10598425931
10598431425
10598436124
10598442350
10598446866
10598452787
10598457303
10598462369
10598469571
10598474454
10598481107
10598485746
10598492276
10598497037
10598502469
10598508634
10598512235
10598520719
10598524747
10598532010
10598537137
10598542325
10598549100
10598553556
10598558072
10598565152
10598571134
10598576200
10598582486
10598587125
10598592557
10598598538
10598605557
10598610745
10598618497
10598623868
10598629971
10598634549
10598641202
10598647488
10598653226
10598658963
10598665799
10598670499
10598678128
10598682767
10598686490
10598693997
10598699124
10598704495
10598709256
10598716214
10598720853
10598727872
10598732632
10598737759
10598743985
10598747647
10598755154
10598758694
10598767544
10598773587
10598779080
10598785306
10598790677
10598795376
10598801785
10598807888
10598813382
10598819973
10598825528
10598833889
10598840359
10598844937
10598850979
10598856716
10598863858
10598868252
10598874905
10598881741
10598887295
10598891995
10598897488
10598902859
10598906338
10598913540
10598917935
10598922817
10598926174
10598933254
10598938686
10598944302
10598946194
10598955898
10598961453
10598967312
10598973110
10598977383
10598983364
10598987637
10598993008
10598999538
10599005032
10599009670
10599014980
10599020595
10599025173
10599030788
10599035366
10599043056
10599048000
10599053554
10599057766
10599063869
10599068264
10599073330
10599078945
10599085537
10599092251
10599097927
10599102626
10599106228
10599112880
10599118068
10599124721
10599130092
10599136013
10599141567
10599148647
10599154323
10599160366
10599166042
10599173244
10599177394
10599182704
10599190517
10599196254
10599202175
10599206447
10599212001
10599215480
10599222072
10599226650
10599232021
10599237148
10599242702
10599247463
10599253932
10599258388
10599264491
10599269313
10599277370
10599282130
10599287929
10599294154
10599298854
10599304896
10599308681
10599314479
10599319545
10599326381
10599331935
10599338283
10599343532
10599350612
10599356776
10599365443
10599372218
10599380214
10599386744
10599394618
10599401088
10599406947
10599416713
10599421778
10599430079
10599438502
10599441798
10599454920
10599461390
10599472193
10599476527
10599485072
10599491908
10599498133
10599508936
10599513941
10599523524
10599531519
10599540858
10599547266
10599552271
10599562281
10599568446
10599576746
10599583338
10599588221
10599596827
10599603785
10599611292
10599618311
10599624964
10599630579
10599636072
10599644251
10599649134
10599657435
10599664698
10599672754
10599679407
10599684351
10599694544
10599698694
10599708216
10599714441
10599719324
10599728296
10599735559
10599742884
10599749659
10599755274
10599761194
10599765589
10599775232
10599782678
10599791162
10599798670
10599807703
10599814417
10599819849
10599827478
10599834131
10599842798
10599849939
10599855127
10599866968
10599871851
10599880090
10599886865
10599892114
10599902551
10599909997
10599917200
10599924341
10599932519
10599940759
10599946191
10599954980
10599961145
10599968591
10599974939
10599983056
10599989953
10599997766
10600004174
10600011499
10600020715
10600027063
10600032312
10600041894
10600046106
10600054650
10600060937
10600066064
10600077966
10600086022
10600093774
10600101342
10600109521
10600116235
10600121545
10600131555
10600139184
10600147118
10600154076
10600161828
10600168481
10600173852
10600182946
10600189599
10600197594
10600204735
10600209862
10600219689
10600225304
10600233117
10600241723
10600244347
10600254601
10600262230
10600267785
10600274560
10600279625
10600290429
10600295678
10600310997
10600318016
10600326012
10600332054
10600342125
10600346581
10600354637
10600361656
10600372826
10600381554
10600391869
10600400047
10600407616
10600414940
10600421166
10600430870
10600434654
10600444176
10600451988
10600459190
10600466209
10600473534
10600480247
10600488365
10600495201
10600502891
10600512474
10600519188
10600524559
10600533531
10600540733
10600548424
10600554466
10600559471
10600569359
10600577049
10600583214
10600589744
10600595848
10600602012
10600609642
10600617149
10600624351
10600627403
10600640953
10600646812
10600656333
10600663963
10600670066
10600676780
10600682151
10600690818
10600697654
10600707237
10600713645
10600722068
10600729087
10600736839
10600743003
10600752219
10600755271
10600764610
10600772117
10600779319
10600790305
10600796958
10600803794
10600809287
10600818625
10600823081
10600832603
10600839744
10600844993
10600854514
10600861960
10600872641
10600879294
10600886374
10600893515
10600897971
10600907615
10600914695
10600917685
10600928611
10600936789
10600944358
10600951132
10600958274
10600965293
10600973410
10600982932
10600991110
10600996970
10601008444
10601011862
10601021811
10601029501
10601037070
10601043723
10601051352
10601058371
10601063620
10601072409
10601082663
10601089743
10601096396
10601099570
10601109762
10601117941
10601125265
10601132406
10601137594
10601148092
10601156149
10601163107
10601169760
10601177328
10601184530
10601189718
10601196432
10601208212
10601211813
10601223898
10601234030
10601242208
10601246969
10601255514
10601262594
10601267843
10601277365
10601285787
10601293356
10601301534
10601312155
10601318014
10601322897
10601331442
10601339132
10601345113
10601351217
10601358724
10601365865
10601371481
10601380819
10601388143
10601394369
10601400594
10601407186
10601413656
10601420492
10601427205
10601436483
10601443136
10601449911
10601455587
10601464498
10601471883
10601477132
10601485921
10601488973
10601501729
10601510335
10601517659
10601524678
10601527730
10601539571
10601544820
10601551839
10601561116
10601564290
10601577779
10601581197
10601591023
10601598897
10601606648
10601613484
10601619588
10601627644
10601634297
10601643452
10601651936
10601660359
10601667500
10601671956
10601681294
10601688191
10601696309
10601703328
10601708028
10601717610
10601724690
10601733479
10601739949
10601744893
10601753743
10601758259
10601767048
10601774067
10601779316
10601792134
10601798420
10601805439
10601812214
10601820088
10601826985
10601834858
10601842610
10601849507
10601857685
10601865681
10601871113
10601881489
10601885700
10601894367
10601900959
10601905964
10601914875
10601922810
10601930744
10601937214
10601946186
10601953693
10601956623
10601966328
10601973713
10601980305
10601987263
10601993854
10602006122
10602013813
10602021931
10602026264
10602035480
10602042072
10602047321
10602055011
10602062153
10602069050
10602076435
10602085651
10602092243
10602098713
10602109211
10602114154
10602122821
10602132221
10602139911
10602147602
10602153278
10602162006
10602168537
10602179340
10602187152
10602194110
10602200702
10602207355
10602214069
10602222553
10602229266
10602235187
10602240863
10602248615
10602253253
10602260516
10602266559
10602273578
10602283465
10602286456
10602295245
10602301898
10602309039
10602315021
10602322772
10602328937
10602334674
10602344378
10602349322
10602356891
10602363482
10602369586
10602377337
10602383136
10602389239
10602396075
10602405780
10602412860
10602418109
10602426409
10602434222
10602440936
10602449603
10602457049
10602463214
10602475909
10602481463
10602490557
10602498309
10602507647
10602515337
10602520953
10602529986
10602537249
10602546832
10602555437
10602564165
10602571184
10602576861
10602585650
10602592547
10602595537
10602605669
10602613482
10602623614
10602630694
10602638079
10602644915
10602650469
10602660662
10602665239
10602673479
10602680315
10602685747
10602695818
10602704302
10602711687
10602718584
10602721636
10602733599
10602738359
10602747148
10602757402
10602763933
10602772722
10602782549
10602789202
10602793840
10602803056
10602809831
10602815752
10602824175
10602831010
10602839433
10602846696
10602852739
10602862871
10602868608
10602876848
10602883623
10602891435
10602898271
10602905961
10602913774
10602920793
10602929399
10602937333
10602940446
10602952409
10602958452
10602967363
10602977372
10602985063
10602996049
10603003434
10603011308
10603016984
10603024919
10603032182
10603041215
10603050309
10603056291
10603068070
10603073380
10603083024
10603089127
10603097550
10603102494
10603110551
10603118363
10603124833
10603132096
10603138993
10603146378
10603153336
10603159684
10603166337
10603176102
10603182877
10603191910
10603197343
10603204911
10603213334
10603222489
10603229691
10603236954
10603242936
10603245499
10603257340
10603262406
10603270096
10603276871
10603284501
10603290970
10603297135
10603304093
10603311600
10603318863
10603325821
10603335282
10603341690
10603346756
10603356156
10603363297
10603371048
10603377945
10603381119
10603395706
10603402969
10603408585
10603415543
10603420853
10603429337
10603432144
10603441971
10603451248
10603460403
10603464859
10603473892
10603479996
10603486893
10603493240
10603500259
10603508499
10603514969
10603521438
10603531204
10603537552
10603543899
10603551162
10603556717
10603565323
10603572403
10603578750
10603584365
10603594497
10603601577
10603611892
10603617752
10603625686
10603632095
10603637039
10603645523
10603651809
10603659988
10603666824
10603672378
10603680740
10603687820
10603694656
10603701370
10603708267
10603714858
10603722121
10603732558
10603739944
10603748061
10603756606
10603763808
10603770522
10603775405
10603784377
10603790603
10603793899
10603805434
10603811233
10603819716
10603824355
10603835402
10603843825
10603849990
10603860366
10603865737
10603875563
10603882582
10603894851
10603897414
10603911269
10603917983
10603925917
10603932387
10603940077
10603946547
10603951735
10603960219
10603967238
10603974379
10603980544
10603986891
10603995070
10603999587
10604009963
10604016615
10604024367
10604030470
10604038588
10604044752
10604050612
10604056593
10604063490
10604070509
10604076918
10604085158
10604090956
10604095534
10604103468
10604109999
10604115736
10604123549
10604126356
10604138014
10604141127
10604150038
10604156874
10604163588
10604172499
10604179518
10604185987
10604190870
10604199781
10604207045
10604214369
10604220594
10604225721
10604235426
10604242628
10604249525
10604255873
10604263136
10604272047
10604278028
10604287306
10604294386
10604301710
10604308607
10604313734
10604323133
10604328199
10604336073
10604346754
10604352918
10604359327
10604364332
10604372816
10604379957
10604387525
10604395460
10604403089
10604410474
10604415845
10604424878
10604432264
10604439100
10604445936
10604450757
10604459668
10604466687
10604473462
10604481458
10604490369
10604496350
10604501599
10604510938
10604515821
10604524243
10604531018
10604537122
10604546704
10604552503
10604560010
10604566968
10604574353
10604581006
10604583814
10604594006
10604601025
10604610364
10604616956
10604624768
10604631238
10604636487
10604644238
10604650708
10604658887
10604665234
10604676465
10604685315
10604691357
10604698743
10604706128
10604713330
10604721753
10604728589
10604736523
10604745251
10604752270
10604762890
10604771985
10604778393
10604784680
10604790173
10604794690
10604801586
10604807141
10604813977
10604819836
10604826245
10604831005
10604837536
10604842846
10604849377
10604854443
10604861462
10604867871
10604873242
10604875134
10604883251
10604886486
10604893688
10604898815
10604904614
10604911449
10604916576
10604921215
10604927868
10604932446
10604938244
10604942821
10604946362
10604953930
10604957531
10604968273
10604973461
10604978466
10604984691
10604990307
10604995373
10605001720
10605007152
10605014843
10605020397
10605025097
10605029857
10605034313
10605041271
10605047802
10605054638
10605061474
10605068798
10605076183
10605084789
10605091442
10605100353
10605106945
10605112438
10605123973
10605131481
10605137767
10605143016
10605150951
10605157298
10605166271
10605173839
10605179027
10605190990
10605198863
10605206065
10605212840
10605219676
10605226329
10605234081
10605241100
10605247630
10605250682
10605264354
10605270396
10605279246
10605283702
10605292552
10605299144
10605304332
10605314464
10605319530
10605327830
10605341746
10605350535
10605356944
10605362986
10605373179
10605378184
10605385691
10605392527
10605398082
10605408335
10605416392
10605422923
10605430186
10605440562
10605448802
10605456431
10605467845
10605477793
10605485789
10605493479
10605504771
10605512095
10605521372
10605529246
10605538523
10605546458
10605552561
10605562266
10605570200
10605577769
10605584238
10605593088
10605600291
10605608164
10605615000
10605620066
10605629526
10605636484
10605641977
10605647776
10605655954
10605663950
10605672800
10605679209
10605684641
10605694284
10605699900
10605707407
10605714121
10605721689
10605728342
10605735178
10605742075
10605749277
10605759104
10605767099
10605773996
10605780832
10605788645
10605795419
10605800424
10605809641
10605814462
10605821970
10605831674
10605839853
10605846506
10605851511
10605859689
10605866647
10605873727
10605880563
10605887277
10605896799
10605902292
10605909494
10605915902
10605923532
10605931772
10605935067
10605944467
10605951669
10605962533
10605970590
10605977731
10605984750
10605990060
10605999765
10606004647
10606012216
10606021432
10606024606
10606035714
10606044137
10606050607
10606057321
10606065255
10606072457
10606080026
10606087960
10606094491
10606097482
10606111092
10606114571
10606125130
10606129830
10606139107
10606145760
10606152169
10606159127
10606166573
10606174264
10606181893
10606190316
10606196419
10606201790
10606209969
10606217110
10606224679
10606231514
10606237191
10606250069
10606255440
10606263985
10606271370
10606278572
10606286568
10606296944
10606304024
10606313668
10606323189
10606329598
10606338875
10606346993
10606350289
10606361092
10606369454
10606376900
10606384712
10606393990
10606405953
10606418282
10606425484
10606431465
10606439033
10606445564
10606454231
10606461311
10606466499
10606475227
10606483467
10606491340
10606497505
10606504585
10606510933
10606517891
10606523689
10606530281
10606538765
10606545784
10606555122
10606561348
10606568367
10606574104
10606580452
10606585579
10606594734
10606602973
10606611396
10606618415
10606626594
10606633308
10606638923
10606648567
10606653022
10606661201
10606670539
10606677009
10606684394
10606692512
10606699409
10606706611
10606716132
10606726325
10606730170
10606743110
10606746894
10606758918
10606766425
10606774665
10606781318
10606790229
10606797309
10606802436
10606809699
10606816413
10606819465
10606833381
10606839179
10606848273
10606855719
10606862067
10606869269
10606874518
10606883918
10606888739
10606896491
10606907538
10606915656
10606922675
10606927924
10606935431
10606942633
10606947882
10606958441
10606964057
10606972418
10606979498
10606989203
10606996039
10607001349
10607010321
10607017157
10607020209
10607032172
10607037726
10607047491
10607055365
10607064093
10607070868
10607073859
10607082403
10607089056
10607096564
10607103094
10607108404
10607122076
10607127813
10607136236
10607142767
10607151373
10607158148
10607163519
10607171942
10607178350
10607181280
10607194525
10607197943
10607207037
10607215032
10607224493
10607233465
10607242376
10607250616
10607258672
10607266302
10607272100
10607281988
10607287786
10607300054
10607305975
10607313604
10607321050
10607327825
10607334417
10607343023
10607349493
10607356756
10607364019
10607377874
10607383855
10607388372
10607398260
10607404973
10607411321
10607416753
10607424688
10607430669
10607435369
10607443731
10607450505
10607460027
10607467046
10607475225
10607481145
10607485540
10607493596
10607500127
10607502812
10607512090
10607517766
10607527898
10607534429
10607543401
10607550176
10607560368
10607567082
10607574346
10607581853
10607586980
10607598454
10607606389
10607614201
10607620549
