10898502922
10898507744
10898513908
10898519096
10898523674
10898528923
10898533562
10898540092
10898544914
10898550407
10898556328
10898561882
10898568046
10898573295
10898578605
10898583793
10898590568
10898595329
10898601799
10898607902
10898613395
10898619621
10898625908
10898630973
10898635734
10898641899
10898647026
10898653556
10898659721
10898664909
10898670829
10898676017
10898680595
10898687004
10898691886
10898697624
10898703849
10898708610
10898713432
10898718437
10898724540
10898730094
10898734611
10898739982
10898745536
10898752433
10898758964
10898763480
10898769096
10898773734
10898780143
10898785636
10898790763
10898795646
10898801017
10898805350
10898810844
10898815482
10898821220
10898827140
10898832145
10898837577
10898843192
10898848441
10898852714
10898859855
10898865592
10898871757
10898878348
10898883658
10898890311
10898895072
10898903067
10898908683
10898915091
10898921317
10898927726
10898933829
10898939383
10898946463
10898952933
10898957328
10898965811
10898971854
10898977591
10898983329
10898990714
10898995841
10899002616
10899008902
10899015555
10899021048
10899027152
10899034354
10899038809
10899045767
10899051260
10899057608
10899062735
10899069449
10899076468
10899082693
10899088065
10899093619
10899100027
10899106253
10899110525
10899118765
10899124869
10899130850
10899136954
10899143179
10899149466
10899153860
10899160208
10899166372
10899174063
10899179922
10899185232
10899191275
10899198538
10899206839
10899213675
10899219168
10899225210
10899231985
10899237661
10899244131
10899251577
10899258596
10899263967
10899270559
10899275991
10899282583
10899287649
10899292959
10899301199
10899305776
10899312368
10899317983
10899323904
10899329214
10899335195
10899342581
10899348318
10899354482
10899361868
10899368154
10899374441
10899381521
10899387380
10899394765
10899401784
10899407705
10899415029
10899421133
10899426687
10899435659
10899442129
10899449026
10899455007
10899460683
10899466482
10899471670
10899477834
10899484975
10899492055
10899498159
10899502797
10899510366
10899515187
10899523000
10899530507
10899538381
10899545095
10899551381
10899560109
10899566701
10899573232
10899581105
10899589406
10899594716
10899602223
10899607350
10899615163
10899622670
10899627675
10899633840
10899642568
10899650502
10899657582
10899664418
10899669850
10899676808
10899684987
10899692799
10899700246
10899706837
10899713307
10899721242
10899726552
10899734303
10899743092
10899752003
10899759450
10899765004
10899773243
10899781666
10899791066
10899795948
10899804921
10899812733
10899819508
10899827137
10899836293
10899842091
10899850636
10899856800
10899865895
10899873524
10899879017
10899885609
10899893788
10899898792
10899906361
10899913197
10899918385
10899926746
10899932057
10899942677
10899950123
10899956471
10899962818
10899972767
10899980213
10899986805
10899994129
10900001026
10900009998
10900017811
10900024097
10900032642
10900039417
10900047657
10900054920
10900061085
10900068836
10900074451
10900080982
10900089588
10900097522
10900103321
10900110462
10900117054
10900125232
10900134265
10900139942
10900148975
10900157154
10900162769
10900169971
10900178577
10900184131
10900190906
10900198535
10900206958
10900214343
10900220935
10900226611
10900235400
10900237537
10900249683
10900256335
10900265857
10900272693
10900280688
10900288196
10900294177
10900300586
10900308642
10900315417
10900324390
10900334277
10900341113
10900348620
10900354358
10900363269
10900369006
10900378222
10900386584
10900393725
10900400317
10900407763
10900414599
10900422168
10900429919
10900437793
10900444628
10900451831
10900455676
10900465441
10900473620
10900479052
10900487292
10900495104
10900501574
10900508593
10900514636
10900522631
10900529589
10900537035
10900543200
10900552355
10900557543
10900569506
10900575549
10900583239
10900587328
10900598254
10900606432
10900613329
10900621081
10900629870
10900636889
10900643603
10900649340
10900658434
10900663256
10900673815
10900680285
10900688463
10900694750
10900701952
10900710192
10900716539
10900723680
10900732347
10900738146
10900747057
10900754259
10900760973
10900767809
10900776049
10900782274
10900791490
10900799303
10900807970
10900813585
10900821825
10900827501
10900835985
10900843126
10900852037
10900860155
10900865831
10900872606
10900880968
10900887682
10900893968
10900901842
10900910692
10900917345
10900926134
10900933763
10900940050
10900946702
10900955247
10900965501
10900971971
10900980577
10900989427
10900997422
10901002000
10901014146
10901023240
10901030809
10901038377
10901044908
10901050401
10901057542
10901064317
10901071519
10901078904
10901089341
10901091538
10901102586
10901108079
10901115403
10901123765
10901132371
10901139695
10901147996
10901153672
10901162583
10901169968
10901177110
10901185960
10901192307
10901200974
10901209275
10901216721
10901222764
10901230027
10901236130
10901244553
10901251572
10901259934
10901266465
10901275803
10901283860
10901291306
10901296311
10901308457
10901316880
10901324570
10901331772
10901340500
10901348191
10901353928
10901360031
10901368332
10901376145
10901382553
10901391098
10901397202
10901407944
10901414780
10901422043
10901429733
10901438156
10901445786
10901453415
10901461838
10901468369
10901474472
10901484299
10901489181
10901500168
10901507309
10901515427
10901521713
10901530502
10901538376
10901544052
10901552475
10901560653
10901567856
10901574936
10901582504
10901589523
10901596420
10901602890
10901613876
10901621505
10901628952
10901635299
10901642440
10901650558
10901657394
10901661972
10901673385
10901680587
10901688095
10901692428
10901701095
10901707992
10901715194
10901722640
10901730270
10901737350
10901746200
10901753341
10901760543
10901766525
10901775314
10901780990
10901790450
10901797164
10901804793
10901811996
10901818526
10901824813
10901834090
10901839339
10901848983
10901856368
10901863692
10901871383
10901878280
10901885848
10901895247
10901903731
10901909652
10901917647
10901923262
10901931929
10901937911
10901946578
10901952803
10901959151
10901968550
10901975752
10901982222
10901992476
10902000899
10902008223
10902013472
10902025740
10902033125
10902040938
10902048933
10902055830
10902063338
10902072188
10902077803
10902086226
10902094710
10902103316
10902111006
10902118269
10902125654
10902129439
10902142378
10902150740
10902157454
10902164106
10902172285
10902179426
10902186995
10902192122
10902201948
10902210127
10902217146
10902223799
10902230757
10902237043
10902244184
10902250349
10902261030
10902267500
10902274580
10902280317
10902289411
10902294843
10902302290
10902310407
10902318342
10902325605
10902331953
10902340131
10902345503
10902353132
10902360456
10902366132
10902374921
10902383222
10902390424
10902396528
10902403730
10902411298
10902419172
10902425519
10902433637
10902440778
10902447858
10902455854
10902461408
10902467267
10902476484
10902485639
10902493207
10902499738
10902506940
10902514386
10902521833
10902528302
10902536359
10902543988
10902552594
10902559064
10902566022
10902574079
10902579450
10902587750
10902594525
10902600812
10902610578
10902618939
10902624310
10902632367
10902639447
10902645917
10902653241
10902660016
10902669965
10902678509
10902685712
10902691876
10902699139
10902706219
10902713666
10902719403
10902729291
10902736065
10902743695
10902751935
10902757672
10902766095
10902773907
10902782147
10902790875
10902798077
10902805767
10902812481
10902819744
10902825909
10902833721
10902841046
10902849835
10902886273
10902893353
10902901409
10902908978
10902919232
10902926617
10902933880
10902942852
10902950054
10902956707
10902966595
10902973919
10902983135
10902989971
10902999004
10903005718
10903014934
10903021160
10903028240
10903035808
10903045330
10903051494
10903058635
10903067363
10903075298
10903083660
10903090130
10903096904
10903106060
10903112773
10903121502
10903129863
10903136577
10903145671
10903151409
10903158611
10903167156
10903173870
10903182109
10903192180
10903197246
10903205486
10903212200
10903218791
10903225810
10903234355
10903242717
10903251323
10903258037
10903266277
10903273418
10903279582
10903287700
10903293681
10903300578
10903311259
10903316936
10903322612
10903331645
10903337382
10903346354
10903352214
10903360637
10903366130
10903374797
10903382548
10903388102
10903396037
10903403727
10903410380
10903420390
10903425639
10903434733
10903439494
10903447428
10903456523
10903462748
10903471354
10903479411
10903487712
10903495646
10903502421
10903510478
10903516825
10903524516
10903528605
10903539896
10903546610
10903555460
10903561869
10903569743
10903575114
10903583842
10903590311
10903599528
10903607340
10903614115
10903621195
10903628153
10903635050
10903644694
10903652323
10903660929
10903666483
10903674845
10903682108
10903687845
10903694742
10903703409
10903710123
10903720072
10903728617
10903734964
10903743021
10903748758
10903756571
10903763223
10903770792
10903780069
10903788675
10903795267
10903801370
10903810709
10903815958
10903824258
10903830606
10903839395
10903845132
10903853799
10903861002
10903867960
10903873453
10903880533
10903887369
10903899332
10903907022
10903913919
10903921182
10903928140
10903935525
10903942605
10903947854
10903958413
10903964456
10903971597
10903979959
10903986795
10903992837
10904005655
10904014383
10904022317
10904028543
10904037576
10904043435
10904050515
10904057778
10904064614
10904072061
10904082009
10904089272
10904096047
10904101235
10904109170
10904117410
10904123086
10904130654
10904138589
10904144875
10904154214
10904160744
10904167336
10904174782
10904181557
10904189431
10904196694
10904205117
10904212136
10904219521
10904226479
10904233742
10904240944
10904249428
10904258095
10904265419
10904272438
10904280312
10904287209
10904294716
10904301369
10904309609
10904318215
10904323769
10904332070
10904337868
10904346230
10904352455
10904359413
10904365090
10904376259
10904381691
10904390846
10904398415
10904405861
10904413612
10904420815
10904426247
10904437477
10904444191
10904451149
10904459328
10904465919
10904472206
10904480812
10904488380
10904497047
10904502785
10904511268
10904517128
10904525795
10904531105
10904539589
10904547096
10904553993
10904561195
10904569435
10904574989
10904585792
10904591896
10904601234
10904606056
10904614662
10904621498
10904629615
10904635475
10904644020
10904648902
10904657691
10904663734
10904672462
10904678565
10904687232
10904695533
10904702918
10904713111
10904720191
10904728187
10904735816
10904745216
10904752418
10904758948
10904765845
10904774390
10904782386
10904789527
10904796973
10904804114
10904810096
10904818519
10904826087
10904832740
10904841834
10904850684
10904857093
10904865455
10904870398
10904878699
10904884925
10904891639
10904899878
10904908301
10904916297
10904922766
10904928931
10904936499
10904943762
10904951453
10904960059
10904969885
10904978308
10904985877
10904993933
10905001502
10905008948
10905016638
10905023962
10905032568
10905039832
10905047339
10905052100
10905061194
10905069189
10905075659
10905084631
10905092505
10905100317
10905107947
10905115027
10905122412
10905130041
10905138281
10905144812
10905152014
10905160742
10905167761
10905174170
10905180944
10905187719
10905194738
10905204260
10905212439
10905219030
10905226232
10905233313
10905240515
10905247534
10905254614
10905264440
10905271459
10905278051
10905285497
10905292211
10905300085
10905306555
10905314489
10905321447
10905329260
10905337560
10905342443
10905351171
10905356725
10905365758
10905372472
10905381444
10905388463
10905394933
10905402257
10905408788
10905415746
10905422338
10905430761
10905437536
10905445409
10905451879
10905459020
10905465856
10905472142
10905481298
10905489415
10905496801
10905503575
10905512059
10905518773
10905525548
10905532079
10905541844
10905548009
10905556493
10905563024
10905571507
10905579747
10905586827
10905593846
10905600987
10905610814
10905619054
10905625523
10905630894
10905640294
10905645970
10905654271
10905661656
10905670262
10905675816
10905685521
10905692052
10905699620
10905707127
10905715123
10905720799
10905731785
10905741124
10905749180
10905754551
10905763401
10905770298
10905777073
10905781651
10905791539
10905799168
10905805821
10905812474
10905819676
10905826573
10905833958
10905841343
10905849400
10905857212
10905864842
10905872593
10905879795
10905884007
10905893711
10905900364
10905909947
10905915562
10905922642
10905930088
10905937412
10905941502
10905949741
10905957066
10905965000
10905971714
10905979160
10905986423
10905995945
10906002109
10906010959
10906015964
10906027195
10906034153
10906041111
10906048313
10906054966
10906062290
10906070957
10906077854
10906087192
10906093296
10906102268
10906110813
10906116916
10906124607
10906133579
10906141818
10906147739
10906157199
10906161228
10906171909
10906179111
10906185031
10906194797
10906202853
10906209506
10906216892
10906222873
10906230014
10906238437
10906244113
10906249728
10906260715
10906266208
10906273776
10906281344
10906288425
10906296237
10906301852
10906309909
10906316195
10906324374
10906332126
10906338168
10906345553
10906354342
10906361728
10906368014
10906378024
10906382724
10906391574
10906398715
10906405551
10906412570
10906420199
10906424349
10906438265
10906445956
10906453402
10906460909
10906467806
10906474093
10906482516
10906489840
10906499606
10906506686
10906515414
10906521517
10906530367
10906537997
10906546603
10906552401
10906561495
10906569979
10906575472
10906583346
10906591158
10906595675
10906603975
10906609713
10906618502
10906626558
10906632723
10906641207
10906647310
10906652987
10906662020
10906670626
10906676485
10906685030
10906690889
10906699617
10906706087
10906713228
10906721346
10906729524
10906737520
10906744722
10906751802
10906760103
10906765596
10906774080
10906780916
10906789644
10906796175
10906804659
10906810457
10906819734
10906825838
10906832674
10906840364
10906847261
10906853609
10906861970
10906869539
10906876131
10906883821
10906890657
10906898103
10906907258
10906914461
10906921480
10906929231
10906936006
10906943574
10906950471
10906957734
10906964692
10906972383
10906979097
10906985933
10906992524
10906999421
10907008393
10907014009
10907024201
10907032014
10907038606
10907044099
10907053376
10907058808
10907065583
10907075105
10907082429
10907089204
10907097566
10907105500
10907111298
10907119843
10907126435
10907136018
10907144685
10907152436
10907160432
10907168183
10907175263
10907184296
10907195161
10907204072
10907212067
10907219391
10907227082
10907235199
10907240754
10907249299
10907257599
10907265839
10907273224
10907280182
10907288361
10907294037
10907302338
10907311066
10907317414
10907326203
10907331757
10907340241
10907348847
10907353363
10907361969
10907371308
10907378998
10907386078
10907393036
10907400971
10907405060
10907416595
10907424652
10907433685
10907441376
10907447296
10907454559
10907461639
10907468964
10907475494
10907483307
10907493133
10907498993
10907507843
10907513031
10907522125
10907528595
10907535125
10907543182
10907550140
10907558014
10907564788
10907572662
10907579010
10907585296
10907592987
10907599212
10907609649
10907615692
10907623199
10907629730
10907637237
10907644439
10907651763
10907658904
10907667144
10907671600
10907681854
10907688384
10907695770
10907702178
10907709991
10907716827
10907725982
10907734039
10907741363
10907748321
10907755462
10907762481
10907769927
10907773894
10907786223
10907792205
10907801055
10907805999
10907813323
10907820159
10907827483
10907836150
10907844573
10907851653
10907860015
10907866668
10907875518
10907880461
10907889495
10907896331
10907906096
10907915190
10907921111
10907930266
10907936186
10907943755
10907950713
10907960356
10907966521
10907975127
10907983550
10907991118
10907999907
10908006377
10908014738
10908023466
10908029204
10908038664
10908045378
10908052702
10908060759
10908067656
10908077177
10908084257
10908092375
10908099394
10908106230
10908112822
10908120939
10908127226
10908132963
10908141020
10908148893
10908155424
10908161772
10908168791
10908178251
10908186003
10908193632
10908200651
10908209074
10908215422
10908221891
10908229460
10908237089
10908243559
10908251737
10908261137
10908268034
10908274564
10908280973
10908289945
10908295011
10908303617
10908311735
10908319669
10908327665
10908336820
10908342802
10908351163
10908355863
10908364164
10908371915
10908379789
10908389188
10908394987
10908403470
10908409330
10908418119
10908424100
10908430631
10908440519
10908448758
10908454862
10908462186
10908469938
10908476407
10908483365
10908493802
10908497831
10908508390
10908514066
10908522977
10908529080
10908536466
10908540067
10908553494
10908561978
10908568570
10908575833
10908582547
10908589078
10908597928
10908602750
10908613065
10908619717
10908628506
10908635220
10908644620
10908653043
10908659268
10908666104
10908674710
10908683011
10908691861
10908699246
10908706326
10908715298
10908720059
10908729825
10908735684
10908744046
10908751492
10908760220
10908765347
10908773831
10908779751
10908788235
10908796475
10908802151
10908810696
10908816494
10908822476
10908830899
10908837063
10908845852
10908853726
10908859463
10908866787
10908875637
10908883328
10908888882
10908896328
10908904995
10908912685
10908918484
10908925014
10908933437
10908939602
10908947536
10908954433
10908963833
10908970180
10908979030
10908987392
10908993435
10909001980
10909007839
10909016384
10909024990
10909030544
10909038845
10909046047
10909051662
10909059780
10909065700
10909071560
10909080715
10909088710
10909097011
10909102138
10909110439
10909118251
10909124721
10909132533
10909139308
10909148952
10909157070
10909164455
10909170497
10909178615
10909184230
10909195155
10909201930
10909209438
10909218105
10909226649
10909235255
10909242580
10909251247
10909258510
10909265773
10909272548
10909280482
10909287135
10909294276
10909301417
10909307643
10909317592
10909324428
10909332667
10909339686
10909346400
10909353114
10909361903
10909368617
10909378199
10909383998
10909392787
10909400233
10909409388
10909417628
10909423854
10909430506
10909438868
10909446742
10909454981
10909463038
10909471034
10909476283
10909485011
10909494044
10909501246
10909508326
10909515589
10909523402
10909530115
10909537196
10909544520
10909553004
10909559656
10909566675
10909574915
10909581568
10909587916
10909595240
10909602564
10909611780
10909620020
10909626551
10909632166
10909639551
10909647059
10909654810
10909661463
10909671228
10909675623
10909685022
10909692224
10909699549
10909707361
10909715235
10909722437
10909730799
10909737573
10909745203
10909751734
10909759485
10909766687
10909773706
10909780603
10909788416
10909796289
10909803552
10909811243
10909818506
10909825220
10909834192
10909839258
10909849206
10909855676
10909864465
10909870813
10909879724
10909885095
10909893640
10909900964
10909909692
10909915735
10909924035
10909929773
10909938501
10909945031
10909952722
10909960778
10909967675
10909974450
10909982751
10909990014
10909996545
10910003625
10910010522
10910018945
10910028344
10910033959
10910042504
10910052575
10910058801
10910067529
10910074487
10910083886
10910091454
10910099267
10910107629
10910115014
10910122399
10910131798
10910138146
10910147607
10910155846
10910162987
10910171654
10910179955
10910187279
10910194909
10910205102
10910212792
10910220482
10910229027
10910237633
10910243248
10910251732
10910260399
10910266442
10910275658
10910284386
10910290245
10910296532
10910305199
10910311425
10910321068
10910329125
10910336388
10910342980
10910350182
10910358544
10910367027
10910373741
10910381981
10910390892
10910397606
10910405357
10910411827
10910417625
10910424766
10910431663
10910441429
10910449608
10910456688
10910463524
10910469993
10910476158
10910483177
10910490562
10910498985
10910505211
10910514427
10910520591
10910527794
10910534019
10910541282
10910549217
10910557518
10910564170
10910571067
10910577964
10910585044
10910592613
10910599937
10910605979
10910615562
10910622825
10910629966
10910636436
10910643516
10910650474
10910657798
10910665122
10910674949
10910683433
10910689903
10910695884
10910703391
10910711387
10910717857
10910724509
10910735557
10910741172
10910748740
10910755027
10910763755
10910771140
10910777671
10910784141
10910793052
10910799277
10910808371
10910815574
10910822471
10910828086
10910836020
10910844504
10910854087
10910860129
10910870261
10910878318
10910885825
10910893882
10910901328
10910909079
10910915915
10910924033
10910933554
10910939414
10910947959
10910954245
10910962668
10910968161
10910976889
10910983725
10910992026
10910997458
10911005698
10911011740
10911020895
10911029257
10911035239
10911044150
10911049826
10911056235
10911064902
10911072348
10911078268
10911084616
10911093344
10911100119
10911108358
10911113424
10911121908
10911128561
10911136984
10911143026
10911152182
10911159201
10911168051
10911173361
10911181600
10911187460
10911196005
10911202291
10911212057
10911219198
10911227316
10911234579
10911240377
10911248800
10911257650
10911262899
10911272237
10911280172
10911288290
10911295736
10911301595
10911310934
10911316549
10911325765
10911332174
10911340841
10911348836
10911354207
10911360067
10911366964
10911376424
10911385152
10911394124
10911399801
10911407735
10911415181
10911421346
10911428792
10911435506
10911443258
10911453511
10911460836
10911467916
10911475606
10911482625
10911487081
10911497640
10911503377
10911512837
10911521443
10911527486
10911534383
10911542745
10911547566
10911556477
10911563069
10911571736
10911580708
10911586568
10911596028
10911602620
10911610982
10911617024
10911626546
10911633382
10911640889
10911650105
10911655720
10911662251
10911671162
10911677571
10911688008
10911695088
10911702046
10911709492
10911715840
10911723042
10911729695
10911735432
10911745442
10911753926
10911760640
10911768147
10911775227
10911783222
10911790058
10911798054
10911807331
10911812886
10911821369
10911828449
10911835529
10911841023
10911850422
10911857319
10911866718
10911873432
10911880756
10911886738
10911894672
10911900471
10911909504
10911915424
10911923847
10911933247
10911938801
10911947101
10911952717
10911961750
10911966999
10911976398
10911982136
10911990864
10911999408
10912005634
10912011676
10912019916
10912027057
10912033954
10912041401
10912050739
10912056781
10912065204
10912070270
10912078632
10912083637
10912092426
10912099872
10912108722
10912115192
10912124042
10912129657
10912137958
10912144489
10912151141
10912158466
10912167865
10912173969
10912182819
10912189349
10912197711
10912203204
10912211688
10912219012
10912225848
10912233234
10912241473
10912247088
10912253680
10912261371
10912269549
10912275348
10912284076
10912291583
10912298297
10912304706
10912312945
10912319964
10912326983
10912334613
10912343890
10912351825
10912358477
10912365741
10912374957
10912381121
10912390338
10912398822
10912404803
10912412737
10912420611
10912427630
10912433611
10912440814
10912448687
10912456683
10912465106
10912473284
10912481158
10912488299
10912497027
10912505144
10912514788
10912521624
10912528582
10912537676
10912544634
10912551897
10912558489
10912567705
10912574114
10912582903
10912590593
10912600176
10912607622
10912614702
10912621965
10912629168
10912637651
10912643938
10912652727
10912660356
10912666826
10912673601
10912680132
10912686357
10912695268
10912701982
10912710954
10912716265
10912723833
10912731828
10912739275
10912746172
10912756059
10912761797
10912770708
10912776079
10912783830
10912791643
10912798845
10912805498
10912813493
10912819963
10912827226
10912834428
10912841630
10912848772
10912856035
10912861833
10912869890
10912875749
10912884782
10912892534
10912897966
10912905595
10912911760
10912918596
10912928422
10912934159
10912943132
10912951554
10912959123
10912966264
10912973283
10912979814
10912988725
10912997819
10913005631
10913012650
10913022233
10913030107
10913036820
10913045609
10913052628
10913059953
10913066666
10913074601
10913081742
10913091019
10913097367
10913104142
10913113785
10913121781
10913131058
10913138688
10913146012
10913153214
10913159867
10913170731
10913176591
10913185257
10913190018
10913198929
10913206315
10913212845
10913219925
10913229081
10913236283
10913244522
10913251908
10913259781
10913267594
10913273331
10913281754
10913287369
10913296280
10913301956
10913310257
10913316788
10913325455
10913331619
10913340164
10913346024
10913355179
10913362686
10913367203
10913375809
10913384048
10913390030
10913398758
10913406937
10913414627
10913420364
10913426224
10913434952
10913440323
10913450149
10913457413
10913467239
10913473038
10913481094
10913488479
10913495376
10913503311
10913509170
10913518631
10913524917
10913534439
10913540420
10913547378
10913556106
10913561721
10913570510
10913576004
10913585159
10913593582
10913601577
10913606887
10913615249
10913620376
10913629836
10913637771
10913647720
10913652541
10913661025
10913666824
10913675185
10913681167
10913689346
10913696120
10913704971
10913713271
10913719619
10913728042
10913733840
10913742324
10913750136
10913756728
10913765090
10913772658
10913779860
10913787124
10913793898
10913802138
10913810622
10913819777
10913825637
10913833266
10913842177
10913847976
10913856704
10913864089
10913869460
10913880812
10913888564
10913895095
10913902114
10913911208
10913917128
10913926650
10913933425
10913942458
10913950270
10913957900
10913965346
10913971449
10913978957
10913986098
10913994643
10914001051
10914010023
10914017409
10914023939
10914031019
10914037977
10914044813
10914053908
10914060682
10914068251
10914075148
10914080641
10914088209
10914095839
10914103773
10914111464
10914118116
10914125258
10914132032
10914140944
10914148695
10914157057
10914163465
10914173231
10914178602
10914186659
10914191847
10914200086
10914206251
10914215223
10914223280
10914230726
10914236952
10914245252
10914251661
10914259779
10914265882
10914272352
10914280408
10914290907
10914296644
10914305616
10914312330
10914318983
10914326490
10914335157
10914341993
10914351697
10914356946
10914365735
10914371595
10914379834
10914385633
10914394422
10914401380
10914410413
10914419141
10914425061
10914432935
10914438916
10914447950
10914455091
10914463391
10914471814
10914477857
10914486707
10914494092
10914501416
10914508618
10914516004
10914523999
10914532666
10914540601
10914549207
10914557752
10914562512
10914575085
10914581860
10914591260
10914600049
10914606091
10914614819
10914622571
10914627759
10914636304
10914642712
10914651318
10914657971
10914664563
10914671216
10914680432
10914685864
10914695385
10914701245
10914711010
10914718823
10914727490
10914733349
10914739941
10914746655
10914754956
10914762219
10914769238
10914778515
10914785961
10914792492
10914799938
10914805432
10914812145
10914821179
10914828625
10914836437
10914842968
10914849316
10914857678
10914865307
10914872204
10914877148
10914888805
10914896252
10914902782
10914910168
10914916759
10914923900
10914931103
10914938427
10914945629
10914953869
10914960460
10914967357
10914975658
10914981518
10914990184
10914999279
10915007274
10915015270
10915021618
10915029125
10915036510
10915043895
10915048229
10915058055
10915064281
10915077526
10915084667
10915092540
10915100475
10915108837
10915115795
10915125194
10915132884
10915139293
10915145641
10915154002
10915160045
10915168407
10915175121
10915183665
10915192027
10915197948
10915203685
10915212108
10915220470
10915227428
10915234813
10915243846
10915250010
10915258861
10915267161
10915272899
10915281016
10915289012
10915295909
10915306285
10915314586
10915319041
10915329844
10915333812
10915343943
10915350474
10915358348
10915364573
10915374644
10915381785
10915389659
10915395945
10915402781
10915408763
10915419077
10915425486
10915432810
10915441294
10915449168
10915456187
10915463755
10915467600
10915479929
10915487681
10915496348
10915503123
10915509714
10915516550
10915523386
10915529001
10915540354
10915547556
10915554392
10915561960
10915568857
10915574839
10915583872
10915589365
10915598337
10915605722
10915612314
10915619577
10915627939
10915634409
10915641184
10915649851
10915657114
10915664133
10915672556
10915678598
10915687448
10915694345
10915701059
10915708689
10915717417
10915723703
10915732004
10915737253
10915746225
10915751962
10915760385
10915768076
10915774911
10915781686
10915790048
10915796579
10915803537
10915809824
10915816720
10915823678
10915833688
10915841073
10915847909
10915854684
10915861398
10915867746
10915875131
10915881784
10915891427
10915897958
10915906991
10915912179
10915920602
10915927560
10915936959
10915942392
10915952157
10915959909
10915966195
10915972665
10915980905
10915986398
10915994699
10916002633
10916012826
10916018502
10916027596
10916035409
10916039742
10916049813
10916056283
10916067025
10916074349
10916084054
10916090157
10916098946
10916105782
10916114754
10916120431
10916130257
10916138985
10916144784
10916153084
10916158822
10916164803
10916173531
10916181832
10916189766
10916196114
10916204964
10916211068
10916219490
10916226326
10916234505
10916240548
10916249153
10916254341
10916262520
10916269722
10916276741
10916284126
10916292366
10916298409
10916307198
10916313606
10916321968
10916327400
10916335701
10916343147
10916349678
10916355415
10916365547
10916373421
10916380623
10916387703
10916394234
10916401741
10916408821
10916415413
10916424812
10916430855
10916439155
10916444649
10916453499
10916460090
10916466682
10916471870
10916482246
10916490425
10916497139
10916504219
10916511482
10916518928
10916525581
10916531684
10916541694
10916549507
10916556098
10916562873
10916569648
10916575752
10916583259
10916590400
10916599189
10916607551
10916615241
10916621040
10916628181
10916634956
10916642219
10916647834
10916657966
10916665778
10916672980
10916679511
10916687690
10916696479
10916703254
10916712592
10916719611
10916726630
10916735419
10916741706
10916748298
10916756782
10916764716
10916771735
10916782355
10916788459
10916797492
10916804145
10916811042
10916819648
10916826606
10916834601
10916841498
10916850409
10916858466
10916865729
10916871466
10916879218
10916887274
10916894904
10916902045
10916909613
10916917304
10916924445
10916932806
10916939642
10916948065
10916955634
10916964545
10916971808
10916980292
10916989386
10916997931
10917004523
10917017157
10917024542
10917031317
10917039557
10917044928
10917053717
10917059393
10917069586
10917076849
10917084295
10917091436
10917098517
10917104742
10917112066
10917117865
10917126593
10917135870
10917143560
10917147772
10917156561
10917162481
10917171514
10917179266
10917187872
10917196844
10917203069
10917211370
10917218633
10917224859
10917233160
10917238897
10917244695
10917254400
10917262334
10917267950
10917276372
10917283697
10917288824
10917297430
10917306036
10917315374
10917321294
10917329168
10917337224
10917345708
10917353887
10917359807
10917369207
10917375921
10917385503
10917392766
10917399297
10917406865
10917413457
10917420964
10917431218
10917437810
10917444341
10917452397
10917458928
10917466069
10917472783
10917480474
10917488347
10917496465
10917503667
10917512151
10917521611
10917528081
10917534978
10917542973
10917552373
10917557805
10917566350
10917574590
10917582951
10917588628
10917596928
10917603154
10917611943
10917619328
10917625065
10917631718
10917640385
10917645390
10917654484
10917660161
10917670720
10917676396
10917684758
10917692143
10917698674
10917706608
10917713505
10917719975
10917728031
10917734806
10917743534
10917748722
10917757939
10917763005
10917770512
10917777470
10917789433
10917796818
10917805851
10917811100
10917819523
10917828007
10917834477
10917846195
10917852665
10917860294
10917870060
10917877201
10917886234
10917893436
10917898929
10917909366
10917915409
10917922062
10917929142
10917936344
10917943119
10917952762
10917957767
10917968815
10917975162
10917983463
10917989505
10917997989
10918004032
10918010501
10918017398
10918024784
10918031681
10918040042
10918046573
10918054874
10918059635
10918068119
10918075992
10918083255
10918091129
10918097843
10918105716
10918112247
10918119815
10918126651
10918135989
10918143253
10918149478
10918158023
10918164737
10918173160
10918178470
10918187320
10918194461
10918203921
10918210147
10918217044
10918226016
10918231814
10918241031
10918246890
10918258120
10918267337
10918273501
10918282534
10918287967
10918297122
10918302859
10918309939
10918321475
10918329226
10918336550
10918344424
10918351748
10918358401
10918365725
10918371585
10918380496
10918388674
10918396182
10918401919
10918410037
10918413943
10918423953
10918430300
10918439639
10918445193
10918454043
10918460513
10918468813
10918475466
10918482180
10918489382
10918498598
10918504946
10918513369
10918520510
10918529299
10918534609
10918541201
10918549318
10918558046
10918563723
10918570681
10918578981
10918585573
10918593325
10918599978
10918607729
10918616457
10918621950
10918630373
10918637087
10918645327
10918651125
10918659670
10918666384
10918675112
10918682131
10918691408
10918699281
10918705690
10918713991
10918719911
10918726869
10918734316
10918743410
10918751161
10918756044
10918764894
10918770448
10918779359
10918788148
10918795167
10918802858
10918808595
10918817140
10918823305
10918831056
10918836610
10918846498
10918853090
10918862184
10918868532
10918877076
10918883058
10918889772
10918896730
10918907045
10918912782
10918921937
10918929505
10918936647
10918943605
10918950868
10918954957
10918967774
10918973573
10918981324
10918988587
10918997743
10919002564
10919014771
10919020875
10919031983
10919039491
10919046449
10919053223
10919062562
10919069215
10919077149
10919083375
10919092530
10919101014
10919106873
10919114808
10919120667
10919126710
10919135987
10919145325
10919151551
10919159913
10919165589
10919174195
10919179932
10919188477
10919194397
10919200867
10919211243
10919217102
10919225281
10919232422
10919238282
10919243714
10919252930
10919259766
10919270020
10919275696
10919281494
10919289856
10919296265
10919304627
10919310364
10919319763
10919325745
10919335510
10919339294
10919350037
10919355713
10919364014
10919370605
10919377197
10919386413
10919394592
10919400757
10919407165
10919415039
10919423462
10919429199
10919435730
10919445495
10919451355
10919459533
10919466858
10919474426
10919481567
10919487365
10919494506
10919503051
10919510864
10919519287
10919526550
10919533203
10919540161
10919545776
10919554382
10919562927
10919570861
10919578918
10919584899
10919593688
10919599120
10919604675
10919613281
10919623779
10919630309
10919636474
10919645080
10919650756
10919659972
10919665954
10919673217
10919683044
10919687865
10919696410
10919704406
10919710204
10919718749
10919724303
10919733947
10919740050
10919749938
10919755919
10919763976
10919770018
10919777160
10919786803
10919794738
10919801146
10919809752
10919815612
10919824889
10919831053
10919837828
10919845885
10919854003
10919861083
10919868407
10919874632
10919883483
10919891600
10919898070
10919905028
10919915282
10919923155
10919928954
10919936888
10919943541
10919951598
10919960631
10919967162
10919975340
10919984068
10919989989
10919998717
10920004454
10920010557
10920019041
10920025267
10920034239
10920043944
10920050169
10920058653
10920066710
10920071837
10920079588
10920088743
10920096922
10920104795
10920111265
10920118833
10920122740
10920131956
10920138670
10920148741
10920156187
10920163999
10920170469
10920177915
10920184446
10920192259
10920199705
10920207823
10920217222
10920224119
10920230466
10920239072
10920245298
10920254087
10920259336
10920269407
10920278257
10920284666
10920293638
10920299863
10920305906
10920314268
10920322019
10920329221
10920339109
10920345640
10920353574
10920359983
10920368772
10920374509
10920380674
10920390378
10920396848
10920405515
10920411313
10920419736
10920425412
10920433957
10920438413
10920448484
10920454587
10920463071
10920470395
10920478208
10920487119
10920493833
10920502744
10920511044
10920519711
10920525632
10920535580
10920543759
10920550107
10920558774
10920566586
10920575192
10920582577
10920588559
10920596005
10920602658
10920609921
10920616757
10920625363
10920632626
10920640683
10920647885
10920655575
10920662350
10920671933
10920679562
10920687252
10920695797
10920704708
10920710324
10920719052
10920726376
10920733151
10920740353
10920749386
10920755795
10920764279
10920769406
10920777462
10920784420
10920791378
10920798092
10920809078
10920814877
10920823177
10920830318
10920837093
10920843929
10920851559
10920858944
10920868343
10920874081
10920882687
10920888241
10920897213
10920904659
10920911373
10920918819
10920927913
10920933285
10920940181
10920947323
10920954158
10920961361
10920970455
10920975582
10920985408
10920992855
10920999569
10921006954
10921014095
10921020381
10921028804
10921035701
10921044979
10921051998
10921058650
10921065364
10921073909
10921079585
10921089351
10921096858
10921104121
10921112483
10921118343
10921125362
10921132198
10921139156
10921147456
10921152827
10921164546
10921171260
10921178035
10921185298
10921192012
10921198298
10921205745
10921212520
10921223628
10921231074
10921238032
10921246211
10921253535
10921259150
10921266719
10921273616
10921285518
10921292170
10921302912
10921309870
10921318476
10921326289
10921332087
10921342219
10921348689
10921356684
10921363703
10921370600
10921378474
10921386103
10921392695
10921400568
10921408686
10921415278
10921421076
10921430048
10921437251
10921444209
10921452265
10921459772
10921466975
10921475214
10921482233
10921489863
10921494440
10921503412
10921508906
10921518122
10921524836
10921533075
10921539118
10921545771
10921551691
10921560053
10921567499
10921574762
10921582514
10921589350
10921596491
10921603754
10921611505
10921618097
10921623957
10921632074
10921639398
10921648493
10921654535
10921663324
10921668512
10921676447
10921682550
10921691705
10921698969
10921707147
10921714899
10921721429
10921729852
10921735712
10921741754
10921751215
10921760065
10921765741
10921771722
10921780511
10921785821
10921795343
10921803033
10921813409
10921821466
10921829278
10921835382
10921844537
10921850152
10921858331
10921863885
10921873651
10921881646
10921889520
10921895501
10921901178
10921909539
10921915338
10921922906
10921931512
10921939691
10921945611
10921951959
10921963372
10921969781
10921975762
10921985406
10921991753
10922000543
10922007439
10922019341
10922026177
10922041802
10922062493
10922070794
10922081109
10922091485
10922100213
10922107293
10922114495
10922121087
10922128106
10922136040
10922143120
10922149773
10922156243
10922162651
10922169976
10922175591
10922183953
10922190300
10922197686
10922204033
10922211357
10922217827
10922223870
10922230400
10922236565
10922244988
10922250725
10922258476
10922265984
10922273918
10922279717
10922288628
10922294792
10922303581
10922309135
10922318108
10922326591
10922332512
10922340752
10922348503
10922356255
10922363701
10922370476
10922377678
10922384025
10922391411
10922398918
10922406059
10922416008
10922423515
10922427971
10922437797
10922441948
10922450859
10922458671
10922466789
10922475151
10922482658
10922489982
10922498039
10922502555
10922511589
10922519401
10922525688
10922534599
10922542777
10922548637
10922556266
10922562065
10922570793
10922576713
10922584525
10922593620
10922601249
10922608878
10922616081
10922620658
10922629569
10922635307
10922643790
10922652335
10922658805
10922664664
10922674552
10922681937
10922688895
10922695548
10922701591
10922711661
10922717582
10922725333
10922733146
10922740775
10922748771
10922758353
10922765555
10922772147
10922780631
10922786979
10922793692
10922801383
10922810416
10922816764
10922823905
10922831900
10922840140
10922847342
10922853140
10922861807
10922871024
10922878714
10922886771
10922893912
10922900504
10922908011
10922915640
10922920828
10922927908
10922936819
10922944144
10922953482
10922960440
10922966788
10922972342
10922981253
10922986380
10922996023
10923002676
10923011221
10923018301
10923025015
10923031485
10923038260
10923046255
10923055166
10923062368
10923070669
10923078848
10923085318
10923091848
10923099722
10923109610
10923117056
10923124563
10923132498
10923139883
10923144338
10923153189
10923159109
10923168813
10923177725
10923183340
10923189016
10923197988
10923203664
10923211172
10923217702
10923228139
10923235403
10923243032
10923250478
10923257741
10923264516
10923272268
10923279287
10923285329
10923294240
10923302236
10923309316
10923316640
10923320363
10923330007
10923337392
10923345571
10923352224
10923360097
10923366323
10923375173
10923381154
10923389211
10923395986
10923403798
10923410329
10923419484
10923424184
10923433705
10923440480
10923449208
10923455373
10923466298
10923474294
10923480275
10923487355
10923496571
10923502980
10923510304
10923518788
10923525868
10923532948
10923542104
10923547963
10923556874
10923562916
10923569630
10923576405
10923586964
10923592763
10923601063
10923606556
10923614918
10923621510
10923628163
10923633717
10923644459
10923650746
10923659108
10923664296
10923673451
10923679554
10923686573
10923694325
10923702076
10923710133
10923716969
10923722767
10923731556
10923737110
10923744557
10923751087
10923760182
10923766773
10923774281
10923781361
10923788929
10923795399
10923802967
10923809620
10923817127
10923825245
10923832752
10923840137
10923847523
10923855091
10923860523
10923869190
10923875843
10923884388
10923892200
10923899341
10923906544
10923913563
10923919605
10923925464
10923935352
10923942066
10923950611
10923956836
10923964100
10923971729
10923976795
10923985340
10923991443
10924000721
10924008289
10924016956
10924022571
10924028369
10924037586
10924046497
10924054309
10924063403
10924069751
10924077564
10924086170
10924092883
10924099658
10924107410
10924116260
10924123523
10924131824
10924138782
10924145801
10924152820
10924159412
10924167834
10924175769
10924183032
10924192492
10924198291
10924206714
10924214343
10924221789
10924231494
10924240466
10924246386
10924252124
10924261401
10924267199
10924275378
10924281482
10924290393
10924299182
10924306811
10924312487
10924320971
10924326708
10924334094
10924342761
10924347827
10924357165
10924365649
10924371874
10924379626
10924385790
10924393420
10924400134
10924408739
10924415759
10924423022
10924431750
10924439684
10924445422
10924454333
10924460009
10924468188
10924474535
10924482958
10924488634
10924497423
10924503283
10924511339
10924517199
10924524889
10924535143
10924540697
10924548571
10924554674
10924563097
10924568041
10924576586
10924584032
10924593126
10924601183
10924607042
10924613939
10924622850
10924628282
10924635057
10924642626
10924652269
10924657884
10924666246
10924673143
10924680223
10924687792
10924694749
10924701097
10924711534
10924718919
10924725511
10924732774
10924739427
10924746507
10924753587
10924759935
10924767991
10924773790
10924783494
10924789476
10924796861
10924804857
10924810289
10924816026
10924826463
10924834214
10924841722
10924847947
10924855943
10924861131
10924866014
10924870835
10924879930
10924885057
10924891038
10924896287
10924901597
10924908250
10924912095
10924920640
10924925767
10924933091
10924939317
10924945786
10924953416
10924959092
10924963975
10924968308
10924975327
10924980454
10924984788
10924990891
10924995286
10924999680
10925005906
10925010728
10925016343
10925020982
10925025620
10925031052
10925035569
10925041611
10925045823
10925050950
10925056321
10925061936
10925066147
10925069443
10925076707
10925081956
10925085618
10925091599
10925095078
10925101792
10925106492
10925111496
10925117173
10925122605
10925127549
10925132431
10925137009
10925141587
10925146286
10925151719
10925158310
10925162094
10925167160
10925171738
10925177780
10925183518
10925189377
10925194748
10925199387
10925203598
10925207993
10925213608
10925219284
10925224045
10925229721
10925236069
10925240952
10925246994
10925250961
10925258347
10925263535
10925268478
10925273117
10925278000
10925282150
10925285996
10925291733
10925299118
10925301682
10925307846
10925312424
10925316757
10925321091
10925327255
10925333603
10925336716
10925343552
10925346908
10925351852
10925355514
10925361862
10925369125
10925375229
10925382980
10925390060
10925399338
10925406418
10925413925
10925422836
10925433761
10925439621
10925452987
10925459945
10925469101
10925476669
10925486068
10925490951
10925502304
10925506881
10925515975
10925523605
10925531539
10925538986
10925541183
10925553634
10925558273
10925568038
10925571761
10925580673
10925587325
10925593307
10925600631
10925606368
10925615890
10925622726
10925630660
10925637740
10925643844
10925649703
10925655318
10925664474
10925670943
10925679183
10925686202
10925692367
10925699325
10925707564
10925715377
10925722457
10925729354
10925736190
10925743575
10925754927
10925762069
10925770369
10925775313
10925782515
10925792586
10925796797
10925805098
10925809371
10925821334
10925827925
10925833418
10925842452
10925847762
10925855269
10925859419
10925865767
10925874922
10925880965
10925889265
10925895735
10925903365
10925907881
10925917891
10925924605
10925931929
10925937178
10925945967
10925954085
10925960554
10925969588
10925975874
10925982161
10925989607
10925996077
10926004194
10926008284
10926014692
10926025312
10926031416
10926038374
10926042585
10926051863
10926058516
10926065657
10926073103
10926075117
10926085249
10926093428
10926099470
10926106184
10926116316
10926121137
10926132490
10926139753
10926148725
10926155439
10926160627
10926171430
10926178571
10926184309
10926192670
10926200117
10926207319
10926214826
10926222700
10926233076
10926241132
10926253522
10926261030
10926269086
10926271955
10926285566
10926292096
10926300153
10926306562
10926314435
10926321698
10926324201
10926335248
10926343000
10926348615
10926354413
10926361127
10926370099
10926377912
10926385297
10926391828
10926400617
10926405683
10926413434
10926421308
10926427838
10926437177
10926444013
10926449689
10926455426
10926462933
10926470075
10926476361
10926484723
10926489423
10926497174
10926510175
10926514813
10926523541
10926528119
10926536786
10926545148
10926551434
10926558758
10926569684
10926578412
10926585126
10926592938
10926602582
10926608319
10926615826
10926622052
10926630536
10926636822
10926643231
10926653057
10926658612
10926666119
10926672161
10926679852
10926686627
10926692608
10926698895
10926705975
10926715252
10926722698
10926730328
10926734905
10926741924
10926749371
10926755535
10926763836
10926771771
10926778057
10926784283
10926792950
10926799175
10926803753
10926811687
10926818706
10926823650
10926832745
10926839886
10926848125
10926854534
10926862896
10926871502
10926877849
10926884136
10926891460
10926898357
10926905132
10926911358
10926918499
10926928508
10926934734
10926941570
10926946941
10926954326
10926960430
10926966716
10926974468
10926984966
10926993083
10926999065
10927006206
10927015056
10927021404
10927027202
10927034953
10927038860
10927049663
10927056865
10927064067
10927072124
10927080852
10927087932
10927096111
10927105754
10927112773
10927119853
10927130046
10927137981
10927148051
10927153972
10927160991
10927169047
10927175578
10927182597
10927189128
10927193461
10927199870
10927204509
10927211406
10927216472
10927221476
10927224406
10927231669
10927237040
10927243205
10927248759
10927252787
10927257060
10927263285
10927269084
10927272624
10927280070
10927286540
10927290995
10927295573
10927302470
10927308756
10927314189
10927319682
10927324504
10927332621
10927338358
10927341044
10927347819
10927352580
10927357584
10927364542
10927368998
10927376749
10927381693
10927387064
10927392863
10927398966
10927404520
10927410685
10927414042
10927421488
10927425883
10927433451
10927437907
10927443033
10927448710
10927454142
10927459391
10927462443
10927472635
10927477945
10927483683
10927489176
10927494852
10927500101
10927504068
10927508585
10927515909
10927522074
10927527933
10927532511
10927537333
10927544474
10927548502
10927553873
10927559488
10927566385
10927572245
10927577860
10927582437
10927588358
10927592935
10927600382
10927604715
10927612039
10927619058
10927625101
10927630472
10927634622
10927640787
10927644876
10927652017
10927656168
10927664041
10927668253
10927675760
10927681192
10927688638
10927694009
10927702371
10927707010
10927717081
10927725564
10927732339
10927737588
10927744424
10927750406
10927757059
10927762613
10927769021
10927773416
10927780313
10927784585
10927790567
10927796304
10927801675
10927805948
10927812600
10927817666
10927824502
10927830606
10927835916
10927840188
10927845193
10927850381
10927856546
10927862100
10927867044
10927873208
10927878335
10927883340
10927889321
10927894204
10927899148
10927904824
10927910256
10927916299
10927921670
10927927224
10927933511
10927939675
10927945840
10927952737
10927957681
10927963357
10927968789
10927974160
10927980141
10927986062
10927989175
10927997475
10928004311
10928010354
10928013406
10928020669
10928025307
10928030495
10928037697
10928042153
10928050759
10928056008
10928061196
10928066079
10928071755
10928077614
10928083596
10928086648
10928094948
10928099587
10928106606
10928111550
10928116921
10928124001
10928127907
10928134011
10928140602
10928146340
10928153237
10928159890
10928162941
10928170082
10928174965
10928180519
10928186013
10928192116
10928197853
10928202492
10928209938
10928214272
10928220253
10928225014
10928230934
10928236366
10928241921
10928249794
10928253822
10928261269
10928265114
10928272621
10928277870
10928284401
10928290810
10928299049
10928306557
10928313820
10928320595
10928328651
10928334755
10928343178
10928348244
10928355507
10928363807
10928369423
10928375221
10928379493
10928385414
10928389076
10928396156
10928401222
10928405983
10928411964
10928416786
10928420997
10928427833
10928432350
10928438697
10928444252
10928450721
10928455482
10928460975
10928465980
10928471962
10928476539
10928482521
10928489112
10928495277
10928501563
10928505714
10928512123
10928517066
10928522071
10928526344
10928532264
10928537513
10928545448
10928550147
10928557716
10928564246
10928569556
10928574683
10928581275
10928587806
10928593238
10928597999
10928604041
10928609534
10928615272
10928619788
10928628150
10928632972
10928639197
10928645362
10928649207
10928656287
10928661658
10928667151
10928672278
10928678931
10928685096
10928690101
10928694617
10928702979
10928706702
10928715796
10928721045
10928729651
10928733191
10928741797
10928748999
10928753638
10928758582
10928766455
10928771094
10928777503
10928782813
10928789710
10928795935
10928800513
10928804907
10928811804
10928816443
10928820410
10928827490
10928834265
10928840674
10928846777
10928852087
10928856238
10928861975
10928865881
10928871497
10928879858
10928884863
10928892493
10928895666
10928903479
10928910925
10928916235
10928924109
10928931311
10928937414
10928943091
10928949560
10928955542
10928961889
10928964880
10928973608
10928980444
10928985022
10928990942
10928996313
10929001684
10929007299
10929013708
10929018591
10929026587
10929032507
10929036963
10929041601
10929047888
10929051916
10929056677
10929063024
10929069494
10929075231
10929081457
10929085607
10929091101
10929096716
10929102026
10929107580
10929111913
10929118078
10929123144
10929127599
10929132971
10929139440
10929143408
10929147680
10929157385
10929163488
10929168066
10929173986
10929178014
10929183813
10929189794
10929194311
10929198827
10929206518
10929212499
10929218053
10929223791
10929229772
10929234594
10929240575
10929246313
10929250036
10929258397
10929265355
10929270482
10929275426
10929282567
10929287511
10929293004
10929298192
10929304540
10929310521
10929316869
10929319677
10929328222
10929333043
10929339269
10929343785
10929349401
10929361486
10929367284
10929373509
10929378026
10929383519
10929389073
10929394567
10929399510
10929405736
10929411595
10929418004
10929424779
10929432652
10929439549
10929444981
10929451085
10929460240
10929469395
10929476537
10929483617
10929491978
10929497960
10929506871
10929514806
10929522435
10929529210
10929541112
10929548070
10929557774
10929565037
10929570958
10929580052
10929585240
10929593785
10929606480
10929617955
10929622654
10929630955
10929639500
10929647068
10929654454
10929658726
10929670384
10929678074
10929685887
10929693638
10929696018
10929707188
10929713535
10929722019
10929727818
10929733616
10929742588
10929749424
10929756992
10929761082
10929767918
10929776707
10929782932
10929789890
10929795017
10929800022
10929808689
10929817417
10929824802
10929831028
10929839329
10929843357
10929852146
10929858249
10929864658
10929872715
10929880954
10929886631
10929893406
10929900181
10929908481
10929914524
10929923496
10929931369
10929938022
10929944797
10929952488
10929957798
10929966953
10929973484
10929979587
10929986057
10929993442
10929999118
10930007907
10930015109
10930024387
10930030734
10930036899
10930044711
10930050082
10930058688
10930064914
10930071445
10930081577
10930086154
10930094760
10930101718
10930110690
10930117343
10930122592
10930130710
10930135043
10930146396
10930153903
10930160617
10930167880
10930174472
10930181247
10930187655
10930196750
10930203097
10930205172
10930218600
10930224948
10930232943
10930239535
10930248202
10930256076
10930263888
10930272433
10930280612
10930293490
10930298617
10930307467
10930315402
10930320712
10930329684
10930336398
10930343600
10930351962
10930358309
10930365267
10930372713
10930380953
10930388155
10930393404
10930401583
10930406283
10930417635
10930424776
10930431551
10930441439
10930447664
10930457003
10930465304
10930471651
10930479525
10930485567
10930494295
10930500643
10930506868
10930516451
10930521883
10930526461
10930533785
10930538118
10930542513
10930549044
10930554232
10930559603
10930565401
10930570284
10930575411
10930581026
10930585359
10930590669
10930594881
10930603060
10930608431
10930614229
10930619417
10930624910
10930629122
10930635042
10930639558
10930643526
10930650484
10930655794
10930662752
10930667329
10930684175
10930689668
10930696809
10930702913
10930708711
10930711702
10930718294
10930723848
10930729219
10930733674
10930740022
10930744661
10930749971
10930756502
10930761628
10930766572
10930771882
10930776765
10930781892
10930788606
10930795625
10930800752
10930804658
10930810212
10930815400
10930820710
10930824922
10930831636
10930838227
10930842805
10930847016
10930852815
10930860078
10930864534
10930871247
10930877107
10930882966
10930890107
10930894563
10930900727
10930906159
10930911225
10930916657
10930919892
10930927155
10930932465
10930938020
10930942231
10930948579
10930954072
10930958161
10930965119
10930971040
10930976838
10930982758
10930988190
10930993073
10930998261
10931002900
10931007722
10931014924
10931020417
10931030121
10931035248
10931041352
10931047822
10931054108
10931059357
10931064362
10931072541
10931078522
10931085053
10931090119
10931095978
10931101838
10931105866
10931113312
10931119355
10931125824
10931135468
10931140717
10931144562
10931151337
10931155854
10931162567
10931167450
10931174652
10931180084
10931184662
10931190033
10931194489
10931199372
10931207062
10931211151
10931217621
10931222138
10931227203
10931233307
10931238373
10931243683
10931250031
10931254364
10931260284
10931266266
10931270477
10931274872
10931282501
10931288300
10931294281
10931299469
10931306366
10931310882
10931317535
10931322418
10931326935
10931332916
10931338531
10931344696
10931351410
10931358368
10931364044
10931368500
10931373260
10931378998
10931384491
10931391449
10931397552
10931403106
10931408538
10931412994
10931420440
10931423553
10931430755
10931435455
10931442718
10931447235
10931454925
10931459686
10931465606
10931470062
10931477264
10931482269
10931486846
10931493438
10931501373
10931506378
10931511321
10931518096
10931523467
10931527984
10931532928
10931540496
10931547088
10931552032
10931559661
10931563750
10931568328
10931575286
10931578765
10931586211
10931593291
10931600616
10931604644
10931611724
10931615630
10931623565
10931629424
10931638030
10931645110
10931651275
10931656524
10931663604
10931668670
10931674590
10931679961
10931686980
10931691924
10931698577
10931704314
10931709868
10931714324
10931718474
10931724700
10931730132
10931737700
10931742278
10931747161
10931752837
10931757659
10931763152
10931768218
10931773955
10931779692
10931786284
10931792082
10931795073
10931802092
10931807707
10931813384
10931817717
10931823821
10931828215
10931835906
10931840361
10931846098
10931850737
10931856108
10931862395
10931866789
10931873564
10931878142
10931883086
10931888274
10931893645
10931899321
10931904814
10931910185
10931915068
10931920012
10931928374
10931932951
10931939421
10931944304
10931949858
10931955229
10931960356
10931967375
10931972868
10931979094
10931984526
10931991118
10931998198
10932005156
10932012419
10932018339
10932024931
10932032804
10932039335
10932046354
10932054167
10932056425
10932068632
10932075590
10932081449
10932091703
10932098051
10932106901
10932111418
10932119718
10932127836
10932134062
10932142790
10932147733
10932158537
10932166410
10932172636
10932181791
10932189054
10932195463
10932202604
10932210233
10932216032
10932225187
10932232145
10932242032
10932250211
10932258329
10932263883
10932272672
10932279996
10932285367
10932293180
10932297757
10932310025
10932317472
10932323270
10932332791
10932344205
10932351224
10932359708
10932368314
10932377042
10932386685
10932393643
10932402921
10932409818
10932419217
10932426419
10932433926
10932438992
10932446256
10932452969
10932462491
10932468167
10932475186
10932482999
10932488065
10932494717
10932502164
10932508267
10932514004
10932521512
10932529141
10932536526
10932540799
10932550625
10932556546
10932562588
10932569424
10932575467
10932584256
10932592068
10932598172
10932604519
10932611416
10932618435
10932623989
10932631924
10932638821
10932645291
10932652249
10932660671
10932668362
10932675198
10932683987
10932688259
10932696865
10932704128
10932709133
10932719387
10932729275
10932735684
10932742214
10932748989
10932756435
10932763149
10932769070
10932775783
10932782192
10932793301
10932799770
10932806850
10932814663
10932823391
10932830471
10932835903
10932843349
10932849514
10932856289
10932863857
10932873928
10932880336
10932884731
10932893276
10932897487
10932907680
10932913906
10932919582
10932929714
10932935817
10932944484
10932951564
10932958888
10932966640
10932972682
10932980861
10932985134
10932995082
10933002162
10933010097
10933017360
10933024013
10933029994
10933036708
10933044032
10933051540
10933057887
10933065150
10933072414
10933082179
10933088588
10933093776
10933101649
10933110499
10933116908
10933123805
10933131984
10933140529
10933147059
10933153590
10933160853
10933168055
10933175990
10933183619
10933190760
10933198268
10933207484
10933217433
10933224086
10933234095
10933239161
10933245692
10933254481
10933261988
10933270777
10933278773
10933286036
10933291834
10933300440
10933305323
10933315455
10933322169
10933327357
10933332240
10933336817
10933345850
10933352259
10933357386
10933363123
10933368250
10933373316
10933378687
10933383997
10933388453
10933395289
10933399561
10933403956
10933411097
10933417017
10933420374
10933426966
10933432154
10933439783
10933443934
10933450770
10933454676
10933460779
10933465845
10933471705
10933476526
10933485193
10933490259
10933496119
10933500635
10933505274
10933512842
10933517054
10933524195
10933529383
10933535425
10933541895
10933547632
10933551844
10933559351
10933566004
10933572107
10933577051
10933585169
10933589380
10933597742
10933604395
10933611170
10933614771
10933622217
10933626856
10933631982
10933639673
10933644983
10933651880
10933657373
10933662988
10933666894
10933673059
10933677637
10933685022
10933691186
10933698694
10933703454
10933707971
10933715173
10933721216
10933726770
10933731225
10933737573
10933743127
10933749414
10933755945
10933762353
10933766382
10933776819
10933782861
10933789514
10933793176
10933801049
10933807153
10933815515
10933821923
10933829736
10933837548
10933844934
10933854394
10933858850
10933865930
10933876489
10933884484
10933894616
10933899804
10933907983
10933917870
10933926232
10933933923
10933944726
10933953088
10933960046
10933968102
10933975060
10933982445
10933988183
10933993615
10934001855
10934007897
10934015893
10934021447
10934026940
10934033104
10934037438
10934044274
10934049279
10934055016
10934060875
10934066124
10934072228
10934077538
10934082604
10934089867
10934095238
10934100914
10934108178
10934114708
10934118737
10934127098
10934131676
10934138268
10934143944
10934150475
