14851931217
14851937992
14851943546
14851950260
14851954410
14851961307
14851968143
14851974246
14851980289
14851986575
14851992801
14851998172
14852005557
14852011234
14852016666
14852023135
14852029422
14852035648
14852043826
14852049564
14852057132
14852063724
14852070316
14852075931
14852083316
14852090213
14852096805
14852104373
14852111697
14852117435
14852124637
14852130008
14852138492
14852146060
14852151858
14852159366
14852165225
14852172976
14852178592
14852187075
14852193728
14852200869
14852206363
14852212405
14852219851
14852225283
14852234011
14852241152
14852247622
14852255007
14852260256
14852267947
14852274905
14852281985
14852290225
14852296999
14852303896
14852311648
14852320315
14852326846
14852333193
14852339480
14852349612
14852354494
14852364382
14852371950
14852377138
14852385073
14852391360
14852399294
14852406313
14852413882
14852418093
14852426882
14852434878
14852442568
14852449648
14852455202
14852463869
14852470766
14852479372
14852485842
14852492861
14852499086
14852507631
14852515383
14852522951
14852529909
14852536013
14852543642
14852550173
14852558962
14852565370
14852572328
14852578493
14852586366
14852594301
14852601381
14852608522
14852615968
14852623354
14852629457
14852636659
14852642152
14852650514
14852656374
14852664918
14852673280
14852679384
14852687318
14852692873
14852701601
14852707948
14852715700
14852720399
14852731080
14852739076
14852744935
14852751771
14852760499
14852768251
14852776796
14852785585
14852794191
14852802064
14852810121
14852817628
14852825502
14852831605
14852840821
14852850282
14852857911
14852865052
14852872315
14852878968
14852888612
14852895081
14852903504
14852911805
14852919251
14852925660
14852931092
14852940125
14852946046
14852954041
14852961854
14852969544
14852976380
14852986146
14852995301
14853003846
14853012025
14853019959
14853028443
14853036439
14853043824
14853051514
14853063172
14853072327
14853079102
14853087525
14853094056
14853101685
14853108582
14853119812
14853127930
14853135010
14853145569
14853153076
14853160584
14853169373
14853177063
14853186524
14853195313
14853203064
14853208374
14853219116
14853225952
14853234863
14853243530
14853250305
14853258362
14853267761
14853275696
14853284851
14853292175
14853301758
14853309631
14853318542
14853326233
14853334839
14853343811
14853351684
14853360107
14853368164
14853377990
14853385864
14853395996
14853401001
14853411621
14853416931
14853429077
14853437011
14853445312
14853452941
14853459472
14853468261
14853475524
14853484496
14853490905
14853499755
14853506774
14853518249
14853523254
14853532897
14853542968
14853551391
14853558654
14853569640
14853578185
14853587463
14853595336
14853604919
14853612121
14853622802
14853629943
14853640258
14853648375
14853657714
14853666137
14853674743
14853684081
14853692809
14853700499
14853708434
14853716002
14853724608
14853732299
14853740721
14853747801
14853755614
14853763121
14853771849
14853779418
14853787474
14853795226
14853803221
14853814024
14853820372
14853827635
14853836729
14853843687
14853852965
14853859190
14853870055
14853878416
14853885802
14853891478
14853901304
14853909727
14853917601
14853923826
14853933836
14853941771
14853951536
14853959898
14853967833
14853975645
14853984373
14853992674
14854003111
14854008055
14854016294
14854023619
14854032408
14854041624
14854049497
14854056883
14854064390
14854072630
14854079466
14854087034
14854094358
14854102171
14854110471
14854118345
14854127256
14854135374
14854146543
14854155942
14854164976
14854172788
14854181211
14854188047
14854195432
14854202146
14854210447
14854218931
14854226743
14854236326
14854245664
14854253049
14854259092
14854270688
14854280271
14854286252
14854294858
14854299375
14854310605
14854316892
14854328549
14854338681
14854345456
14854354184
14854361997
14854367917
14854378720
14854382810
14854392697
14854401608
14854409726
14854418942
14854426022
14854434933
14854443417
14854451047
14854460385
14854466794
14854477963
14854484616
14854495480
14854504941
14854512082
14854518429
14854524533
14854529904
14854537655
14854543576
14854549008
14854556698
14854562924
14854567746
14854572995
14854581540
14854585080
14854593502
14854598629
14854604489
14854611019
14854617001
14854623532
14854628292
14854635128
14854639828
14854646542
14854652828
14854657650
14854664059
14854670284
14854676571
14854683224
14854688046
14854693234
14854699520
14854705685
14854712887
14854716976
14854726620
14854732479
14854738888
14854744747
14854751339
14854757076
14854762081
14854768551
14854774471
14854780208
14854785519
14854791866
14854795406
14854804195
14854809444
14854815304
14854820980
14854825313
14854831417
14854837887
14854843624
14854849300
14854855159
14854860897
14854868160
14854871700
14854878658
14854884517
14854889217
14854896968
14854901363
14854907711
14854912654
14854919063
14854924251
14854930477
14854936275
14854943721
14854948116
14854955623
14854961849
14854967830
14854973262
14854979732
14854986263
14854991451
14854997554
14855003475
14855008479
14855012752
14855018794
14855023921
14855031184
14855037654
14855042476
14855048824
14855053462
14855059138
14855064937
14855070491
14855077388
14855084590
14855089534
14855095332
14855100947
14855105952
14855111384
14855119441
14855122920
14855130855
14855134639
14855143123
14855148066
14855153621
14855160395
14855165217
14855172541
14855177424
14855184993
14855189875
14855195613
14855200679
14855208918
14855212764
14855220149
14855226252
14855232661
14855238520
14855243952
14855250727
14855256037
14855263423
14855268427
14855275019
14855279597
14855287470
14855291255
14855299555
14855304743
14855310420
14855318598
14855323969
14855330988
14855336054
14855342036
14855346735
14855353815
14855358942
14855366389
14855371088
14855377680
14855384333
14855389460
14855396845
14855402155
14855406855
14855412531
14855419184
14855425837
14855430903
14855438105
14855443171
14855449579
14855455744
14855460016
14855466059
14855471796
14855477472
14855483881
14855489435
14855495478
14855499384
14855506952
14855512873
14855518793
14855523554
14855529962
14855536310
14855541742
14855547663
14855553888
14855559320
14855565546
14855572016
14855578302
14855584345
14855589655
14855595514
14855600458
14855605280
14855611932
14855617548
14855625177
14855630731
14855636346
14855642755
14855649103
14855655756
14855662103
14855668329
14855674554
14855679864
14855684320
14855690545
14855697137
14855702997
14855707635
14855713067
14855718500
14855726434
14855731622
14855740228
14855744195
14855751825
14855758111
14855764581
14855770807
14855777765
14855783075
14855788079
14855794427
14855800347
14855807489
14855811517
14855819207
14855825799
14855831780
14855837335
14855842217
14855849481
14855856133
14855861443
14855867181
14855873773
14855877374
14855884087
14855891229
14855896417
14855902886
14855908318
14855913873
14855921075
14855927789
14855933038
14855938836
14855945306
14855951043
14855956292
14855962212
14855968255
14855972649
14855978387
14855984368
14855989861
14855994744
14856002923
14856006524
14856013848
14856017632
14856025628
14856029107
14856035882
14856042962
14856047661
14856053643
14856059502
14856065789
14856071282
14856077568
14856084282
14856090264
14856095147
14856100579
14856106194
14856111870
14856118645
14856124993
14856130120
14856135552
14856143059
14856148979
14856154717
14856161247
14856167778
14856173943
14856179009
14856186089
14856192558
14856197502
14856202202
14856208366
14856214775
14856221123
14856224663
14856232475
14856238884
14856245415
14856250969
14856256706
14856263359
14856269218
14856275139
14856281547
14856287834
14856293876
14856298698
14856304436
14856311821
14856317924
14856322868
14856329948
14856336296
14856342460
14856349479
14856355522
14856360466
14856369194
14856373283
14856380851
14856387199
14856392936
14856399894
14856405021
14856411857
14856416862
14856422538
14856429008
14856434867
14856439628
14856447807
14856453422
14856459953
14856465568
14856471061
14856478629
14856483939
14856490531
14856496391
14856502128
14856507804
14856514152
14856519401
14856525260
14856528739
14856536369
14856542228
14856548331
14856554069
14856560599
14856566886
14856572684
14856577994
14856583243
14856589591
14856595511
14856601981
14856607902
14856614982
14856621329
14856626578
14856633841
14856638724
14856644767
14856649222
14856654349
14856660758
14856667105
14856671988
14856678092
14856684256
14856688834
14856696280
14856702750
14856709525
14856713736
14856720389
14856725760
14856732474
14856736930
14856743277
14856748465
14856755423
14856760306
14856766898
14856770438
14856777274
14856784659
14856791007
14856796561
14856802664
14856808340
14856813651
14856820547
14856825796
14856832693
14856839041
14856843314
14856849478
14856856497
14856862234
14856867667
14856874563
14856879812
14856886770
14856890494
14856899283
14856903189
14856911123
14856916250
14856922537
14856928335
14856934256
14856939688
14856944998
14856951162
14856958242
14856964651
14856968313
14856976309
14856983023
14856989248
14856995169
14857000845
14857007559
14857011770
14857017141
14857023428
14857030630
14857036001
14857041250
14857045339
14857053762
14857059988
14857066641
14857072988
14857077871
14857083975
14857089651
14857095449
14857100820
14857107534
14857113088
14857119131
14857125722
14857131155
14857136953
14857142629
14857149831
14857156362
14857163076
14857168081
14857174428
14857180776
14857186574
14857190298
14857197133
14857202932
14857208730
14857215383
14857220266
14857226674
14857232534
14857239370
14857244619
14857250417
14857255300
14857262136
14857268605
14857274770
14857278249
14857287282
14857294118
14857299001
14857303456
14857311086
14857317372
14857323598
14857329824
14857334706
14857340810
14857347096
14857352712
14857358815
14857365468
14857370351
14857377004
14857381520
14857388844
14857393666
14857399892
14857404652
14857410634
14857417287
14857423573
14857429372
14857435414
14857442311
14857448659
14857454152
14857460072
14857465077
14857472523
14857477101
14857482228
14857487233
14857494679
14857499684
14857506093
14857512013
14857516896
14857521718
14857528126
14857533619
14857538807
14857544239
14857549244
14857554188
14857561390
14857566883
14857572132
14857577748
14857585255
14857591786
14857597035
14857603443
14857610523
14857615956
14857622242
14857628712
14857633595
14857640064
14857646412
14857653004
14857657826
14857664173
14857670216
14857675221
14857681507
14857688099
14857692432
14857699390
14857705982
14857711658
14857716419
14857722523
14857729420
14857735035
14857741627
14857747730
14857752369
14857758472
14857765247
14857770679
14857775867
14857781788
14857786609
14857794483
14857799610
14857805103
14857811756
14857817676
14857822925
14857828663
14857833728
14857840381
14857845264
14857852405
14857858142
14857863697
14857869007
14857876148
14857882190
14857889576
14857893604
14857901294
14857907581
14857914356
14857918079
14857926990
14857934558
14857941028
14857945972
14857953357
14857959705
14857966297
14857972949
14857979053
14857983508
14857991382
14857997485
14858003528
14858009998
14858015979
14858021045
14858027026
14858033435
14858039539
14858044849
14858050891
14858057361
14858061816
14858067859
14858073840
14858080127
14858086719
14858092395
14858098315
14858103564
14858108325
14858113879
14858119983
14858124926
14858131823
14858137622
14858142688
14858148364
14858153308
14858160144
14858165026
14858170947
14858178271
14858183398
14858188830
14858196093
14858201953
14858207141
14858212390
14858220019
14858224230
14858231494
14858237353
14858243212
14858249072
14858254870
14858260241
14858266589
14858272692
14858278979
14858284472
14858290698
14858295763
14858301867
14858308825
14858313769
14858319750
14858325976
14858332384
14858337389
14858344164
14858348986
14858356921
14858361803
14858368334
14858374132
14858380236
14858384752
14858390246
14858396410
14858401903
14858406908
14858413866
14858420519
14858426684
14858432055
14858438524
14858445543
14858450792
14858456957
14858463427
14858468004
14858474535
14858479540
14858486498
14858490160
14858497301
14858502794
14858507616
14858512438
14858518846
14858524340
14858530199
14858533800
14858540880
14858546800
14858551378
14858556261
14858563646
14858570848
14858576280
14858583116
14858589586
14858594286
14858599718
14858604662
14858610399
14858614976
14858620836
14858627306
14858633043
14858637743
14858643419
14858648790
14858654344
14858661241
14858666673
14858673387
14858680406
14858685716
14858692247
14858699205
14858704576
14858710924
14858717881
14858723741
14858730394
14858735948
14858743089
14858749742
14858755418
14858762071
14858766954
14858774888
14858781541
14858787522
14858793382
14858800279
14858806748
14858812913
14858818406
14858825608
14858831040
14858836778
14858841111
14858848863
14858851487
14858860032
14858867600
14858872727
14858881211
14858886643
14858893296
14858898606
14858905625
14858911057
14858918198
14858923264
14858929246
14858934617
14858941148
14858946397
14858954026
14858960007
14858966294
14858972031
14858979050
14858982834
14858991807
14858999131
14859005356
14859009079
14859017930
14859022324
14859029160
14859035691
14859040513
14859047715
14859053757
14859060105
14859066208
14859074265
14859081223
14859087204
14859093613
14859100144
14859105210
14859113449
14859119614
14859126389
14859132553
14859137863
14859143173
14859150437
14859155625
14859163498
14859168747
14859176376
14859180527
14859190109
14859197739
14859204941
14859211777
14859218002
14859224350
14859230514
14859236069
14859242416
14859247909
14859254135
14859260788
14859266708
14859272873
14859279281
14859284836
14859291610
14859298080
14859303085
14859310226
14859317184
14859323044
14859330185
14859336105
14859343002
14859349533
14859355026
14859361557
14859366378
14859372909
14859376327
14859383529
14859388961
14859394760
14859399948
14859408676
14859415145
14859421127
14859426864
14859434616
14859438583
14859446334
14859452926
14859459396
14859464156
14859471237
14859475814
14859482772
14859488937
14859493392
14859496810
14859505233
14859509505
14859516647
14859522018
14859527877
14859532882
14859538619
14859543502
14859549422
14859555282
14859560958
14859566329
14859570724
14859577254
14859582503
14859589889
14859595321
14859602462
14859607833
14859614608
14859621199
14859628341
14859633223
14859640181
14859647017
14859652083
14859656600
14859662886
14859669051
14859673812
14859680098
14859685347
14859692000
14859696883
14859703475
14859709334
14859714461
14859720198
14859725875
14859734236
14859739852
14859746687
14859752242
14859759261
14859764632
14859771956
14859778670
14859785017
14859789046
14859797835
14859801802
14859810042
14859816328
14859822371
14859828108
14859834761
14859840437
14859846785
14859852339
14859858809
14859865217
14859871626
14859878828
14859883101
14859890181
14859895491
14859902693
14859907698
14859914778
14859921431
14859927778
14859933210
14859939436
14859944075
14859950544
14859955061
14859961103
14859967390
14859972578
14859977217
14859984480
14859990095
14859996138
14860001203
14860008833
14860013899
14860020735
14860026472
14860031477
14860036421
14860042829
14860048383
14860053266
14860058210
14860064375
14860069380
14860075727
14860082075
14860089033
14860093122
14860102399
14860109479
14860115156
14860119794
14860125532
14860132917
14860137922
14860144575
14860149518
14860156660
14860161603
14860168561
14860175580
14860179731
14860185895
14860191633
14860196576
14860202253
14860207441
14860213178
14860219587
14860225202
14860230268
14860236371
14860241742
14860250592
14860254438
14860262067
14860267682
14860273236
14860276837
14860285016
14860292096
14860298810
14860305036
14860311444
14860317243
14860323590
14860329328
14860335919
14860342877
14860348187
14860351544
14860362042
14860368329
14860375043
14860381329
14860385785
14860391705
14860397565
14860403546
14860408063
14860414288
14860420087
14860426434
14860431256
14860438214
14860442670
14860449567
14860454083
14860460797
14860465619
14860471295
14860476788
14860484845
14860489911
14860494916
14860501507
14860507367
14860512738
14860519085
14860524517
14860531231
14860536602
14860542950
14860548565
14860554913
14860560467
14860567303
14860572674
14860581097
14860585064
14860593121
14860596844
14860603863
14860607525
14860614727
14860618328
14860626324
14860633648
14860638958
14860642376
14860652203
14860659039
14860665203
14860672100
14860676739
14860684246
14860689556
14860696026
14860702557
14860708965
14860714092
14860721966
14860727093
14860734661
14860739605
14860746563
14860751385
14860757915
14860763775
14860769756
14860774151
14860780620
14860785930
14860793194
14860798504
14860806072
14860811504
14860819378
14860824443
14860831524
14860836834
14860843425
14860849224
14860855571
14860860393
14860868572
14860873699
14860879680
14860884685
14860890422
14860895305
14860901042
14860907207
14860913494
14860918376
14860923931
14860928935
14860935527
14860940593
14860947063
14860952739
14860957744
14860962627
14860969157
14860974651
14860980266
14860986003
14860993510
14860997661
14861005840
14861009624
14861018352
14861022258
14861030803
14861034526
14861043742
14861047343
14861056193
14861063212
14861068645
14861072001
14861080485
14861086223
14861091838
14861096415
14861102519
14861106120
14861113749
14861117595
14861125468
14861129191
14861137248
14861144023
14861150065
14861157389
14861162028
14861169047
14861175578
14861181132
14861187907
14861193522
14861197856
14861205241
14861210429
14861217326
14861222331
14861229838
14861236002
14861242960
14861246867
14861254984
14861258646
14861266947
14861271342
14861277995
14861285075
14861291056
14861296244
14861302348
14861308512
14861314616
14861321574
14861326212
14861333597
14861338175
14861345194
14861351664
14861358072
14861363322
14861370341
14861375712
14861383158
14861388224
14861395426
14861400553
14861407145
14861412211
14861419291
14861424357
14861431253
14861436747
14861442545
14861448099
14861454447
14861460062
14861465799
14861471537
14861479654
14861484903
14861490824
14861496927
14861502909
14861508585
14861514383
14861519998
14861526285
14861532755
14861538736
14861543985
14861548258
14861555521
14861560159
14861565958
14861572183
14861577310
14861581888
14861587930
14861594400
14861598978
14861603555
14861610879
14861616312
14861621744
14861627115
14861633462
14861639993
14861645486
14861652078
14861658609
14861665201
14861671548
14861678140
14861683572
14861690286
14861695352
14861702798
14861708658
14861714639
14861720803
14861726663
14861730813
14861738076
14861745095
14861751992
14861758340
14861764138
14861770120
14861774392
14861781106
14861785317
14861792764
14861799050
14861804482
14861810769
14861816018
14861822305
14861827371
14861833779
14861841226
14861846841
14861851479
14861856179
14861862771
14861867837
14861874734
14861881692
14861887612
14861894082
14861899880
14861904763
14861910622
14861917031
14861921365
14861928689
14861934975
14861940835
14861945107
14861952065
14861956765
14861963235
14861967812
14861975075
14861979958
14861986977
14861990273
14861997231
14862001870
14862009255
14862015297
14862021401
14862027443
14862032998
14862038491
14862043984
14862049538
14862055153
14862061379
14862066140
14862073708
14862077919
14862083351
14862089028
14862095375
14862101235
14862108071
14862113198
14862120461
14862126137
14862132546
14862138344
14862143654
14862148598
14862156227
14862162575
14862168495
14862174599
14862180824
14862187294
14862193214
14862199074
14862204933
14862211830
14862216225
14862223061
14862227272
14862234535
14862238930
14862247719
14862252662
14862258095
14862264137
14862269325
14862275245
14862281532
14862286293
14862293983
14862299965
14862305885
14862311561
14862317726
14862323280
14862329078
14862334877
14862342079
14862347206
14862353004
14862359718
14862365699
14862371742
14862377662
14862384071
14862390602
14862396827
14862401100
14862407691
14862411903
14862418434
14862424293
14862430824
14862436012
14862441688
14862448463
14862453101
14862457984
14862465125
14862470130
14862478187
14862484046
14862489600
14862492896
14862500465
14862506751
14862512366
14862517921
14862523780
14862530067
14862534461
14862541114
14862546973
14862552222
14862556434
14862563025
14862569556
14862576026
14862581275
14862587867
14862592872
14862598731
14862605933
14862612342
14862616065
14862622840
14862627539
14862635047
14862638526
14862646582
14862650061
14862658911
14862664771
14862670447
14862676978
14862681250
14862687537
14862693091
14862699744
14862706275
14862711951
14862718054
14862723059
14862728980
14862734412
14862739417
14862747168
14862752844
14862758887
14862762244
14862769080
14862773779
14862781165
14862787512
14862793921
14862800269
14862806128
14862811438
14862817175
14862823340
14862827612
14862834387
14862840002
14862846594
14862852942
14862858557
14862864599
14862870642
14862875586
14862883276
14862888891
14862894629
14862900061
14862905737
14862911169
14862916418
14862921179
14862928198
14862934179
14862939733
14862946142
14862951635
14862957128
14862962683
14862967688
14862973669
14862980749
14862984960
14862992102
14862996496
14863002172
14863008154
14863014929
14863019628
14863026403
14863030981
14863036291
14863040868
14863047582
14863052160
14863059362
14863065710
14863069921
14863074499
14863081640
14863087011
14863092565
14863098119
14863104101
14863111059
14863116735
14863122228
14863127660
14863132543
14863138097
14863143651
14863149328
14863156713
14863161107
14863168126
14863172948
14863178930
14863184972
14863191991
14863197301
14863204686
14863210485
14863216100
14863221715
14863227208
14863230504
14863239476
14863244664
14863250585
14863256200
14863261876
14863267980
14863273595
14863280370
14863286412
14863292333
14863296483
14863303075
14863307408
14863314061
14863318578
14863326512
14863331578
14863337865
14863342687
14863349034
14863353734
14863360143
14863364842
14863374120
14863378453
14863384862
14863390843
14863396336
14863402013
14863407872
14863413487
14863419896
14863426732
14863430882
14863437779
14863441990
14863448887
14863453343
14863460240
14863466527
14863472142
14863476780
14863482518
14863487340
14863493321
14863499180
14863506321
14863509922
14863517552
14863523167
14863529759
14863533116
14863540928
14863546910
14863553685
14863558079
14863564793
14863571018
14863576512
14863582371
14863587925
14863595005
14863601292
14863606846
14863611729
14863618321
14863623142
14863629734
14863634434
14863641270
14863646458
14863652622
14863657261
14863663731
14863668369
14863674839
14863680698
14863686802
14863693211
14863698826
14863702915
14863709263
14863714878
14863720371
14863727756
14863734287
14863740208
14863746677
14863752659
14863757786
14863763828
14863770298
14863777805
14863783970
14863789890
14863793552
14863800998
14863805637
14863812168
14863817722
14863824924
14863831394
14863837314
14863843540
14863849399
14863854282
14863860202
14863866367
14863872653
14863880039
14863885044
14863890598
14863896884
14863902378
14863908847
14863916293
14863921481
14863927829
14863933139
14863938999
14863944186
14863950412
14863953586
14863962070
14863968112
14863973666
14863979648
14863985568
14863991672
14863997531
14864003146
14864009189
14864016452
14864020846
14864027560
14864031772
14864038669
14864043246
14864049838
14864056918
14864062045
14864066867
14864073337
14864077914
14864084323
14864088961
14864095675
14864101596
14864108615
14864114779
14864120639
14864126559
14864132357
14864136813
14864145541
14864151400
14864157016
14864163180
14864169223
14864174594
14864181002
14864186862
14864193575
14864199740
14864204440
14864211031
14864215792
14864221652
14864226412
14864235262
14864240939
14864246798
14864252352
14864257845
14864261691
14864268649
14864272066
14864280917
14864285433
14864292757
14864298434
14864304049
14864309725
14864313937
14864320833
14864326998
14864332918
14864337191
14864344515
14864349337
14864355807
14864360201
14864367769
14864372957
14864380892
14864386751
14864391451
14864396334
14864404024
14864410006
14864416964
14864423006
14864428804
14864434664
14864440401
14864446382
14864452303
14864458101
14864464327
14864469942
14864475862
14864481417
14864486055
14864491609
14864497530
14864504610
14864510225
14864515657
14864520601
14864526705
14864531343
14864537996
14864542879
14864551057
14864557222
14864563264
14864569307
14864575349
14864582002
14864588106
14864592927
14864599519
14864606294
14864611909
14864617586
14864623262
14864629732
14864634126
14864642915
14864649934
14864654817
14864660676
14864668062
14864673372
14864679963
14864683137
14864692048
14864697419
14864703035
14864707002
14864713838
14864719209
14864724641
14864731904
14864738069
14864743562
14864749238
14864754060
14864760041
14864764802
14864770661
14864777680
14864782624
14864789338
14864794221
14864804963
14864810334
14864821809
14864831269
14864840913
14864848481
14864856599
14864866914
14864875642
14864884125
14864895478
14864908906
14864927827
14864947602
14864965119
14864984284
14865006623
14865024506
14865042450
14865058869
14865077545
14865094574
14865112335
14865128937
14865145538
14865156952
14865170502
14865180328
14865189545
14865200531
14865218536
14865237274
14865256927
14865274933
14865294647
14865304474
14865313873
14865323577
14865332244
14865341156
14865350738
14865359344
14865368316
14865377716
14865387359
14865397369
14865405486
14865415008
14865423431
14865433807
14865441924
14865451446
14865461211
14865470245
14865478912
14865487701
14865496734
14865505035
14865513824
14865522613
14865533904
14865540557
14865550078
14865556243
14865567046
14865575652
14865585051
14865593657
14865605437
14865616851
14865626433
14865634917
14865645659
14865653899
14865664763
14865675444
14865686247
14865695098
14865704131
14865713408
14865723479
14865731963
14865742156
14865752531
14865759306
14865762480
14865770659
14865777739
14865783232
14865789458
14865795134
14865801848
14865806914
14865812346
14865817412
14865824431
14865830595
14865837187
14865844328
14865850676
14865856291
14865861723
14865867582
14865874113
14865878996
14865887236
14865892973
14865898954
14865904142
14865910856
14865917326
14865923918
14865929472
14865935148
14865942289
14865947966
14865954069
14865959989
14865966215
14865972563
14865977323
14865983122
14865988981
14865994962
14866001493
14866007292
14866013761
14866018339
14866026823
14866033537
14866039335
14866046110
14866051847
14866058195
14866065214
14866071012
14866077177
14866082792
14866089567
14866094572
14866101346
14866107328
14866114225
14866119596
14866126249
14866132230
14866138700
14866143705
14866150602
14866155851
14866161466
14866167203
14866171415
14866178190
14866182767
14866190824
14866195951
14866201261
14866207120
14866211637
14866218778
14866224698
14866230008
14866237271
14866242520
14866249112
14866254056
14866260587
14866266446
14866271573
14866278775
14866283902
14866289578
14866295926
14866301785
14866307340
14866313870
14866319302
14866325833
14866330960
14866336636
14866340848
14866349637
14866354764
14866360562
14866366727
14866371915
14866376614
14866384061
14866390713
14866396268
14866402066
14866408597
14866414029
14866421414
14866427884
14866433377
14866439969
14866445401
14866452054
14866457425
14866462674
14866469265
14866476101
14866483426
14866489773
14866495144
14866500637
14866506131
14866513821
14866520230
14866525174
14866532193
14866538479
14866544277
14866550991
14866556729
14866562527
14866569180
14866574551
14866581204
14866586270
14866592800
14866598904
14866604946
14866610012
14866617397
14866623074
14866628506
14866633633
14866640835
14866645901
14866651577
14866657619
14866663235
14866667812
14866675014
14866681667
14866686306
14866693081
14866698696
14866704677
14866709316
14866716335
14866722072
14866727016
14866733608
14866739956
14866745815
14866750332
14866757961
14866765163
14866774074
14866781032
14866787014
14866791774
14866798671
14866804226
14866811245
14866816433
14866822780
14866828090
14866834255
14866840480
14866846767
14866852748
14866858669
14866863491
14866870449
14866877101
14866882656
14866888515
14866893337
14866901088
14866907497
14866912746
14866919154
14866925746
14866930446
14866937343
14866941921
14866948146
14866954799
14866961940
14866967555
14866973415
14866978480
14866983241
14866990199
14866997584
14867002528
14867009791
14867014857
14867021571
14867027675
14867033229
14867040858
14867045802
14867051967
14867059291
14867064845
14867069789
14867074244
14867082606
14867088099
14867094325
14867099574
14867104518
14867111537
14867114344
14867123194
14867128932
14867132777
14867139491
14867145350
14867150477
14867156397
14867162989
14867168666
14867173304
14867180262
14867184229
14867190333
14867195948
14867201991
14867208521
14867214808
14867220606
14867225733
14867231532
14867238856
14867244715
14867250330
14867257166
14867262171
14867269068
14867274683
14867280665
14867285914
14867292506
14867299158
14867305140
14867311243
14867317530
14867324671
14867329737
14867337000
14867344019
14867348536
14867354944
14867359949
14867367701
14867374048
14867379847
14867385279
14867390589
14867396936
14867402857
14867409815
14867415308
14867420679
14867426966
14867432520
14867439844
14867445520
14867454431
14867460352
14867467310
14867473108
14867478113
14867484766
14867489771
14867497034
14867501184
14867507471
14867513574
14867520105
14867526636
14867531397
14867539392
14867545313
14867551965
14867556909
14867562463
14867568445
14867574731
14867582666
14867588098
14867594263
14867600976
14867605615
14867612146
14867616846
14867624719
14867630029
14867636743
14867643518
14867647729
14867655481
14867660608
14867667444
14867673425
14867679590
14867685510
14867691308
14867696923
14867701989
14867709069
14867714257
14867720483
14867726037
14867733605
14867739587
14867744409
14867752465
14867758325
14867764611
14867770165
14867774621
14867782067
14867787988
14867795373
14867801843
14867807641
14867814172
14867819299
14867826257
14867830529
14867838647
14867845116
14867851098
14867857446
14867863122
14867869225
14867875878
14867880334
14867886132
14867892602
14867898278
14867903222
14867910790
14867915612
14867921593
14867932396
14867939538
14867945580
14867950890
14867958092
14867961571
14867970849
14867977929
14867982933
14867989586
14867995507
14868000328
14868007470
14868012047
14868019554
14868025292
14868030968
14868037194
14868043602
14868048912
14868054650
14868060692
14868067650
14868070885
14868078697
14868084435
14868090599
14868095604
14868102196
14868108116
14868111229
14868118431
14868125328
14868131249
14868137657
14868143700
14868148705
14868155235
14868160667
14868167625
14868173973
14868179527
14868186119
14868191307
14868197044
14868201073
14868209190
14868214866
14868220299
14868226341
14868229454
14868238365
14868244774
14868251548
14868256736
14868263450
14868268943
14868277122
14868282982
14868288658
14868295555
14868299949
14868305503
14868310936
14868318382
14868325218
14868329002
14868335899
14868342735
14868347312
14868354637
14868359275
14868366538
14868372764
14868378135
14868383994
14868388450
14868397361
14868403037
14868409141
14868415366
14868420799
14868425987
14868432273
14868438316
14868445823
14868450095
14868455894
14868460471
14868468040
14868474387
14868480918
14868487022
14868492698
14868499412
14868505637
14868509910
14868516318
14868522788
14868528464
14868534446
14868540976
14868547568
14868553183
14868558799
14868565452
14868571494
14868577475
14868582358
14868588889
14868595359
14868601035
14868607077
14868612082
14868619101
14868623801
14868629721
14868636069
14868642417
14868649069
14868655112
14868660849
14868667075
14868673117
14868679160
14868684531
14868691428
14868696372
14868702536
14868709128
14868712424
14868722739
14868728415
14868734396
14868740744
14868746848
14868753439
14868760031
14868766501
14868771811
14868778891
14868784079
14868790243
14868796103
14868802450
14868808493
14868814474
14868820883
14868826925
14868833395
14868839560
14868845846
14868851584
14868858114
14868862875
14868867514
14868875448
14868881613
14868885458
14868892294
14868898581
14868904318
14868911337
14868916830
14868923483
14868928793
14868936178
14868941183
14868947592
14868953878
14868957113
14868965353
14868971090
14868976705
14868983236
14868988241
14868993856
14869000570
14869005819
14869012167
14869018697
14869023702
14869030843
14869035238
14869041402
14869048788
14869054586
14869060323
14869064474
14869071310
14869077108
14869083944
14869090047
14869095235
14869101400
14869106405
14869113607
14869119649
14869125753
14869131429
14869136373
14869142904
14869149190
14869155172
14869161092
14869166829
14869173482
14869177877
14869184957
14869190816
14869196248
14869205159
14869211019
14869215779
14869223226
14869228414
14869234761
14869240865
14869246297
14869253011
14869258870
14869264729
14869270345
14869276143
14869282430
14869287923
14869293416
14869298543
14869305867
14869310933
14869318074
14869323262
14869327779
14869335957
14869342427
14869347981
14869353596
14869358357
14869365681
14869372395
14869377461
14869382893
14869388508
14869394368
14869400410
14869406087
14869412861
14869418782
14869425618
14869430012
14869437642
14869443318
14869449177
14869455098
14869459858
14869466450
14869472554
14869478474
14869485859
14869492329
14869497456
14869504475
14869509175
14869516743
14869520100
14869528523
14869534626
14869540364
14869547016
14869553791
14869559590
14869566181
14869571736
14869578144
14869583882
14869591084
14869596577
14869601399
14869608296
14869615559
14869620747
14869626057
14869633076
14869638386
14869644367
14869652607
14869657551
14869663166
14869670185
14869674396
14869681660
14869688373
14869694477
14869702228
14869706806
14869714130
14869719074
14869726276
14869730976
14869736652
14869743610
14869749714
14869755207
14869760700
14869766620
14869774067
14869780170
14869785358
14869791950
14869795856
14869803852
14869807758
14869815204
14869821857
14869826862
14869833148
14869839801
14869845416
14869851886
14869856708
14869863727
14869870075
14869876239
14869883136
14869886676
14869894367
14869900958
14869905963
14869912555
14869919513
14869925616
14869932208
14869936725
14869944171
14869949969
14869955768
14869962054
14869967975
14869974567
14869980365
14869987201
14869991962
14869996966
14870003680
14870010272
14870015338
14870021502
14870027728
14870033526
14870037799
14870044207
14870051837
14870058184
14870065265
14870071917
14870078448
14870084796
14870090838
14870098346
14870103900
14870110614
14870116656
14870122637
14870128314
14870134234
14870140765
14870146929
14870153582
14870163836
14870169329
14870177874
14870182574
14870189837
14870197527
14870204730
14870210528
14870216937
14870224871
14870230914
14870236529
14870243792
14870250811
14870257220
14870263079
14870267596
14870274126
14870281328
14870286944
14870293596
14870298418
14870305315
14870313189
14870318621
14870325152
14870332171
14870339312
14870344561
14870349871
14870354143
14870362627
14870368303
14870374102
14870380449
14870385088
14870391130
14870397661
14870403521
14870409258
14870414568
14870419756
14870424578
14870431291
14870436785
14870443987
14870449968
14870455950
14870460832
14870467607
14870472612
14870478044
14870484026
14870491350
14870495317
14870502947
14870506426
14870513322
14870521867
14870525652
14870533098
14870539140
14870543840
14870550005
14870556047
14870562761
14870568559
14870573564
14870580278
14870586320
14870591508
14870596269
14870604448
14870611345
14870616716
14870623430
14870627397
14870633745
14870639604
14870645707
14870652116
14870656938
14870662980
14870667070
14870673967
14870677568
14870685502
14870691423
14870697404
14870703324
14870709550
14870715409
14870721940
14870726762
14870732804
14870738786
14870745683
14870751359
14870756608
14870763566
14870768449
14870776200
14870781449
14870787370
14870793900
14870798966
14870806413
14870812394
14870818131
14870825150
14870831620
14870836198
14870843522
14870850419
14870854813
14870861649
14870867081
14870872208
14870877274
14870884476
14870890153
14870896622
14870903031
14870908646
14870914689
14870920304
14870926896
14870933365
14870939835
14870946183
14870952225
14870957596
14870963944
14870969559
14870976151
14870981888
14870988236
14870993851
14871000870
14871007706
14871013871
14871021073
14871026688
14871033829
14871038895
14871044876
14871052201
14871057327
14871062943
14871069901
14871074356
14871081741
14871088211
14871093643
14871100967
14871104813
14871112442
14871118301
14871122635
14871129593
14871133865
14871141556
14871147903
14871153091
14871159561
14871163589
14871171219
14871177811
14871184036
14871189285
14871193863
14871200760
14871207840
14871212723
14871219803
14871224197
14871230972
14871235611
14871241531
14871245804
14871255081
14871261184
14871266861
14871273147
14871278213
14871285354
14871291519
14871297256
14871303665
14871308425
14871315872
14871320388
14871327346
14871335891
14871342849
14871348709
14871354446
14871359512
14871365615
14871372695
14871377944
14871385085
14871389968
14871396865
14871402236
14871409011
14871414687
14871420913
14871427749
14871433669
14871439407
14871445205
14871451003
14871458816
14871462173
14871470656
14871476028
14871482009
14871488174
14871492934
14871501296
14871506484
14871512099
14871518996
14871523635
14871531325
14871538222
14871543471
14871549941
14871554519
14871562026
14871567824
14871573195
14871580092
14871585036
14871592238
14871598281
14871603591
14871609084
14871613784
14871621840
14871627333
14871633010
14871639784
14871644057
14871650832
14871656081
14871661391
14871667250
14871674086
14871679274
14871685744
14871691359
14871698195
14871703078
14871708876
14871715224
14871720656
14871727431
14871733107
14871741225
14871747267
14871752211
14871758498
14871763136
14871770033
14871784559
14871790236
14871796583
14871802626
14871809767
14871816054
14871820814
14871828077
14871833449
14871838881
14871844618
14871851576
14871857374
14871863295
14871869276
14871876112
14871882460
14871887526
14871891859
14871899427
14871902723
14871910780
14871916822
14871923414
14871927992
14871935072
14871940809
14871946729
14871952711
14871958326
14871965040
14871970228
14871976820
14871983228
14871987989
14871994642
14872001539
14872007154
14872013441
14872018446
14872025526
14872030225
14872038099
14872043287
14872049512
14872054151
14872059827
14872066663
14872071302
14872077955
14872082288
14872090345
14872095960
14872102064
14872108228
14872112989
14872119031
14872125501
14872131849
14872137220
14872144117
14872149060
14872155713
14872160291
14872167127
14872170667
14872180371
14872186841
14872193311
14872198804
14872204724
14872210157
14872218030
14872223706
14872229322
14872236829
14872241223
14872248242
14872254895
14872260083
14872266614
14872272046
14872277722
14872283765
14872289563
14872298047
14872302625
14872309766
14872316785
14872320813
14872327710
14872334119
14872339490
14872345166
14872351453
14872357373
14872363721
14872368909
14872374890
14872379956
14872387585
14872393811
14872399121
14872404797
14872409253
14872417248
14872420422
14872427258
14872433789
14872439648
14872445507
14872452893
14872458203
14872464978
14872469799
14872476147
14872483044
14872488354
14872493847
14872500256
14872505444
14872510021
14872516064
14872520214
14872526745
14872534008
14872539807
14872545788
14872552441
14872557751
14872563610
14872569225
14872576550
14872581310
14872588146
14872593639
14872599316
14872606274
14872610241
14872617870
14872624218
14872629162
14872635693
14872641735
14872648205
14872655407
14872660290
14872666881
14872672008
14872678722
14872684582
14872689892
14872696239
14872703014
14872708324
14872714672
14872718639
14872725353
14872733043
14872739879
14872746166
14872752514
14872757396
14872763561
14872769237
14872774730
14872780162
14872786083
14872790660
14872797252
14872802135
14872809154
14872814464
14872820690
14872826610
14872832714
14872840099
14872845714
14872851573
14872857005
14872863231
14872869396
14872876598
14872882457
14872886852
14872892589
14872897899
14872903209
14872911571
14872916454
14872920970
14872928111
14872932750
14872939708
14872945079
14872949901
14872955699
14872961986
14872967784
14872972545
14872980052
14872985118
14872992320
14872997691
14873002513
14873008372
14873016551
14873021861
14873028148
14873033824
14873041942
14873047557
14873053965
14873060313
14873067088
14873072276
14873078135
14873083750
14873089976
14873095469
14873103099
14873108409
14873115306
14873119883
14873125926
14873131480
14873135996
14873143565
14873149668
14873154734
14873160410
14873166636
14873171946
14873176402
14873183421
14873189768
14873195078
14873202464
14873206309
14873213816
14873219431
14873224985
14873231455
14873236338
14873244456
14873250254
14873255686
14873261973
14873268198
14873273264
14873279490
14873285776
14873292002
14873295359
14873302622
14873310373
14873315073
14873321848
14873327036
14873333262
14873338205
14873345774
14873350840
14873356760
14873362558
14873367197
14873372812
14873379587
14873384348
14873390512
14873395700
14873400949
14873405527
14873413523
14873418894
14873425180
14873430734
14873436777
14873442392
14873448984
14873453806
14873461618
14873466196
14873473276
14873479257
14873484018
14873490244
14873494882
14873503244
14873509103
14873514902
14873519662
14873525400
14873531808
14873535715
14873544199
14873549692
14873555185
14873559762
14873565072
14873571237
14873575509
14873583871
14873589975
14873595651
14873601632
14873607858
14873613046
14873619150
14873625863
14873631662
14873637521
14873643075
14873648263
14873652658
14873658700
14873667062
14873672677
14873678048
14873684274
14873690011
14873695016
14873700936
14873707528
14873713265
14873719003
14873724130
14873729501
14873735299
14873740975
14873746957
14873752084
14873758492
14873765450
14873770638
14873777413
14873782479
14873788705
14873794259
14873799996
14873806710
14873811959
14873817025
14873821908
14873830514
14873835519
14873840646
14873847298
14873852486
14873857247
14873862496
14873869027
14873874947
14873879830
14873887642
14873892159
14873899117
14873904915
14873910531
14873917061
14873923836
14873928902
14873935189
14873940194
14873948311
14873955452
14873960946
14873967781
14873972542
14873979439
14873983528
14873990670
14873997383
14874003304
14874008248
14874013985
14874020760
14874024239
14874032784
14874038704
14874044014
14874049629
14874053719
14874061043
14874066109
14874073189
14874078865
14874084419
14874090767
14874097420
14874104134
14874110054
14874115913
14874122627
14874127754
14874134041
14874138801
14874146431
14874152595
14874157905
14874164497
14874169807
14874175850
14874182747
14874188362
14874194771
14874199898
14874207344
14874212288
14874218818
14874224800
14874230293
14874237617
14874242073
14874248726
14874253791
14874260078
14874266548
14874272041
14874277534
14874283699
14874290779
14874295417
14874302558
14874307380
14874315620
14874321357
14874326362
14874332282
14874337409
14874343696
14874348091
14874355781
14874361640
14874367011
14874374275
14874380561
14874385383
14874393745
14874400825
14874405402
14874412238
14874418037
14874423652
14874431342
14874436530
14874442817
14874448005
14874454291
14874459418
14874465766
14874473273
14874479560
14874485419
14874492621
14874497931
14874504279
14874510383
14874515326
14874522162
14874528144
14874534186
14874538947
14874545905
14874551276
14874556586
14874564460
14874568732
14874576056
14874579352
14874585761
14874592353
14874598212
14874604315
14874611273
14874616706
14874621771
14874627936
14874634406
14874640997
14874647162
14874653388
14874658515
14874663580
14874670050
14874676215
14874682501
14874688422
14874695136
14874699286
14874707404
14874713263
14874719366
14874725714
14874730353
14874737189
14874742804
14874748541
14874756842
14874763312
14874768255
14874775641
14874780157
14874787481
14874791876
14874800543
14874805060
14874811834
14874817022
14874823309
14874828680
14874835455
14874841620
14874847906
14874854498
14874860357
14874865667
14874871038
14874879339
14874885076
14874889715
14874897406
14874903875
14874910040
14874915838
14874921636
14874927374
14874933904
14874940130
14874946478
14874951788
14874957586
14874963995
14874969671
14874975347
14874981512
14874987676
14874993658
14874999639
14875005804
14875010686
14875016973
14875023626
14875028631
14875036077
14875041692
14875046575
14875051519
14875058660
14875064641
14875070440
14875076055
14875083257
14875088201
14875094610
14875100286
14875105779
14875112737
14875120000
14875125554
14875130498
14875137761
14875142339
14875150029
14875156804
14875162481
14875168035
14875172063
14875180364
14875185979
14875191594
14875198979
14875205388
14875211003
14875216680
14875223271
14875228154
14875231328
14875241521
14875249638
14875255864
14875264653
14875267827
14875274052
14875279851
14875285710
14875293156
14875298039
14875305119
14875311223
14875316594
14875322087
14875328252
14875333989
14875338444
14875345708
14875350590
14875357243
14875362980
14875369145
14875375554
14875380803
14875386418
14875393742
14875398198
14875405644
14875411686
14875416813
14875423771
14875428532
14875435917
14875442021
14875448185
14875454045
14875460453
14875466130
14875472721
14875478642
14875484562
14875488652
14875496586
14875502262
14875507939
14875513554
14875518437
14875525822
14875531925
14875538212
14875544132
14875549503
14875555485
14875561527
14875567326
14875574467
14875579166
14875587650
14875593327
14875599247
14875607975
14875612797
14875618107
14875625492
14875629642
14875636417
14875641483
14875647831
14875653751
14875659794
14875666263
14875672123
14875676822
14875684391
14875689335
14875696415
14875702945
14875708622
14875714298
14875721195
14875727359
14875732608
14875738468
14875744449
14875749454
14875757022
14875762332
14875768497
14875774417
14875779178
14875789371
14875794315
14875802494
14875809207
14875814456
14875821720
14875825199
14875832828
14875838687
14875844241
14875849979
14875857059
14875862674
14875869632
14875873782
14875881900
14875886905
14875892764
14875899234
14875904178
14875911075
14875917606
14875923160
14875929751
14875938174
14875944156
14875949832
14875954654
14875960635
14875967349
14875974795
14875979495
14875986148
14875991641
14875997744
14876003543
14876010196
14876014468
14876021304
14876026797
14876033145
14876039676
14876044986
14876052005
14876059390
14876064822
14876070803
14876076663
14876083621
14876090457
14876096438
14876102664
14876109500
14876115420
14876121279
14876127383
14876133547
14876139285
14876146060
14876152285
14876158938
14876165530
14876171023
14876175784
14876182864
14876188357
14876194949
14876200320
14876207278
14876212527
14876219118
14876225405
14876232790
14876239321
14876244509
14876249514
14876256106
14876263613
14876268923
14876275332
14876280764
14876287356
14876294130
14876299318
14876306887
14876312685
14876318422
14876324343
14876329470
14876338869
14876344912
14876350405
14876355837
14876361513
14876367433
14876371706
14876379763
14876384951
14876390871
14876397341
14876401552
14876408876
14876416078
14876422121
14876428774
14876435243
14876440553
14876447084
14876454714
14876461366
14876467531
14876473512
14876480470
14876483766
14876491701
14876498598
14876504640
14876510316
14876517641
14876523927
14876530458
14876533266
14876542177
14876549562
14876555665
14876561403
14876567933
14876573427
14876580324
14876586549
14876591798
14876596498
14876602662
14876608339
14876614381
14876621156
14876628358
14876633790
14876640260
14876645997
14876651368
14876655641
14876662599
14876669191
14876674684
14876680665
14876685426
14876693421
14876699586
14876704225
14876711305
14876717408
14876723023
14876729676
14876734376
14876742249
14876747682
14876753297
14876761414
14876765992
14876772096
14876777955
14876784241
14876791138
14876797181
14876802857
14876809754
14876814881
14876822571
14876828736
14876834717
14876840638
14876845582
14876853577
14876859254
14876864808
14876871766
14876876404
14876882325
14876888245
14876893250
14876900696
14876906739
14876913514
14876918946
14876925049
14876930542
14876936768
14876943726
14876948792
14876955811
14876961853
14876967591
14876972473
14876979615
14876986267
14876992066
14876997620
14877004517
14877008789
14877015869
14877022095
14877027832
14877034546
14877041321
14877046387
14877051148
14877058045
14877063904
14877069641
14877077087
14877084045
14877089478
14877095581
14877100037
14877106995
14877113403
14877119446
14877125976
14877131714
14877136902
14877143432
14877149353
14877155701
14877159973
14877166199
14877169555
14877176819
14877183471
14877189148
14877196411
14877201233
14877209228
14877214782
14877220092
14877226379
14877231262
14877239502
14877243042
14877250427
14877257080
14877261718
14877269714
14877274780
14877282104
14877287963
14877293823
14877300048
14877307006
14877312499
14877320190
14877324401
14877332092
14877337524
14877343810
14877351440
14877356933
14877364562
14877370544
14877375976
14877382201
14877388671
14877394225
14877401061
14877407043
14877413756
14877416808
14877426086
14877431029
14877437926
14877444091
14877449523
14877455626
14877461669
14877467711
14877475768
14877482238
14877487609
14877493590
14877498351
14877505126
14877511229
14877517272
14877523864
14877528685
14877536315
14877541991
14877546508
14877553832
14877558043
14877564940
14877572142
14877577880
14877583434
14877587462
14877595519
14877601866
14877607665
14877612975
14877617796
14877625365
14877632689
14877638731
14877645079
14877651427
14877656188
14877661620
14877666808
14877674193
14877679503
14877687193
14877692625
14877698485
14877705138
14877709593
14877718687
14877724852
14877730162
14877735838
14877742918
14877748289
14877755919
14877761107
14877768309
14877771177
14877778135
14877783995
14877789305
14877796751
14877802733
14877809507
14877815733
14877820738
14877827269
14877832579
14877840696
14877847959
14877853331
14877859495
14877864378
14877871763
14877877561
14877883482
14877890013
14877896055
14877901304
14877907285
14877912229
14877920042
14877923338
14877932005
14877938291
14877943662
14877951048
14877954343
14877962705
14877968137
14877973875
14877980894
14877986448
14877991392
14877994627
14878003294
14878008604
14878014646
14878021177
14878025815
14878031736
14878037778
14878042722
14878049192
14878054807
14878060056
14878064939
14878070798
14878075498
14878082395
14878091489
14878095273
14878101560
14878108030
14878114194
14878117734
14878125852
14878132444
14878137510
14878144590
14878150693
14878156308
14878163694
14878167783
14878174924
14878180234
14878185483
14878192319
14878197873
14878205808
14878210935
14878216001
14878222104
14878227597
14878232968
14878238278
14878246030
14878252255
14878257932
14878264829
14878269040
14878275815
14878283078
14878289120
14878295590
14878301511
14878307919
14878312192
14878318845
14878325802
14878332455
14878338254
14878345456
14878350461
14878353818
14878361264
14878367550
14878373898
14878379880
14878384579
14878391110
14878396847
14878401974
14878407406
14878412838
14878420834
14878426449
14878432675
14878439083
14878444943
14878450497
14878455319
14878462643
14878468319
14878473629
14878480770
14878485592
14878493221
14878498409
14878504208
14878510555
14878516720
14878522457
14878529293
14878534542
14878540646
14878547482
14878552364
14878558346
14878563473
14878570858
14878577633
14878583065
14878588924
14878594479
14878600094
14878605282
14878612911
14878617977
14878623897
14878630184
14878635494
14878643551
14878648983
14878656978
14878662594
14878668148
14878673946
14878679683
14878686275
14878693050
14878698909
14878706173
14878711422
14878718990
14878723995
14878728939
14878736812
14878742305
14878750484
14878755611
14878761775
14878767452
14878770504
14878780025
14878786495
14878791133
14878798213
14878804927
14878809810
14878816036
14878822383
14878827754
14878834346
14878840083
14878847224
14878852168
14878859126
14878865474
14878870540
14878877498
14878881892
14878888667
14878894160
14878900569
14878906306
14878911983
14878918208
14878923091
14878929927
14878936275
14878942012
14878949336
14878953547
14878961055
14878964107
14878973018
14878978999
14878985774
14878992366
14878997371
14879003535
14879010554
14879013484
14879022761
14879028743
14879033320
14879039851
14879046321
14879051448
14879059138
14879063288
14879071467
14879077021
14879082942
14879090144
14879095881
14879101740
14879107417
14879113215
14879119563
14879124262
14879130793
14879137263
14879143488
14879150752
14879156123
14879162470
14879169123
14879175288
14879180964
14879186945
14879192255
14879198847
14879202875
14879210749
14879216913
14879222834
14879229914
14879234431
14879241266
14879247187
14879253107
14879258967
14879264399
14879271052
14879275873
14879281916
14879285700
14879292963
14879300287
14879305048
14879312494
14879318476
14879325068
14879330255
14879337519
14879342829
14879348505
14879353815
14879360834
14879366876
14879372797
14879379145
14879385309
14879392267
14879397638
14879403375
14879409418
14879416010
14879422479
14879427789
14879433466
14879439691
14879444574
14879451898
14879458368
14879464166
14879471246
14879477594
14879483209
14879490350
14879495233
14879504266
14879511407
14879516839
14879523614
14879527826
14879533990
14879538263
14879545587
14879557855
14879569635
14879575677
14879582696
14879589593
14879595575
14879600213
14879608392
14879614557
14879621087
14879627130
14879632745
14879640374
14879647393
14879653375
14879659722
14879664361
14879672051
14879677239
14879684381
14879689630
14879696527
14879702508
14879708856
14879714532
14879720330
14879725213
14879732537
14879738397
14879744622
14879750115
14879755975
14879763299
14879770562
14879776543
14879782708
14879788995
14879794976
14879801263
14879807305
14879813836
14879818413
14879824456
14879831231
14879837456
14879842705
14879848748
14879855889
14879860894
14879867730
14879873284
14879880669
14879887932
14879894219
14879899529
14879905816
14879912224
14879918877
14879925164
14879931572
14879937065
14879943535
14879949456
14879954888
14879961540
14879967461
14879975456
14879980950
14879986748
14879993035
14879999321
14880005852
14880011223
14880019096
14880023064
14880031853
14880036736
14880042168
14880048088
14880053032
14880060722
14880065727
14880073296
14880078056
14880083855
14880088860
14880095634
14880101921
14880106743
14880113579
14880120048
14880126518
14880132988
14880138298
14880144035
14880150566
14880155327
14880162346
14880166130
14880173881
14880179191
14880185295
14880192314
14880197746
14880204338
14880209343
14880215934
14880222892
14880228752
14880235649
14880241203
14880247367
14880254020
14880259269
14880266410
14880272575
14880278800
14880284660
14880290824
14880295646
14880301994
14880306571
14880312064
14880318473
14880325248
14880330131
14880336173
14880341117
14880347648
14880351432
14880359977
14880366019
14880372428
14880379996
14880386100
14880392142
14880400016
14880406669
14880412833
14880418632
14880425590
14880430839
14880438407
14880444266
14880449759
14880455619
14880461417
14880468924
14880476554
14880482413
14880489493
14880494620
14880503531
14880509696
14880517203
14880523185
14880530143
14880536612
14880541495
14880548148
14880553519
14880561576
14880568045
14880573966
14880580008
14880586783
14880593436
14880598746
14880606803
14880612357
14880618277
14880624381
14880629996
14880635428
14880643240
14880648734
14880655325
14880660941
14880666006
14880670523
14880677969
14880683951
14880690237
14880697684
14880702933
14880708426
14880715445
14880722586
14880727835
14880734305
14880739920
14880746145
14880749502
14880757620
14880764578
14880769339
14880775015
14880780447
14880786551
14880791494
14880798086
14880803457
14880809988
14880815359
14880822439
14880827871
14880832571
14880838247
14880845694
14880852163
14880857595
14880864126
14880870108
14880875845
14880880239
14880886465
14880891653
14880899160
14880904653
14880910330
14880915212
14880922109
14880926016
14880932974
14880939748
14880946035
14880952749
14880958059
14880964346
14880970754
14880975698
14880980947
14880989187
14880994741
14881000600
14881005300
14881012014
14881015859
14881023427
14881029653
14881036062
14881042714
14881047902
14881055105
14881060293
14881065664
14881070730
14881078603
14881082387
14881090139
14881093618
14881102407
14881106679
14881115712
14881121816
14881128591
14881134206
14881139394
14881146840
14881150685
14881159291
14881165273
14881171437
14881177846
14881184926
14881191091
14881196584
14881202809
14881206777
14881214406
14881220021
14881224721
14881231130
14881237843
14881244740
14881249013
14881255971
14881261769
14881268117
14881274342
14881280751
14881284718
14881294850
14881301015
14881307851
14881313588
14881318104
14881324696
14881329579
14881337514
14881343007
14881350514
14881354298
14881362965
14881369618
14881375905
14881378163
14881385731
14881393422
14881398243
14881404957
14881410756
14881417225
14881422840
14881429371
14881433155
14881441273
14881444935
14881454273
14881457875
14881466603
14881470082
14881477345
14881482899
14881487660
14881495106
14881501759
14881507374
14881512684
14881520191
14881523731
14881531300
14881537464
14881542225
14881548756
14881555164
14881561756
14881565968
14881572071
14881578663
14881585133
14881590259
14881595753
14881601246
14881608326
14881612110
14881619922
14881626087
14881632313
14881638721
14881642994
14881649036
14881653858
14881660084
14881665577
14881671558
14881677295
14881682972
14881690357
14881696582
14881702869
14881709156
14881714771
14881719226
14881725696
14881733448
14881739490
14881745105
14881751026
14881757312
14881763416
14881770008
14881775989
14881780750
14881786731
14881792652
14881797595
14881804431
14881809497
14881815296
14881820361
14881828540
14881831958
14881840930
14881846851
14881853381
14881859851
14881864307
14881870776
14881875476
14881882373
14881887561
14881892627
14881897388
14881903552
14881909106
14881918201
14881924182
14881931262
14881936755
14881941516
14881947131
14881954760
14881960864
14881967212
14881973498
14881980883
14881986071
14881992480
14881998950
14882004321
14882009570
14882016772
14882021838
14882028674
14882034899
14882042834
14882048632
14882054187
14882061267
14882066699
14882072924
14882078295
14882085620
14882089892
14882097827
14882103564
14882108935
14882114489
14882120837
14882126086
14882132494
14882137865
14882142809
14882150561
14882156664
14882163134
14882169237
14882175463
14882181139
14882186755
14882194018
14882199267
14882206225
14882211230
14882216845
14882222704
14882228991
14882234118
14882243212
14882249743
14882254503
14882257799
14882266649
14882273180
14882278978
14882284533
14882288805
14882296007
14882301683
14882307848
14882313036
14882318834
14882324144
14882332506
14882338610
14882342943
14882348192
14882354112
14882360826
14882365404
14882373155
14882378649
14882385607
14882390795
14882396471
14882400316
14882408128
14882414598
14882421251
14882427232
14882432054
14882438951
14882445482
14882452074
14882457262
14882463914
14882469469
14882474840
14882480821
14882487535
14882494249
14882499864
14882506822
14882512376
14882518846
14882524461
14882530748
14882534410
14882541978
14882546129
14882554490
14882560716
14882566881
14882572984
14882579026
14882584214
14882588365
14882595811
14882600633
14882606736
14882611680
14882619126
14882625413
14882632554
14882638291
14882644456
14882649583
14882655320
14882660752
14882667222
14882673387
14882680100
14882685594
14882691270
14882696946
14882703477
14882710252
14882715928
14882721726
14882730821
14882735886
14882743272
14882749375
14882754990
14882760300
14882767564
14882775132
14882779832
14882786362
14882791794
14882798081
14882803757
14882809128
14882815720
14882821885
14882826645
14882832993
14882838486
14882844529
14882849839
14882856064
14882863022
14882868821
14882874863
14882880295
14882887803
14882891404
14882898362
14882905259
14882910324
14882917099
14882923020
14882928818
14882934311
14882940659
14882946640
14882953110
14882958786
14882965439
14882970749
14882976364
14882981613
14882988571
14882995468
14883000046
14883007126
14883011826
14883018601
14883023422
14883029831
14883035751
14883042404
14883048325
14883053390
14883058212
14883064804
14883068283
14883076828
