15005138893
15005144264
15005148720
15005155739
15005161659
15005168007
15005173805
15005180214
15005186379
15005191261
15005198647
15005204628
15005210671
15005217812
15005224037
15005229774
15005235329
15005241859
15005247780
15005254250
15005260780
15005267067
15005274330
15005279640
15005288490
15005294777
15005301979
15005307167
15005314552
15005320595
15005327369
15005334511
15005341224
15005346901
15005353370
15005359962
15005367042
15005374122
15005381080
15005387306
15005394508
15005401893
15005408607
15005415199
15005423439
15005431800
15005441078
15005448097
15005456214
15005463539
15005470252
15005481178
15005489112
15005497352
15005506385
15005512916
15005520301
15005528602
15005535316
15005542945
15005551917
15005558204
15005568946
15005576270
15005583472
15005590247
15005598304
15005604224
15005613135
15005621558
15005630225
15005637244
15005643409
15005651709
15005659461
15005666968
15005675696
15005684119
15005690833
15005698340
15005706641
15005712867
15005718909
15005726782
15005734412
15005743628
15005753028
15005761328
15005768042
15005777014
15005783972
15005792334
15005800330
15005807105
15005813879
15005822058
15005830359
15005839636
15005846899
15005851965
15005861548
15005870032
15005875586
15005884802
15005892554
15005899267
15005904700
15005912756
15005917944
15005926916
15005933325
15005941382
15005948828
15005957678
15005964331
15005973303
15005981115
15005988745
15005998083
15006004675
15006012609
15006020056
15006025732
15006035070
15006043737
15006052221
15006060766
15006069799
15006077917
15006084875
15006092138
15006098913
15006108251
15006116369
15006124303
15006132726
15006140417
15006148840
15006155920
15006163610
15006170385
15006176794
15006183935
15006193395
15006200963
15006210119
15006219213
15006228551
15006235875
15006246801
15006254308
15006264135
15006271947
15006281041
15006291112
15006298741
15006307286
15006314061
15006323766
15006333043
15006341222
15006348668
15006355016
15006365148
15006373692
15006381688
15006389378
15006396764
15006404698
15006413487
15006419286
15006428990
15006437596
15006445836
15006453648
15006460850
15006468480
15006474461
15006483189
15006490269
15006500035
15006509007
15006513829
15006522923
15006532383
15006538914
15006549778
15006561680
15006569859
15006575779
15006588536
15006593235
15006603184
15006611302
15006616856
15006626683
15006634983
15006643101
15006650791
15006658726
15006666783
15006674717
15006682896
15006690586
15006700718
15006707981
15006717197
15006725986
15006732456
15006742283
15006751804
15006758335
15006769077
15006776890
15006784824
15006793369
15006801975
15006811497
15006821811
15006829380
15006838657
15006849704
15006858005
15006864719
15006874668
15006883030
15006890171
15006899997
15006907627
15006915439
15006924106
15006935825
15006944736
15006952060
15006960422
15006967929
15006976718
15006986118
15006992526
15007001682
15007012363
15007022861
15007032382
15007038852
15007047397
15007056796
15007066806
15007074802
15007084933
15007094821
15007104037
15007112887
15007122714
15007133456
15007141757
15007150119
15007158053
15007167636
15007175937
15007183200
15007194491
15007201022
15007211764
15007221408
15007229403
15007235873
15007243991
15007248385
15007262057
15007270968
15007278536
15007286349
15007294955
15007303256
15007313448
15007323397
15007332125
15007338778
15007347689
15007355624
15007363558
15007369967
15007377047
15007385226
15007392733
15007399996
15007407564
15007413851
15007422091
15007429842
15007437533
15007445894
15007453951
15007459932
15007468294
15007476717
15007485323
15007493563
15007502108
15007508394
15007519441
15007527437
15007536287
15007546175
15007553194
15007563020
15007569551
15007579439
15007585909
15007592195
15007599519
15007607637
15007612642
15007622224
15007632722
15007640596
15007647920
15007657442
15007663972
15007672700
15007679964
15007689363
15007696504
15007703340
15007713106
15007722261
15007729219
15007737703
15007746003
15007754548
15007764802
15007771089
15007780671
15007787141
15007795625
15007802644
15007812593
15007819367
15007826509
15007835481
15007841462
15007848908
15007856111
15007863252
15007870149
15007876557
15007882050
15007888581
15007893098
15007899690
15007906831
15007912812
15007919648
15007924470
15007931306
15007938325
15007944550
15007950776
15007956879
15007963166
15007969697
15007976044
15007980927
15007988068
15007994172
15008000458
15008006928
15008013459
15008019013
15008025727
15008032197
15008036591
15008042817
15008050141
15008057099
15008061982
15008068695
15008073578
15008080109
15008085297
15008092804
15008098358
15008105011
15008110443
15008117157
15008122772
15008128327
15008135590
15008140778
15008147186
15008152435
15008158905
15008165985
15008171723
15008177399
15008185333
15008190582
15008196564
15008203400
15008208832
15008215302
15008221832
15008226227
15008233124
15008238983
15008245087
15008250946
15008257721
15008263763
15008269195
15008275116
15008281524
15008288727
15008291839
15008301117
15008306610
15008312652
15008320099
15008326690
15008331390
15008338043
15008344452
15008350372
15008356537
15008362762
15008368316
15008374664
15008380584
15008387176
15008392120
15008398895
15008404327
15008411712
15008416168
15008422943
15008429107
15008434905
15008441070
15008447601
15008454925
15008460174
15008465362
15008471771
15008478607
15008483367
15008490386
15008496612
15008502532
15008509795
15008515228
15008521453
15008526458
15008533111
15008538604
15008544097
15008551116
15008557952
15008562285
15008569854
15008575469
15008581450
15008588470
15008593413
15008599761
15008606841
15008610747
15008617156
15008623443
15008627959
15008636382
15008642913
15008648467
15008654876
15008660003
15008666594
15008672454
15008677886
15008684417
15008691680
15008697417
15008702849
15008709136
15008715300
15008721709
15008728301
15008733672
15008740386
15008745268
15008751616
15008758025
15008765166
15008770781
15008776640
15008782500
15008788054
15008794768
15008799651
15008806181
15008812895
15008817412
15008825224
15008830534
15008837309
15008842375
15008848418
15008855253
15008861662
15008866789
15008873320
15008880339
15008884917
15008891936
15008898527
15008904265
15008909575
15008916350
15008921782
15008928190
15008932219
15008939299
15008946196
15008952909
15008958464
15008964384
15008971159
15008976774
15008983610
15008990263
15008994596
15009002836
15009008695
15009014128
15009019377
15009026396
15009034269
15009039030
15009046232
15009052397
15009057829
15009064298
15009071378
15009077238
15009083830
15009089384
15009095121
15009102262
15009107511
15009114591
15009120939
15009125700
15009133817
15009139677
15009145292
15009150663
15009157621
15009162992
15009169828
15009176237
15009182401
15009187894
15009194242
15009202054
15009207059
15009213590
15009219938
15009227445
15009233365
15009238614
15009244596
15009252103
15009257596
15009263456
15009269681
15009274259
15009280728
15009286649
15009293485
15009300687
15009306607
15009311917
15009317716
15009323392
15009330106
15009336637
15009342252
15009348721
15009356046
15009362576
15009368131
15009374783
15009380765
15009386197
15009393399
15009398282
15009405118
15009410550
15009416898
15009421414
15009428311
15009436429
15009441922
15009448086
15009453885
15009459317
15009466458
15009471646
15009477322
15009483853
15009490872
15009496975
15009502957
15009508755
15009514920
15009520108
15009527188
15009532986
15009538540
15009544949
15009551419
15009557095
15009561551
15009570034
15009575222
15009580654
15009586453
15009593899
15009599697
15009606472
15009613369
15009617764
15009624172
15009630520
15009637356
15009643154
15009649319
15009656338
15009662991
15009667324
15009673550
15009680386
15009684902
15009691372
15009698635
15009703945
15009709621
15009715237
15009722195
15009727505
15009734402
15009739590
15009744961
15009751675
15009757839
15009764248
15009769741
15009776089
15009782314
15009789089
15009794216
15009800442
15009807033
15009811611
15009818508
15009824856
15009829555
15009836696
15009843288
15009850185
15009854519
15009861477
15009867458
15009874477
15009881374
15009886074
15009892787
15009899868
15009905605
15009911159
15009916896
15009923366
15009929958
15009934474
15009940883
15009947231
15009954433
15009960170
15009969081
15009975612
15009982082
15009986232
15009993129
15009999965
15010005763
15010012660
15010017909
15010023830
15010030299
15010036647
15010043056
15010048854
15010055690
15010062831
15010068568
15010075343
15010079921
15010086757
15010093776
15010100306
15010106044
15010112452
15010119227
15010125026
15010130885
15010136378
15010143763
15010149318
15010152369
15010161464
15010168422
15010173426
15010179164
15010186976
15010192713
15010198695
15010205958
15010211268
15010217616
15010223109
15010229762
15010236537
15010242701
15010248255
15010255152
15010260462
15010266749
15010273524
15010280482
15010287379
15010293055
15010298731
15010306055
15010312037
15010317652
15010324793
15010330958
15010338160
15010344569
15010349390
15010356104
15010363245
15010369593
15010376429
15010382532
15010389063
15010396448
15010401758
15010408655
15010414820
15010421290
15010426539
15010430750
15010438257
15010443689
15010449427
15010456446
15010463037
15010467737
15010474268
15010479212
15010485498
15010491480
15010498804
15010504480
15010510462
15010516016
15010522119
15010527612
15010532617
15010540125
15010546961
15010552271
15010559107
15010564905
15010570337
15010576074
15010581384
15010589685
15010595117
15010600122
15010606897
15010611963
15010618799
15010624597
15010631189
15010637414
15010641870
15010647607
15010653894
15010659936
15010666162
15010671594
15010678735
15010685571
15010691369
15010696313
15010702539
15010708703
15010713708
15010720483
15010726403
15010732263
15010739282
15010746301
15010751489
15010758752
15010763574
15010771936
15010776574
15010784814
15010791223
15010797082
15010804284
15010810571
15010816735
15010824121
15010829675
15010836877
15010843347
15010849938
15010855737
15010864037
15010870324
15010875512
15010881249
15010886681
15010892785
15010899438
15010905236
15010911889
15010919152
15010925072
15010930749
15010937463
15010942589
15010951195
15010957299
15010962914
15010969384
15010974999
15010982445
15010988610
15010994347
15010999901
15011006798
15011011193
15011019555
15011030236
15011036705
15011047631
15011056237
15011064171
15011072594
15011081444
15011091088
15011099510
15011109215
15011119347
15011127464
15011136131
15011145653
15011155663
15011165978
15011174645
15011183128
15011192162
15011201195
15011210655
15011220238
15011229454
15011239036
15011248741
15011257408
15011266868
15011277366
15011284874
15011295555
15011305076
15011314537
15011321129
15011330650
15011340843
15011350181
15011360801
15011368370
15011376915
15011385154
15011395774
15011406089
15011415306
15011423423
15011433128
15011441184
15011450645
15011458946
15011470298
15011480064
15011486411
15011495200
15011503928
15011512656
15011521506
15011528586
15011538230
15011547141
15011559165
15011568442
15011576987
15011585776
15011594565
15011603537
15011612082
15011621177
15011629721
15011639487
15011647727
15011655967
15011666281
15011675132
15011683737
15011691977
15011701193
15011709067
15011718649
15011724204
15011731467
15011738120
15011743247
15011749899
15011756857
15011762656
15011767416
15011775046
15011780600
15011787863
15011793723
15011798788
15011804343
15011811850
15011817282
15011825095
15011831137
15011836935
15011842917
15011848593
15011854819
15011859396
15011865927
15011872702
15011877524
15011884237
15011890524
15011895651
15011899740
15011905844
15011913839
15011919577
15011924582
15011930136
15011936544
15011942038
15011948019
15011953512
15011960775
15011965841
15011971823
15011978475
15011983969
15011989157
15011994589
15012004354
15012010275
15012016989
15012022726
15012028829
15012034628
15012041097
15012047201
15012053854
15012059652
15012066671
15012072591
15012078024
15012083944
15012091207
15012097372
15012103963
15012110555
15012115316
15012121358
15012126119
15012132223
15012137228
15012144857
15012150838
15012155416
15012162557
15012168050
15012173299
15012178975
15012184591
15012191427
15012197164
15012202535
15012209127
15012213643
15012220113
15012224874
15012231710
15012237874
15012244405
15012249044
15012255574
15012261312
15012267293
15012272969
15012279622
15012285848
15012291646
15012296956
15012305562
15012311360
15012316731
15012324300
15012329732
15012336385
15012341695
15012348531
15012353352
15012360127
15012367329
15012372640
15012378621
15012384419
15012391377
15012396321
15012403645
15012408162
15012418477
15012424031
15012431904
15012438191
15012444050
15012451985
15012457112
15012467061
15012473347
15012481099
15012486653
15012493916
15012499959
15012505146
15012509724
15012517109
15012522908
15012527607
15012532917
15012538960
15012544331
15012553791
15012558979
15012564228
15012571003
15012575154
15012581318
15012585591
15012593342
15012597615
15012603840
15012610920
15012616780
15012623249
15012629109
15012634663
15012641560
15012646015
15012652973
15012657063
15012663960
15012668842
15012675678
15012681599
15012686726
15012693317
15012698627
15012705341
15012710590
15012715412
15012721638
15012726765
15012732929
15012737934
15012744648
15012752033
15012756428
15012763080
15012768757
15012775471
15012781208
15012786701
15012792133
15012797809
15012803486
15012808918
15012814167
15012820942
15012826740
15012832416
15012838825
15012845234
15012850177
15012854816
15012860431
15012866596
15012872516
15012877277
15012884662
15012891071
15012896869
15012903278
15012909076
15012915607
15012921649
15012928546
15012934223
15012940265
15012945636
15012950214
15012957416
15012962421
15012970538
15012977252
15012982562
15012988239
15012994769
15012999713
15013006183
15013011432
15013018756
15013024493
15013030414
15013035663
15013041278
15013046649
15013052569
15013058063
15013065021
15013072101
15013076861
15013083575
15013088275
15013094928
15013099627
15013105243
15013112017
15013117511
15013124102
15013130877
15013136126
15013142840
15013148089
15013155596
15013161517
15013167315
15013173114
15013179095
15013184832
15013190753
15013196551
15013202838
15013208514
15013215045
15013220416
15013225665
15013231036
15013236346
15013243426
15013248370
15013255206
15013259234
15013265887
15013270586
15013277300
15013282854
15013288226
15013295000
15013300372
15013306902
15013313494
15013317461
15013324236
15013330157
15013337725
15013344256
15013350908
15013356096
15013362139
15013367571
15013373369
15013379351
15013386919
15013393572
15013399248
15013405657
15013411150
15013416765
15013422075
15013430132
15013435686
15013440569
15013447100
15013451982
15013458696
15013464739
15013470537
15013476885
15013483538
15013487993
15013494158
15013500200
15013506182
15013513078
15013517778
15013524797
15013531023
15013536089
15013542986
15013547868
15013553484
15013561601
15013567888
15013573747
15013580705
15013585893
15013592241
15013597795
15013605119
15013612016
15013618425
15013623369
15013629899
15013634965
15013640520
15013647111
15013654008
15013659746
15013666459
15013671098
15013678117
15013683305
15013689897
15013696672
15013703019
15013708452
15013714433
15013719621
15013725602
15013731340
15013736772
15013743608
15013749223
15013755632
15013773698
15013781755
15013789140
15013794999
15013801530
15013808305
15013813737
15013818864
15013824479
15013833024
15013838578
15013844621
15013851762
15013858170
15013865495
15013870866
15013878068
15013883805
15013891251
15013896622
15013904496
15013910905
15013916764
15013923173
15013930192
15013936356
15013943802
15013949601
15013957047
15013962235
15013969376
15013975541
15013982804
15013987198
15013994339
15013999650
15014006485
15014013321
15014019425
15014025345
15014031632
15014038102
15014045243
15014051163
15014057999
15014064835
15014069901
15014075333
15014084183
15014089676
15014094559
15014101517
15014107926
15014113236
15014119888
15014126236
15014132034
15014138504
15014145401
15014149979
15014156754
15014161819
15014168411
15014175919
15014181900
15014187332
15014193924
15014200821
15014205948
15014212479
15014220108
15014225357
15014232132
15014238907
15014243851
15014250198
15014256668
15014263321
15014269729
15014275161
15014280594
15014287796
15014293167
15014300125
15014306289
15014312454
15014319473
15014325332
15014332412
15014340225
15014346878
15014352127
15014357742
15014364517
15014369827
15014375930
15014381118
15014389175
15014394790
15014400894
15014405959
15014411575
15014418228
15014423782
15014430496
15014435928
15014442458
15014447219
15014453506
15014459487
15014463638
15014471633
15014477615
15014484695
15014488906
15014495437
15014501540
15014506362
15014512344
15014517287
15014523879
15014530349
15014537185
15014544875
15014549087
15014555129
15014562575
15014569838
15014574965
15014581618
15014589309
15014595351
15014601394
15014608840
15014614638
15014621535
15014627761
15014634169
15014638381
15014646437
15014652236
15014658522
15014665663
15014671035
15014677687
15014684401
15014690261
15014696974
15014703322
15014708388
15014715590
15014721388
15014727126
15014733656
15014740675
15014745558
15014751784
15014758192
15014764113
15014769606
15014776076
15014783217
15014789564
15014795851
15014801527
15014805922
15014812392
15014819777
15014825575
15014830458
15014837294
15014843336
15014849684
15014856459
15014863173
15014869032
15014874830
15014881483
15014886366
15014893141
15014898268
15014904921
15014911696
15014919020
15014924696
15014932081
15014938673
15014944776
15014950514
15014957960
15014962110
15014969679
15014974562
15014979872
15014986463
15014992445
15014999159
15015004408
15015010694
15015017774
15015024915
15015031690
15015037489
15015045484
15015049879
15015057203
15015063978
15015070325
15015076307
15015083692
15015089368
15015095960
15015103101
15015108045
15015114393
15015120313
15015127088
15015133741
15015139966
15015147901
15015153699
15015158826
15015166883
15015172254
15015178968
15015185010
15015191297
15015198194
15015202832
15015210218
15015216565
15015221936
15015229444
15015235364
15015240918
15015247327
15015253186
15015259717
15015266492
15015271741
15015279614
15015284802
15015291577
15015297376
15015304517
15015309827
15015314893
15015321729
15015328015
15015334119
15015341687
15015347974
15015354627
15015359753
15015367322
15015373425
15015379224
15015385327
15015392773
15015398144
15015404919
15015410046
15015416577
15015422986
15015430432
15015436719
15015443982
15015448987
15015455273
15015462231
15015468457
15015474316
15015481946
15015489148
15015494580
15015501477
15015507519
15015511731
15015519726
15015525830
15015531750
15015537182
15015544506
15015549877
15015556225
15015563061
15015569714
15015575451
15015581310
15015588330
15015593640
15015599987
15015607250
15015611767
15015619213
15015625744
15015631237
15015637646
15015643993
15015649242
15015657848
15015663769
15015669018
15015675915
15015680981
15015687817
15015693432
15015700268
15015707775
15015713024
15015720226
15015724682
15015731579
15015737316
15015745373
15015750927
15015757030
15015762829
15015769054
15015776012
15015781627
15015787731
15015797008
15015809154
15015817821
15015823192
15015831005
15015836193
15015842845
15015850231
15015856945
15015863048
15015868175
15015875804
15015881481
15015888133
15015895091
15015899547
15015905834
15015912242
15015917919
15015924266
15015931407
15015936351
15015942577
15015948131
15015954417
15015959117
15015967418
15015973155
15015977367
15015985484
15015990428
15015997081
15016001353
15016008250
15016014903
15016019908
15016025706
15016031932
15016038035
15016042308
15016047679
15016054881
15016061900
15016066722
15016073314
15016078013
15016084727
15016090953
15016096324
15016102305
15016109019
15016115550
15016121226
15016126719
15016132334
15016137767
15016144725
15016151438
15016157298
15016163584
15016168772
15016175120
15016179881
15016186961
15016194102
15016198802
15016207591
15016214366
15016220225
15016227610
15016233836
15016239207
15016246958
15016253184
15016258555
15016265513
15016271677
15016278880
15016284678
15016291758
15016298350
15016304636
15016310129
15016316782
15016323618
15016330088
15016336558
15016342722
15016348581
15016355967
15016360850
15016367441
15016374521
15016380686
15016385996
15016392038
15016397898
15016404062
15016411020
15016416269
15016422556
15016428720
15016435373
15016441294
15016448007
15016453073
15016459299
15016465402
15016472116
15016476511
15016482614
15016489267
15016496347
15016500986
15016507700
15016512888
15016519357
15016526132
15016533090
15016538889
15016544504
15016549997
15016556345
15016562631
15016568735
15016576181
15016582040
15016587839
15016594614
15016599741
15016606149
15016612619
15016619638
15016625619
15016630502
15016637399
15016643075
15016649850
15016654977
15016664010
15016669381
15016676217
15016681222
15016687143
15016693429
15016699411
15016706979
15016712655
15016719125
15016726144
15016730844
15016737252
15016742868
15016750558
15016756661
15016762094
15016768930
15016773568
15016780526
15016785714
15016792672
15016799508
15016806161
15016813546
15016818917
15016825570
15016831796
15016837350
15016845589
15016851266
15016858346
15016865548
15016870492
15016877023
15016883431
15016890084
15016896859
15016904000
15016909432
15016916024
15016921273
15016927865
15016934579
15016940560
15016946541
15016952035
15016958931
15016966317
15016974007
15016978646
15016985054
15016991463
15016998421
15017002755
15017009774
15017016243
15017023079
15017028817
15017035347
15017040779
15017047493
15017053780
15017061226
15017066597
15017073372
15017079537
15017084969
15017091194
15017097176
15017103951
15017110603
15017115242
15017123116
15017128792
15017135445
15017141304
15017147102
15017154060
15017160713
15017164986
15017171394
15017178963
15017185249
15017191414
15017199226
15017204964
15017211250
15017217842
15017224373
15017230232
15017237312
15017242805
15017248420
15017254951
15017261787
15017266243
15017274543
15017280220
15017287544
15017291999
15017298713
15017304329
15017311409
15017316902
15017324043
15017329841
15017336921
15017342109
15017347480
15017353950
15017360603
15017367500
15017373298
15017380744
15017386054
15017392402
15017398567
15017403632
15017411628
15017417487
15017423408
15017430244
15017436652
15017441718
15017448737
15017455939
15017461555
15017467902
15017473273
15017479072
15017485969
15017492560
15017500861
15017508491
15017513373
15017520392
15017527961
15017533210
15017539069
15017545173
15017553351
15017558173
15017563788
15017570441
15017576362
15017581916
15017588752
15017595771
15017601447
15017607611
15017611396
15017617743
15017624884
15017631232
15017637519
15017642523
15017648749
15017654486
15017660407
15017666693
15017673224
15017678717
15017683844
15017689765
15017697272
15017701239
15017709479
15017715765
15017722785
15017729254
15017735541
15017741095
15017747809
15017752386
15017760077
15017766791
15017773383
15017779486
15017787298
15017794073
15017800787
15017807928
15017814642
15017820441
15017828070
15017834540
15017841498
15017847540
15017854071
15017859503
15017866217
15017872137
15017878668
15017885260
15017891302
15017895453
15017901678
15017905828
15017912420
15017919195
15017924505
15017930792
15017936224
15017941107
15017947821
15017950689
15017959478
15017965032
15017970465
15017975591
15017982488
15017987432
15017992803
15017999395
15018004705
15018011907
15018017095
15018022649
15018027410
15018032293
15018039129
15018044378
15018051214
15018056341
15018062994
15018068914
15018073247
15018080755
15018085332
15018092840
15018098760
15018104436
15018110052
15018115423
15018121526
15018127324
15018133184
15018138982
15018145269
15018150945
15018157232
15018161992
15018166753
15018173223
15018177434
15018184392
15018189519
15018196294
15018202275
15018208867
15018213750
15018219915
15018224919
15018231511
15018237554
15018243535
15018249028
15018253362
15018260076
15018265630
15018271062
15018275945
15018282964
15018289189
15018294682
15018300298
15018305547
15018310063
15018317082
15018322209
15018329167
15018333073
15018339482
15018345403
15018350102
15018354924
15018362736
15018367863
15018374211
15018379155
15018385258
15018389287
15018395512
15018401372
15018409001
15018414616
15018418950
15018425053
15018431157
15018436589
15018442631
15018449833
15018454777
15018461735
15018466435
15018471684
15018477238
15018483891
15018489018
15018494206
15018500676
15018507084
15018511845
15018518071
15018522587
15018528691
15018533329
15018540348
15018546574
15018551945
15018558476
15018562626
15018568485
15018574345
15018579655
15018585148
15018591984
15018597233
15018602177
15018607792
15018613163
15018618290
15018625187
15018630436
15018637394
15018643314
15018648685
15018655582
15018660892
15018666569
15018673527
15018680180
15018685673
15018690861
15018695011
15018700870
15018709720
15018716984
15018721622
15018730350
15018735355
15018741825
15018747379
15018753422
15018758793
15018764957
15018770328
15018777164
15018782962
15018789615
15018795047
15018801578
15018806217
15018813663
15018819339
15018825626
15018831241
15018835819
15018843570
15018846378
15018854068
15018861209
15018868350
15018873172
15018878360
15018883975
15018889224
15018893985
15018901737
15018908878
15018914005
15018919132
15018925296
15018930240
15018936221
15018941226
15018947940
15018953738
15018960025
15018965579
15018970035
15018976138
15018981753
15018988650
15018995059
15019000613
15019005984
15019011233
15019017154
15019022403
15019027408
15019034366
15019041202
15019046817
15019053348
15019058719
15019065371
15019070742
15019076236
15019083499
15019088626
15019094790
15019099978
15019106387
15019111941
15019118533
15019124697
15019131900
15019137576
15019143435
15019148867
15019154910
15019160159
15019165103
15019170474
15019177432
15019184756
15019190798
15019195986
15019202029
15019206789
15019213076
15019218508
15019224795
15019231692
15019237856
15019242556
15019249819
15019254458
15019262026
15019268801
15019274294
15019278323
15019284670
15019288759
15019295473
15019302126
15019308169
15019315310
15019321108
15019325930
15019332827
15019337710
15019344790
15019350039
15019356020
15019363100
15019369692
15019374575
15019379335
15019384218
15019390322
15019395327
15019402773
15019407961
15019414614
15019421328
15019426027
15019433412
15019439760
15019445619
15019450197
15019458193
15019462892
15019468324
15019474001
15019480715
15019485353
15019490968
15019497865
15019504884
15019509157
15019515871
15019520509
15019527162
15019531801
15019538576
15019543764
15019550417
15019555482
15019561586
15019566286
15019572389
15019577699
15019586854
15019592897
15019597169
15019604555
15019609620
15019614992
15019621278
15019627138
15019633973
15019640992
15019644960
15019651613
15019655946
15019662477
15019667909
15019673402
15019679200
15019685914
15019690736
15019697145
15019701844
15019707887
15019713258
15019720643
15019727845
15019733277
15019738893
15019745179
15019750794
15019757081
15019763062
15019769715
15019775392
15019780030
15019786683
15019791688
15019797364
15019803651
15019809937
15019817262
15019822389
15019828492
15019834718
15019839539
15019845765
15019850770
15019855897
15019862733
15019867127
15019874573
15019878968
15019886109
15019890565
15019897889
15019904359
15019910157
15019916260
15019921815
15019927979
15019933716
15019939454
15019945618
15019953003
15019958069
15019962708
15019969178
15019973328
15019979981
15019985230
15019991639
15019997010
15020003418
15020008850
15020014344
15020020325
15020024414
15020029663
15020037171
15020043335
15020050049
15020055664
15020060791
15020067810
15020072937
15020080322
15020085755
15020092590
15020098145
15020102905
15020107788
15020114258
15020118897
15020126587
15020131531
15020138062
15020143433
15020149780
15020155029
15020161194
15020167053
15020173767
15020179382
15020185486
15020191406
15020196533
15020202392
15020209228
15020215271
15020222351
15020227966
15020233093
15020239746
15020244690
15020250061
15020256775
15020262024
15020267273
15020274658
15020281189
15020286560
15020291748
15020298095
15020303955
15020310913
15020316528
15020320739
15020326232
15020332397
15020337585
15020343749
15020348571
15020357543
15020363220
15020369079
15020374389
15020378845
15020385436
15020391540
15020397704
15020402892
15020409911
15020414489
15020421020
15020425536
15020432067
15020437011
15020443786
15020448974
15020455566
15020460509
15020466857
15020471679
15020477965
15020482848
15020489501
15020495849
15020501891
15020507384
15020513305
15020518859
15020524535
15020529906
15020536803
15020542113
15020548644
15020553893
15020559447
15020564818
15020569945
15020575560
15020581542
15020587401
15020594725
15020610778
15020618041
15020622863
15020629882
15020634276
15020639830
15020645507
15020652831
15020657836
15020663451
15020669554
15020674986
15020682066
15020687865
15020693175
15020698241
15020704466
15020709471
15020714598
15020721129
15020727477
15020733580
15020739134
15020743529
15020749632
15020754210
15020760252
15020766417
15020771788
15020776549
15020781920
15020788939
15020795042
15020800841
15020807005
15020811949
15020818724
15020823485
15020828978
15020833861
15020840635
15020844664
15020852110
15020856077
15020862730
15020868040
15020873106
15020877928
15020885313
15020890745
15020897703
15020902403
15020908750
15020913145
15020919371
15020924559
15020931639
15020937193
15020942564
15020947691
15020953916
15020959654
15020964109
15020970213
15020974729
15020980833
15020988340
15020994505
15020999754
15021006712
15021013792
15021019834
15021025266
15021031431
15021038145
15021043516
15021047605
15021054441
15021059507
15021065061
15021069883
15021075376
15021080320
15021087705
15021093442
15021099546
15021104795
15021112180
15021117795
15021123472
15021130185
15021135740
15021142515
15021148069
15021154538
15021160093
15021166501
15021173337
15021177549
15021184446
15021189939
15021196714
15021201657
15021208432
15021213376
15021220883
15021226926
15021231870
15021238584
15021243405
15021249753
15021256772
15021261411
15021268918
15021274655
15021280576
15021285092
15021291501
15021297421
15021302670
15021310300
15021315976
15021322018
15021327451
15021333432
15021339474
15021345456
15021351315
15021357236
15021363156
15021369076
15021374814
15021381467
15021388425
15021394162
15021400143
15021407590
15021413144
15021418576
15021424923
15021431759
15021436093
15021442929
15021448117
15021455075
15021459530
15021466427
15021473324
15021478085
15021484616
15021490902
15021496945
15021502926
15021509030
15021515805
15021522030
15021527340
15021533505
15021538143
15021547421
15021552120
15021557430
15021562557
15021567990
15021574581
15021579464
15021584164
15021589657
15021596981
15021602657
15021607845
15021615292
15021620113
15021627438
15021632992
15021639950
15021645016
15021651180
15021655331
15021661495
15021665829
15021671993
15021676937
15021684322
15021691463
15021696773
15021703731
15021709347
15021715877
15021722408
15021728634
15021735409
15021738521
15021747554
15021754268
15021759456
15021765560
15021772396
15021779049
15021785457
15021791194
15021796871
15021804012
15021810054
15021817012
15021822261
15021828853
15021835262
15021840755
15021846065
15021851802
15021857356
15021864131
15021870052
15021875118
15021880977
15021887569
15021891597
15021899532
15021905757
15021912288
15021917476
15021923213
15021928645
15021934444
15021941157
15021947871
15021953303
15021958491
15021965022
15021969539
15021976558
15021984431
15021989558
15021996272
15022002437
15022008052
15022014888
15022021235
15022026484
15022033198
15022040950
15022047236
15022053645
15022059443
15022065303
15022073481
15022079402
15022085505
15022091792
15022097163
15022104304
15022110408
15022116511
15022121821
15022127253
15022134028
15022139094
15022146418
15022153498
15022159907
15022167231
15022174311
15022180048
15022187678
15022195612
15022200434
15022208003
15022214655
15022221491
15022229060
15022234797
15022241938
15022249262
15022257197
15022263789
15022271174
15022277643
15022283320
15022291132
15022298334
15022304438
15022311762
15022319086
15022326594
15022333246
15022340571
15022345026
15022353205
15022360163
15022366144
15022373468
15022379816
15022385614
15022391962
15022398920
15022404962
15022412226
15022419367
15022425348
15022432428
15022438898
15022444025
15022450922
15022457269
15022463617
15022469415
15022474909
15022482294
15022489252
15022494318
15022500971
15022506830
15022514032
15022520685
15022526056
15022532648
15022538446
15022544366
15022551813
15022557001
15022563959
15022570489
15022578607
15022584344
15022590936
15022597589
15022604486
15022612115
15022619623
15022626886
15022634088
15022641046
15022647699
15022654229
15022661859
15022667291
15022674676
15022681573
15022688531
15022694696
15022700921
15022706414
15022713311
15022720697
15022725274
15022731683
15022738153
15022741998
15022749322
15022754510
15022761407
15022767816
15022772027
15022779839
15022783929
15022791009
15022798028
15022803704
15022812005
15022817986
15022824273
15022830926
15022838616
15022844537
15022851372
15022858880
15022864068
15022870904
15022878045
15022885674
15022893120
15022900200
15022905877
15022912713
15022918877
15022925530
15022933587
15022938530
15022944207
15022949822
15022956170
15022962334
15022969536
15022975029
15022981377
15022988396
15022995964
15023002861
15023009514
15023014946
15023021904
15023028069
15023033501
15023040703
15023047539
15023053581
15023061455
15023068901
15023073723
15023081474
15023087517
15023093437
15023098686
15023103508
15023109550
15023117180
15023122307
15023130547
15023137382
15023143852
15023151298
15023157158
15023164787
15023172356
15023177421
15023185234
15023191215
15023197258
15023204155
15023211052
15023216606
15023224601
15023230400
15023237053
15023244621
15023250358
15023257560
15023262687
15023271293
15023275993
15023283439
15023290275
15023296196
15023303520
15023309623
15023317192
15023324821
15023330497
15023337455
15023343131
15023348808
15023356132
15023362052
15023369010
15023374992
15023381522
15023388786
15023394950
15023402030
15023407706
15023412894
15023419425
15023424552
15023431144
15023436332
15023443473
15023449576
15023455436
15023462333
15023467460
15023473136
15023478690
15023486136
15023491813
15023496818
15023502982
15023507865
15023515067
15023521048
15023526175
15023531791
15023538443
15023544791
15023550406
15023555838
15023562369
15023568473
15023575248
15023581778
15023586722
15023592948
15023598380
15023603812
15023609610
15023616263
15023622061
15023626700
15023633109
15023638541
15023645255
15023650565
15023657889
15023663565
15023669241
15023674551
15023680777
15023686209
15023691214
15023698477
15023705252
15023710379
15023715567
15023721426
15023727408
15023734549
15023740652
15023747916
15023753531
15023758414
15023764944
15023771048
15023776114
15023781119
15023790457
15023795950
15023801382
15023806631
15023811819
15023818594
15023823660
15023830069
15023835562
15023841970
15023847281
15023851248
15023858267
15023864065
15023870047
15023875967
15023882681
15023887869
15023894094
15023898916
15023905569
15023911428
15023918142
15023924002
15023929128
15023935598
15023941213
15023946768
15023952627
15023959463
15023965688
15023971487
15023976614
15023982656
15023988638
15023994619
15024000356
15024007070
15024013235
15024017812
15024023977
15024030263
15024035512
15024041494
15024047475
15024054128
15024059499
15024064626
15024070119
15024075612
15024080861
15024088247
15024095266
15024099843
15024106313
15024111501
15024116262
15024122670
15024128652
15024133962
15024140493
15024146474
15024152761
15024158315
15024163686
15024169545
15024176564
15024183644
15024189077
15024195241
15024200307
15024206472
15024212209
15024218617
15024225820
15024231801
15024237111
15024242238
15024247914
15024253896
15024262380
15024267751
15024273732
15024280080
15024287038
15024292043
15024298879
15024305592
15024311513
15024317799
15024324696
15024329457
15024337147
15024344655
15024350941
15024358021
15024365101
15024371205
15024378041
15024385426
15024391469
15024398243
15024403676
15024410939
15024417042
15024423878
15024429982
15024437245
15024444203
15024450001
15024457325
15024462574
15024468800
15024475575
15024480946
15024486378
15024493458
15024499867
15024506398
15024511280
15024517323
15024523426
15024529286
15024535755
15024542957
15024548145
15024555409
15024560963
15024566212
15024571705
15024579395
15024586536
15024593006
15024599293
15024604725
15024611134
15024616993
15024622181
15024629261
15024637134
15024642689
15024650379
15024656299
15024663257
15024670582
15024677784
15024683887
15024691761
15024698108
15024703785
15024709949
15024717029
15024722583
15024730152
15024737110
15024742908
15024750049
15024756702
15024764148
15024769825
15024777820
15024783435
15024789356
15024796558
15024801746
15024805957
15024813770
15024819995
15024826953
15024833179
15024840259
15024847827
15024853809
15024859363
15024866321
15024872546
15024878650
15024885242
15024891711
15024899646
15024904895
15024911243
15024917407
15024926318
15024932910
15024942432
15024948291
15024954150
15024961047
15024967578
15024973071
15024979785
15024984912
15024992785
15024999255
15025004870
15025011279
15025019336
15025025683
15025033496
15025038623
15025045642
15025053637
15025059436
15025064746
15025071399
15025079760
15025086718
15025093371
15025100512
15025105639
15025113513
15025118334
15025124316
15025130725
15025135607
15025142016
15025147204
15025154650
15025159960
15025166003
15025171130
15025179858
15025184740
15025191088
15025198718
15025204760
15025211474
15025216479
15025221606
15025229906
15025234667
15025241991
15025249010
15025255114
15025263537
15025270861
15025276354
15025283861
15025289477
15025296679
15025303026
15025311449
15025318834
15025323595
15025330675
15025338427
15025345507
15025352831
15025359362
15025366198
15025372606
15025378832
15025385912
15025392809
15025399095
15025405077
15025411852
15025418444
15025423448
15025431444
15025439317
15025444994
15025453050
15025459703
15025466844
15025473436
15025479112
15025485155
15025491930
15025498033
15025504991
15025511644
15025516405
15025523790
15025529649
15025534959
15025540514
15025547777
15025553453
15025560350
15025565904
15025571947
15025577073
15025581895
15025589036
15025594529
15025601976
15025609361
15025614000
15025621568
15025627061
15025633897
15025640306
15025645921
15025652147
15025659166
15025665208
15025671067
15025679490
15025686448
15025691697
15025697068
15025704576
15025711228
15025718125
15025724229
15025730699
15025735520
15025741868
15025747605
15025755052
15025759812
15025767991
15025773118
15025778916
15025785020
15025791428
15025797166
15025802842
15025809556
15025815598
15025822068
15025827561
15025832871
15025840012
15025844712
15025852341
15025857896
15025864854
15025870591
15025876694
15025883530
15025889329
15025896470
15025902512
15025910447
15025915818
15025922287
15025929612
15025937851
15025943283
15025950364
15025957260
15025962937
15025968003
15025974228
15025979233
15025984421
15025993637
15026000595
15026005234
15026011704
15026017136
15026022995
15026027146
15026035080
15026040451
15026046921
15026052048
15026057480
15026063522
15026068649
15026075974
15026082871
15026088303
15026094467
15026100327
15026105392
15026110641
15026118332
15026125351
15026130722
15026137253
15026142441
15026148361
15026153854
15026161484
15026168869
15026175033
15026181137
15026187973
15026194198
15026200790
15026207687
15026214645
15026220138
15026226486
15026232650
15026238632
15026243881
15026252304
15026258102
15026264816
15026271102
15026276779
15026282943
15026290695
15026298385
15026304611
15026310775
15026317733
15026322494
15026329574
15026335372
15026341903
15026350021
15026356490
15026363265
15026370162
15026376205
15026383285
15026391463
15026396712
15026402633
15026408981
15026416000
15026420943
15026427474
15026436202
15026442428
15026449203
15026454513
15026461288
15026468001
15026475265
15026482467
15026488387
15026495650
15026501388
15026508346
15026515242
15026520675
15026527327
15026534102
15026540023
15026546309
15026554122
15026559371
15026566451
15026571822
15026579634
15026584883
15026590743
15026597151
15026603377
15026609725
15026616377
15026622176
15026627791
15026635176
15026641219
15026648299
15026654158
15026660811
15026667769
15026672652
15026680708
15026686324
15026692671
15026699568
15026707503
15026712691
15026719588
15026726790
15026733076
15026740034
15026746260
15026751021
15026758162
15026765425
15026772261
15026777693
15026785566
15026791060
15026797957
15026804670
15026810713
15026817000
15026823469
15026829145
15026835920
15026843000
15026849897
15026854231
15026860578
15026867475
15026873335
15026879621
15026884260
15026891706
15026897871
15026903364
15026907698
15026913862
15026921491
15026926863
15026931867
15026938276
15026944013
15026949384
15026955427
15026961469
15026967390
15026972883
15026978864
15026983320
15026990217
15026996076
15027000593
15027007917
15027013532
15027020368
15027025678
15027031904
15027038190
15027045942
15027052473
15027058820
15027066144
15027072614
15027080793
15027086042
15027092511
15027101423
15027108014
15027113446
15027120832
15027127546
15027132245
15027140912
15027147199
15027152265
15027158185
15027165692
15027172467
15027178022
15027183759
15027189679
15027196332
15027201886
15027208783
15027215131
15027221478
15027227582
15027233869
15027238446
15027246991
15027255658
15027262250
15027268353
15027275189
15027280621
15027288434
15027295026
15027302045
15027308087
15027314618
15027320660
15027326703
15027334027
15027339581
15027347943
15027353436
15027359601
15027364239
15027371808
15027377484
15027384381
15027391034
15027397564
15027404278
15027411541
15027417218
15027423871
15027430340
15027436383
15027443035
15027449749
15027456341
15027462445
15027468121
15027472943
15027481304
15027486859
15027494488
15027501202
15027506817
15027513714
15027521038
15027527569
15027533550
15027541302
15027547955
15027553875
15027559856
15027565472
15027572186
15027579632
15027585186
15027591045
15027596539
15027602337
15027610638
15027616192
15027622478
15027628521
15027636394
15027642864
15027647991
15027654339
15027661053
15027667461
15027673076
15027678875
15027684978
15027691448
15027698650
15027703655
15027710552
15027715618
15027721599
15027729290
15027734539
15027741130
15027748272
15027754192
15027761760
15027766094
15027773967
15027780742
15027785930
15027793376
15027800212
15027806255
15027812419
15027821086
15027827434
15027833110
15027840251
15027847148
15027851543
15027859782
15027865031
15027872478
15027878581
15027884807
15027893169
15027898235
15027905070
15027909831
15027916911
15027923991
15027931071
15027937236
15027943156
15027949931
15027955852
15027961589
15027968242
15027973979
15027980327
15027987163
15027992350
15027998820
15028004863
15028011271
15028017619
15028025248
15028032023
15028037272
15028043925
15028049052
15028054911
15028062724
15028068766
15028074443
15028081401
15028087138
15028095500
15028101542
15028107463
15028113993
15028121378
15028127848
15028133524
15028140116
15028146586
15028153422
15028159464
15028165446
15028172160
15028179667
15028185587
15028192118
15028195536
15028202860
15028210551
15028213419
15028220988
15028225504
15028232157
15028237894
15028244425
15028249247
15028254923
15028261515
15028265970
15028272257
15028277262
15028286173
15028291300
15028297587
15028304056
15028310221
15028316996
15028322916
15028330729
15028335550
15028342569
15028349283
15028355814
15028363077
15028369303
15028374918
15028381449
15028390482
15028395914
15028403787
15028409952
15028416971
15028424600
15028430338
15028438944
15028445108
15028452921
15028459634
15028464822
15028471475
15028477701
15028483560
15028489053
15028496866
15028502115
15028508340
15028516641
15028521524
15028528360
15028535501
15028543863
15028549173
15028557290
15028563516
15028569864
15028577066
15028582376
15028588662
15028594095
15028600381
15028607400
15028613748
15028620401
15028625833
15028632058
15028636880
15028642312
15028646890
15028655007
15028660012
15028666848
15028672708
15028677102
15028682595
15028688394
15028695596
15028701333
15028707864
15028714334
15028720315
15028726602
15028734414
15028740151
15028747598
15028753945
15028759988
15028767556
15028774697
15028782265
15028789895
15028795449
15028802712
15028809426
15028815224
15028821145
15028827920
15028834023
15028840859
15028846963
15028852273
15028859292
15028866250
15028871743
15028876748
15028882790
15028887978
15028893288
15028898842
15028904946
15028911599
15028918496
15028922524
15028928627
15028934670
15028939858
15028945290
15028952065
15028959084
15028965676
15028970925
15028976296
15028983315
15028992043
15028998757
15029005898
15029013649
15029019386
15029025551
15029032631
15029039955
15029046120
15029051796
15029057167
15029062660
15029070534
15029076515
15029083656
15029090065
15029095741
15029101479
15029108253
15029115028
15029120705
15029126930
15029132728
15029138710
15029144142
15029151527
15029157509
15029164161
15029170570
15029175453
15029183265
15029189308
15029196510
15029203834
15029209205
15029216163
15029222633
15029230018
15029237037
15029244056
15029250709
15029256141
15029263221
15029270179
15029276649
15029285560
15029291419
15029298316
15029304420
15029311012
15029318214
15029322730
15029328712
15029335731
15029341712
15029348304
15029355079
15029362159
15029368507
15029375343
15029383460
15029389442
15029396644
15029401405
15029407142
15029413489
15029418677
15029426002
15029433692
15029440284
15029447852
15029453956
15029460792
15029468055
15029473182
15029480262
15029486670
15029492164
15029498816
15029505530
15029510230
15029518592
15029522925
15029530738
15029536048
15029543189
15029550940
15029557349
15029563575
15029570471
15029576941
15029582984
15029590247
15029596167
15029603674
15029609656
15029615454
15029622473
15029630164
15029638281
15029644629
15029650122
15029657507
15029664160
15029669226
15029676489
15029683874
15029689429
15029695654
15029700354
15029707983
15029714880
15029721899
15029729712
15029736670
15029741553
15029748511
15029756201
15029761572
15029767981
15029774756
15029781042
15029788000
15029794287
15029801001
15029808142
15029814245
15029819738
15029827551
15029833654
15029840246
15029845678
15029852331
15029858557
15029863500
15029872961
15029878820
15029884130
15029890661
15029895239
15029901953
15029905920
15029913671
15029918981
15029925634
15029930334
15029937170
15029942602
15029947179
15029954382
15029960485
15029967138
15029971655
15029978002
15029983678
15029990575
15029995885
15030003576
15030009435
15030015722
15030021154
15030027502
15030033117
15030038244
15030043920
15030049901
15030057042
15030062353
15030067174
15030074132
15030078649
15030086217
15030092382
15030099035
15030104833
15030110753
15030115514
15030122350
15030128270
15030135106
15030140355
15030146459
15030151525
15030157018
15030162450
15030168065
15030176793
15030182714
15030187230
15030193700
15030198827
15030206029
15030211400
15030218541
15030224523
15030230138
15030235753
15030241673
15030246556
15030253148
15030259251
15030265965
15030272435
15030278355
15030282872
15030290074
15030295628
15030302159
15030308018
15030315037
15030319981
15030326207
15030331700
15030336278
15030344273
15030350987
15030356907
15030362034
15030368504
15030373265
15030380162
15030384984
15030392308
15030398777
15030404637
15030410008
15030416050
15030420872
15030427403
15030432652
15030438755
15030445347
15030449986
15030456700
15030461888
15030468724
15030474461
15030480808
15030485752
15030491734
15030496983
15030502354
15030509556
15030515537
15030521580
15030527012
15030533115
15030538242
15030544163
15030550449
15030555882
15030560947
15030567234
15030572544
15030579197
15030584080
15030590733
15030595249
15030602573
15030608982
15030614109
15030620396
15030626133
15030631748
15030637852
15030643711
15030649875
15030656223
15030661472
15030667698
15030672825
15030678440
15030683506
15030690830
15030696506
15030702549
15030707309
15030713657
15030720859
15030725437
15030731845
15030737278
15030743747
15030749485
15030755771
15030760654
15030767734
15030773471
15030779514
15030785922
15030791782
15030797580
15030802524
15030809055
15030815097
15030820712
15030827609
15030832858
15030839023
15030844272
15030849338
15030854587
15030862888
15030868625
15030873141
15030879855
15030885348
15030891940
15030896823
15030903354
15030909396
15030915256
15030920322
15030926425
15030932467
15030938266
15030944980
15030950351
15030955478
15030962741
15030968661
15030973971
15030979464
15030985385
15030992648
15030998141
15031004367
15031009372
15031014437
15031020358
15031025241
15031033053
15031038729
15031043795
15031050265
15031055270
15031062167
15031067416
15031073519
15031080844
15031086459
15031091830
15031097750
15031102755
15031108676
15031115511
15031121310
15031126803
15031134188
15031138644
15031145602
15031150240
15031155917
15031162142
15031169283
15031174532
15031180636
15031185641
15031192171
15031197726
15031203890
15031210848
15031215487
15031220797
15031227694
15031232088
15031237398
15031244051
15031249849
15031256380
15031261934
15031268038
15031273714
15031279940
15031285921
15031291353
15031299105
15031303988
15031310457
15031315645
15031321627
15031327974
15031333956
15031340547
15031346590
15031352754
15031359102
15031364351
15031371492
15031377474
15031383211
15031389559
15031394502
15031402437
15031408968
15031415315
15031422151
15031427217
15031433565
15031440279
15031446993
15031451631
15031457002
15031464388
15031471895
15031477144
15031482454
15031488374
15031494783
15031501680
15031508150
15031513643
15031519807
15031526826
15031532197
15031536897
15031544038
15031547273
15031555757
15031563203
15031569063
15031574556
15031582246
15031587495
15031592561
15031597383
15031603547
15031610627
15031616059
15031621370
15031627656
15031633699
15031638887
15031646211
15031652436
15031657746
15031664826
15031669221
15031675019
15031682954
15031688691
15031695100
15031702058
15031707002
15031713715
15031720246
15031724519
15031731416
15031738557
15031744172
15031750520
15031757417
15031762605
15031768830
15031776337
15031784577
15031790803
15031795258
15031802094
15031807709
15031815156
15031819428
15031826142
15031832306
15031839020
15031845124
15031851349
15031856782
15031862580
15031869050
15031873993
15031880585
15031885651
15031892304
15031898102
15031902863
15031908356
15031917084
15031922394
15031927826
15031933380
15031938690
15031945282
15031951569
15031958771
15031964752
15031970978
15031976959
15031983612
15031989838
15031994599
15032001801
15032008698
15032013580
15032019745
15032026032
15032031952
15032037567
15032044159
15032050873
15032055450
15032062531
15032069061
15032074554
15032080902
15032088287
15032093414
15032099823
15032105926
15032112457
15032118133
15032124237
15032130035
15032136322
15032143280
15032147857
15032154144
15032159759
15032166290
15032173126
15032180206
15032186004
15032190887
15032197723
15032204925
15032209991
15032215362
15032222747
15032230194
15032235137
15032241912
15032247039
15032252960
15032258453
15032265533
15032271758
15032278655
15032284149
15032290191
15032295623
15032301727
15032307769
15032314483
15032320892
15032327606
15032334197
15032340484
15032346465
15032352203
15032360076
15032365630
15032370635
15032377410
15032383575
15032388518
15032394927
15032401824
15032407989
15032414092
15032419524
15032425994
15032431243
15032436187
15032443267
15032449920
15032456572
15032461516
15032467986
15032474090
15032480010
15032486235
15032493071
15032498626
15032505645
15032510955
15032516021
15032522429
15032527495
15032534453
15032541838
15032548125
15032554106
15032558928
15032565520
15032571929
15032578948
15032584258
15032591033
15032596404
15032602141
15032609099
15032615202
15032621611
15032628813
15032635039
15032640898
15032646819
15032653532
15032658903
15032666655
15032672331
15032679106
15032685637
15032691923
15032697539
15032704130
15032712187
15032717497
15032723723
15032729582
15032736784
15032741972
15032747893
15032753691
15032760466
15032767119
15032773161
15032777678
15032785551
15032791838
15032798246
15032805265
15032811918
15032818632
15032822905
15032830473
15032836393
15032842131
15032849760
15032854826
15032861906
15032866484
15032874479
15032880766
15032886625
15032893522
15032898527
15032904203
15032910795
15032917143
15032923063
15032930692
15032936247
15032943388
15032948576
15032954923
15032960966
15032967313
15032973051
15032980314
15032985502
15032991788
15032998075
15033004545
15033010648
15033016447
15033023771
15033030912
15033036344
15033042692
15033048612
15033053006
15033061124
15033067167
15033074186
15033079313
15033086148
15033093045
15033097440
15033104642
15033111905
15033119107
15033125028
15033131253
15033136991
15033142118
15033148526
15033155057
15033162259
15033167447
15033173123
15033178555
15033189176
15033196805
15033206387
15033216946
15033224027
15033233670
15033241666
15033250760
15033257962
15033267361
15033278104
15033288663
15033298917
15033305203
15033315213
15033322049
15033335721
15033342801
15033349881
15033360562
15033370877
15033379727
15033390103
15033398465
15033407254
15033417202
15033427639
15033436856
15033445217
15033454922
15033462673
15033472378
15033482998
15033498562
15033517605
15033531704
15033554104
15033571194
15033587063
15033609585
15033628567
15033646938
15033663845
15033680812
15033698574
15033716457
15033733669
15033742519
15033751430
15033759059
15033773403
15033788173
15033805446
15033824367
15033837611
15033854030
15033865382
15033874721
15033883449
15033892055
15033902186
15033911586
15033920863
15033929652
15033938441
15033948634
15033957057
15033966639
15033975184
15033984095
15033993129
15034001063
15034008998
15034016993
15034025721
15034035426
15034044093
15034052149
15034060389
15034072718
15034082545
15034090724
15034099085
15034107874
15034118250
15034127284
15034137721
15034146693
15034155360
15034165247
15034174525
15034182398
15034191736
15034199366
15034208704
15034218897
15034225855
15034233179
15034240931
15034245997
15034252894
15034258936
15034265284
15034272059
15034277308
15034284266
15034289637
15034296350
15034302027
15034312647
15034318506
15034322168
15034332910
15034337732
15034344690
15034350489
15034357019
15034363001
15034368128
15034375635
15034383508
15034389185
15034394190
15034401758
15034406213
15034413110
15034418909
15034425684
15034432031
15034436548
15034443628
15034450342
15034456506
15034463403
15034469263
15034475427
15034481958
15034487329
15034494165
15034500513
15034506738
15034512597
15034518518
15034524316
15034530237
15034535852
15034541345
15034548791
15034554223
15034561303
15034568506
15034572473
15034579858
15034585107
15034591333
15034598046
15034604028
15034611291
15034616723
15034623193
15034629541
15034633874
15034640283
15034646447
15034654992
15034660668
15034666162
15034672997
15034678002
15034685449
15034691979
15034697411
15034703271
15034709679
15034716576
15034721154
15034729150
15034734338
15034740380
15034748437
15034753686
15034759179
15034765588
15034770653
15034777123
15034781701
15034789086
15034796288
15034801781
15034808861
15034813683
15034821129
15034825524
15034832726
15034838402
15034844994
15034850670
15034857445
15034862999
15034869591
15034875756
15034882348
15034888329
15034895165
15034900231
15034906578
15034913170
15034918114
15034925255
15034931664
15034937828
15034943383
15034949913
15034955773
15034961876
15034967919
15034973961
15034980492
15034984947
15034991966
15034999291
15035003746
15035012535
15035017540
15035024864
15035031517
15035036461
15035043480
15035047996
15035055809
15035061974
15035069176
15035074303
15035079918
15035085228
15035092308
15035098167
15035105430
15035112022
15035116356
15035125084
15035130089
15035135643
15035142296
15035148399
15035154442
15035161644
15035167747
15035172752
15035179649
15035186119
15035191978
15035198814
15035206199
15035212730
15035217613
15035224021
15035229148
15035235557
15035242454
15035248985
15035254905
15035261131
15035266807
15035273948
15035279563
15035285972
15035292686
15035299400
15035306175
15035312339
15035317771
15035322288
15035329185
15035335838
15035341453
15035347434
15035354392
15035359031
15035365989
15035372031
15035379111
15035384727
15035391807
15035397422
15035403892
15035409324
15035414512
15035421836
15035428611
15035433799
15035439475
15035446006
15035451621
15035458701
15035464560
15035471152
15035476950
15035482810
15035489707
15035495627
15035502463
15035507407
15035514975
15035522055
15035527854
15035533591
15035538779
15035546103
15035550925
15035558798
15035565940
15035572409
15035576682
15035583273
15035591025
15035595908
15035601767
15035609274
15035615378
15035621725
15035626791
15035632895
15035639182
15035644797
15035652243
15035657858
15035663840
15035669211
15035675131
15035680807
15035686545
15035694235
15035699545
15035706625
15035713888
15035718344
15035724386
15035731833
15035738241
15035743490
15035749167
15035756308
15035761862
15035768026
15035773275
15035779501
15035786093
15035792257
15035799276
15035805197
15035810934
15035818014
15035822714
15035829977
15035835653
15035842123
15035846639
15035853048
15035858908
15035866415
15035872152
15035879476
15035885092
15035889669
15035896627
15035901937
15035909261
15035914877
15035922201
15035928243
15035934591
15035940145
15035946188
15035953207
15035958517
15035967184
15035972677
15035979207
15035984212
15035991048
15035997030
15036003621
15036009603
15036015157
15036022725
15036029256
15036034261
15036041158
15036046590
15036051961
15036060079
15036065755
15036071492
15036077047
15036083455
15036089254
15036096028
15036103719
15036109090
15036115682
15036122701
15036128499
15036134297
15036140523
15036146443
15036153646
15036159322
15036165486
15036172444
15036177876
15036184224
15036189961
15036197347
15036203206
15036209493
15036214864
15036220723
15036226277
15036233052
15036240315
15036246419
15036250813
15036259297
15036263997
15036270955
15036278035
15036285359
15036291218
15036298909
15036303914
15036310933
15036317402
15036321797
15036329915
15036335530
15036341328
15036347920
15036353108
15036359517
15036366536
15036372822
15036379109
15036384785
15036389180
15036397908
15036403157
15036410054
15036414570
15036421772
15036427265
15036433918
15036438923
15036445393
15036451863
15036456623
15036465046
15036470234
15036477314
15036483357
15036490009
15036494953
15036501606
15036507893
15036515156
15036521137
15036527058
15036532612
15036538898
15036544392
15036551166
15036557819
15036563312
15036569843
15036575397
15036581745
15036587360
15036594135
15036599811
15036606098
15036611957
15036619221
15036624225
15036630695
15036635822
15036641071
15036648334
15036655903
15036662006
15036667255
15036672382
15036679401
15036684528
15036692585
15036699420
15036704364
15036712238
15036717182
15036722919
15036730121
15036736774
15036741229
15036748310
15036753559
15036760455
15036766254
15036772785
15036779743
15036786517
15036792255
15036799152
15036804279
15036810992
15036816547
15036822040
15036828937
15036835406
15036842242
15036848224
15036853961
15036859576
15036864764
15036872211
15036877582
15036884601
15036889422
15036895770
15036903033
15036909503
15036915912
15036923358
15036929339
15036935077
15036941790
15036946734
15036953265
15036958758
15036965716
15036973040
15036978045
15036984881
15036989642
15036996600
15037001788
15037009478
15037014422
15037021380
15037028826
15037035113
15037040606
15037046893
15037053057
15037058734
15037064715
15037071917
15037076800
15037083209
15037088458
15037094317
15037101031
15037108294
15037113665
15037121355
15037126116
15037133074
15037139239
15037144915
15037151202
15037157793
15037164873
15037170611
15037176226
15037182268
15037189776
15037194353
15037201616
15037207415
15037213762
15037219195
15037224383
15037232195
15037239153
15037244890
15037250933
15037257891
15037263628
15037268877
15037274675
15037282366
15037288103
15037294695
15037300432
15037307207
15037312761
