14954312424
14954325364
14954333970
14954344224
14954355027
14954362778
14954372971
14954384385
14954393662
14954402817
14954413071
14954422226
14954429673
14954441697
14954450241
14954460373
14954469040
14954477585
14954488816
14954496079
14954508042
14954518662
14954526596
14954535019
14954546738
14954557602
14954568344
14954575729
14954587082
14954596298
14954604416
14954614242
14954623642
14954629989
14954640487
14954649643
14954657211
14954669601
14954681381
14954689926
14954699203
14954709457
14954719528
14954729293
14954739120
14954749069
14954758834
14954768478
14954778305
14954789413
14954799606
14954809921
14954821639
14954831893
14954841110
14954852523
14954861129
14954866744
14954873885
14954883163
14954890670
14954897140
14954907088
14954912948
14954919784
14954928451
14954935836
14954942855
14954950545
14954957931
14954966170
14954973555
14954982406
14954989913
14954998702
14955006087
14955014388
14955021224
14955027083
14955035811
14955042708
14955050215
14955059188
14955065962
14955072615
14955079451
14955088606
14955095931
14955102095
14955108687
14955118331
14955126265
14955132369
14955139693
14955145857
14955155196
14955162337
14955170576
14955177534
14955186079
14955193220
14955200667
14955207991
14955216231
14955223616
14955233076
14955240095
14955247297
14955254316
14955260542
14955267317
14955276228
14955284285
14955290510
14955298323
14955306074
14955310713
14955319685
14955326643
14955332685
14955341291
14955347334
14955355451
14955361677
14955370283
14955376509
14955384626
14955393415
14955399641
14955408552
14955416242
14955425764
14955433210
14955441145
14955447920
14955457502
14955463483
14955470380
14955479230
14955485395
14955493757
14955501081
14955508955
14955516218
14955522321
14955530927
14955536970
14955545209
14955551374
14955559125
14955565229
14955576215
14955583112
14955590558
14955598554
14955606549
14955613446
14955622235
14955629743
14955637738
14955645185
14955652265
14955659772
14955668012
14955675275
14955683881
14955691388
14955698712
14955706586
14955713605
14955723859
14955731549
14955739789
14955749066
14955757855
14955765851
14955773846
14955781842
14955789960
14955797101
14955805646
14955815045
14955823285
14955834149
14955842572
14955849713
14955858014
14955866681
14955874981
14955883221
14955891888
14955901776
14955910626
14955919598
14955924664
14955935406
14955943646
14955950787
14955958477
14955969097
14955976055
14955984966
14955992596
14956000469
14956010235
14956018353
14956024944
14956033184
14956041851
14956050457
14956059551
14956068035
14956075603
14956084392
14956094585
14956101421
14956111858
14956120464
14956127910
14956135601
14956146465
14956151958
14956163372
14956171367
14956182171
14956190349
14956195903
14956205608
14956214275
14956224224
14956233318
14956241252
14956250164
14956260845
14956267803
14956277446
14956286113
14956293743
14956301372
14956312114
14956320720
14956330364
14956339214
14956347759
14956356975
14956364116
14956371867
14956382548
14956390849
14956399516
14956410197
14956415874
14956428203
14956433757
14956443706
14956452189
14956460246
14956468730
14956477275
14956486613
14956494853
14956503642
14956513285
14956519023
14956530131
14956539042
14956548564
14956554179
14956564738
14956572672
14956581950
14956592143
14956597941
14956610453
14956616679
14956627909
14956636210
14956645060
14956653971
14956663187
14956672282
14956680216
14956688883
14956698710
14956706278
14956716959
14956726420
14956735209
14956743448
14956749674
14956755900
14956765665
14956773539
14956781839
14956789530
14956796915
14956805216
14956813883
14956822123
14956830179
14956838358
14956846048
14956853556
14956861612
14956869242
14956877237
14956885660
14956894144
14956901468
14956909342
14956917947
14956926126
14956934366
14956942972
14956951395
14956960245
14956968423
14956975870
14956984048
14956990701
14956998514
14957005472
14957012979
14957021341
14957028787
14957035989
14957043069
14957050454
14957058816
14957066324
14957077676
14957087137
14957095681
14957100320
14957112405
14957120217
14957127237
14957133828
14957142312
14957149697
14957159524
14957166421
14957176187
14957184121
14957191567
14957198708
14957210244
14957218423
14957226479
14957236001
14957244057
14957257241
14957265542
14957269936
14957278115
14957285256
14957294350
14957300332
14957307534
14957314675
14957320840
14957327431
14957333840
14957339211
14957345070
14957351174
14957357888
14957364541
14957370827
14957377358
14957383217
14957389748
14957394936
14957401040
14957407509
14957414040
14957420143
14957425270
14957429970
14957438942
14957445046
14957450478
14957457009
14957463112
14957468910
14957474709
14957482094
14957489723
14957495094
14957501320
14957506813
14957513527
14957520851
14957526405
14957531838
14957537148
14957543068
14957548378
14957554482
14957561317
14957566872
14957573158
14957578957
14957583412
14957588783
14957593544
14957601417
14957608925
14957613441
14957621010
14957625770
14957631325
14957636024
14957642189
14957649025
14957653785
14957659767
14957665687
14957670936
14957675758
14957681984
14957689308
14957693580
14957699806
14957704567
14957711219
14957715858
14957722450
14957728248
14957734901
14957739357
14957745277
14957750648
14957755531
14957762367
14957769020
14957774085
14957779395
14957785316
14957790504
14957795814
14957802223
14957808997
14957815284
14957821510
14957827430
14957831641
14957839088
14957845252
14957851295
14957857581
14957861793
14957868140
14957872779
14957880530
14957887122
14957892188
14957898231
14957904761
14957911231
14957916175
14957923072
14957929175
14957935706
14957941016
14957948157
14957953162
14957960853
14957968604
14957975501
14957982703
14957988196
14957992469
14957999671
14958005103
14958014746
14958021094
14958026343
14958032996
14958039344
14958045874
14958052771
14958059912
14958066199
14958070471
14958077368
14958082923
14958089331
14958096472
14958102881
14958108801
14958113440
14958119421
14958124304
14958131445
14958139075
14958143652
14958148657
14958155798
14958161230
14958167517
14958172644
14958178625
14958183142
14958190161
14958194678
14958199988
14958208166
14958213110
14958218786
14958223303
14958229101
14958236731
14958242895
14958249182
14958254370
14958260717
14958265844
14958271399
14958278479
14958283789
14958290442
14958295996
14958301977
14958306616
14958313024
14958319494
14958326086
14958330297
14958337438
14958342260
14958347265
14958352148
14958358679
14958366308
14958370397
14958376379
14958382055
14958387487
14958392370
14958398229
14958405126
14958411962
14958418371
14958423010
14958428381
14958433447
14958439672
14958447179
14958452245
14958457189
14958463232
14958468420
14958473669
14958479406
14958486486
14958491796
14958497411
14958503210
14958507726
14958515722
14958522375
14958528844
14958533910
14958539831
14958544713
14958549596
14958555944
14958563085
14958568273
14958574071
14958579808
14958583959
14958591222
14958597448
14958604833
14958610265
14958616124
14958621007
14958625707
14958632909
14958639134
14958645299
14958650426
14958655492
14958661290
14958665929
14958673863
14958679906
14958686192
14958691380
14958696507
14958702977
14958708165
14958715855
14958722020
14958727513
14958734471
14958738377
14958744603
14958750706
14958756383
14958763402
14958768468
14958774449
14958780431
14958785863
14958790684
14958799046
14958804417
14958809849
14958815465
14958821568
14958826695
14958831517
14958837132
14958844517
14958850682
14958855870
14958860447
14958865941
14958872166
14958878331
14958884556
14958890049
14958895481
14958901219
14958906590
14958911717
14958918797
14958923985
14958930394
14958935765
14958940525
14958945713
14958952854
14958959690
14958965428
14958972264
14958977635
14958982456
14958987217
14958994053
14958999668
14959007237
14959013096
14959018528
14959023289
14959030125
14959036350
14959042454
14959048130
14959055027
14959060337
14959065586
14959071567
14959079319
14959084568
14959090000
14959096958
14959101292
14959107578
14959113560
14959119541
14959126194
14959130710
14959136631
14959142673
14959147922
14959152744
14959159885
14959166965
14959172825
14959178989
14959183811
14959188999
14959195285
14959200595
14959206943
14959213169
14959219944
14959224765
14959229831
14959236240
14959242038
14959247776
14959254733
14959260349
14959265781
14959271518
14959277316
14959283969
14959288303
14959295383
14959300083
14959305881
14959310581
14959317050
14959322238
14959329013
14959335239
14959340060
14959345615
14959350497
14959356601
14959363803
14959370578
14959376681
14959382480
14959388339
14959393588
14959399570
14959405551
14959411716
14959416415
14959422885
14959428378
14959434726
14959440951
14959446444
14959451877
14959457919
14959462069
14959469272
14959475314
14959481906
14959486178
14959492526
14959498812
14959504123
14959508700
14959516330
14959523654
14959530795
14959537081
14959543063
14959548312
14959555514
14959562045
14959568942
14959575228
14959580172
14959585787
14959592196
14959598177
14959604525
14959609591
14959614840
14959620516
14959625643
14959630709
14959636752
14959643587
14959650118
14959655062
14959661166
14959666537
14959671908
14959678316
14959684420
14959690401
14959694979
14959701510
14959706576
14959712618
14959719271
14959725313
14959730868
14959737337
14959742220
14959747652
14959754427
14959760714
14959765902
14959773104
14959779512
14959784334
14959792208
14959798250
14959804293
14959810579
14959815584
14959820284
14959826387
14959832308
14959838411
14959844881
14959850374
14959855928
14959861971
14959867220
14959874788
14959881258
14959887789
14959894502
14959898531
14959905428
14959910188
14959916292
14959923189
14959929048
14959934419
14959939302
14959944490
14959950838
14959955293
14959962556
14959968843
14959974885
14959979646
14959985506
14959990571
14959996431
14960002656
14960009797
14960015779
14960020357
14960027070
14960032258
14960038240
14960045686
14960051301
14960057405
14960063264
14960069246
14960076814
14960081941
14960089936
14960095918
14960100801
14960106843
14960113252
14960119660
14960126069
14960132966
14960137239
14960143769
14960147920
14960156587
14960163667
14960169770
14960174897
14960179658
14960186006
14960190827
14960196870
14960204255
14960208772
14960215730
14960220246
14960225556
14960231660
14960238923
14960245087
14960250153
14960255280
14960261079
14960266450
14960271699
14960278290
14960285248
14960291718
14960296662
14960302765
14960308198
14960313447
14960319245
14960325532
14960330964
14960336701
14960342621
14960346955
14960353486
14960359406
14960365754
14960371186
14960376862
14960382538
14960386933
14960391510
14960399079
14960405060
14960410309
14960416962
14960422272
14960427948
14960435822
14960442597
14960449005
14960454804
14960459809
14960466095
14960470673
14960476776
14960481720
14960489838
14960494965
14960500641
14960506256
14960511444
14960518036
14960525543
14960531342
14960535736
14960541779
14960546417
14960553070
14960559357
14960566193
14960570648
14960576080
14960581818
14960586944
14960591827
14960599884
14960605682
14960611969
14960617767
14960622162
14960627838
14960633453
14960640594
14960646393
14960652801
14960657928
14960662811
14960669037
14960674652
14960680694
14960686920
14960691925
14960697723
14960702362
14960708526
14960714935
14960721282
14960726898
14960733367
14960739227
14960745269
14960749603
14960755706
14960762359
14960767669
14960774017
14960779266
14960784087
14960789275
14960795623
14960802154
14960807159
14960812408
14960819061
14960824615
14960830596
14960836822
14960841888
14960848235
14960854827
14960859344
14960864959
14960871184
14960877532
14960884551
14960889800
14960895721
14960900542
14960905974
14960912566
14960917693
14960924712
14960931365
14960936614
14960942656
14960948150
14960953277
14960959014
14960965911
14960970855
14960976836
14960982940
14960987883
14960994536
14961001311
14961007476
14961012908
14961018462
14961024199
14961030059
14961035613
14961041533
14961048552
14961053435
14961059172
14961065398
14961070525
14961077239
14961083525
14961088286
14961095061
14961099089
14961105376
14961111479
14961116667
14961123198
14961128691
14961134978
14961141081
14961145659
14961152006
14961158171
14961164336
14961170805
14961178068
14961184782
14961190581
14961196440
14961202971
14961210539
14961216948
14961222929
14961228727
14961234038
14961239836
14961247038
14961252287
14961257170
14961263090
14961267607
14961274931
14961284330
14961298674
14961304899
14961311491
14961316191
14961323820
14961331022
14961337187
14961344450
14961350736
14961356291
14961361234
14961369535
14961375578
14961382536
14961388639
14961393095
14961398954
14961406828
14961413053
14961418607
14961425321
14961430143
14961436124
14961441129
14961447721
14961452909
14961460050
14961465787
14961470426
14961475492
14961481351
14961488004
14961494474
14961499357
14961504545
14961510587
14961515470
14961522062
14961527738
14961533841
14961539457
14961545560
14961551603
14961556302
14961561185
14961567472
14961574857
14961579801
14961584928
14961591031
14961596769
14961601773
14961607511
14961614591
14961621671
14961627042
14961631925
14961638089
14961644986
14961650052
14961656705
14961662686
14961666959
14961673978
14961678677
14961685147
14961691800
14961696317
14961702786
14961708463
14961713223
14961719388
14961725430
14961733426
14961738675
14961744412
14961750394
14961755093
14961760098
14961768033
14961773465
14961779385
14961784756
14961789578
14961794644
14961801907
14961808377
14961814236
14961819241
14961824795
14961829617
14961835904
14961842007
14961848233
14961854580
14961860012
14961866665
14961871487
14961877530
14961884610
14961889492
14961894802
14961902432
14961906643
14961912564
14961918362
14961924221
14961930386
14961936123
14961940457
14961946499
14961952542
14961956814
14961963894
14961970486
14961975857
14961982571
14961988735
14961994167
14961998989
14962006130
14962012539
14962017239
14962023342
14962029263
14962033962
14962040005
14962046352
14962052334
14962057888
14962062954
14962069057
14962073635
14962080288
14962086147
14962093593
14962101162
14962107326
14962114406
14962119228
14962125210
14962133205
14962138942
14962145534
14962149929
14962157436
14962162380
14962169887
14962175014
14962182216
14962187282
14962193386
14962199184
14962204067
14962211330
14962218715
14962224147
14962230678
14962235439
14962241298
14962246242
14962252956
14962259670
14962265346
14962271327
14962276088
14962281093
14962286037
14962293239
14962300319
14962305995
14962313503
14962321254
14962325343
14962332729
14962338527
14962346339
14962353175
14962358302
14962364284
14962370021
14962376124
14962382594
14962388637
14962395228
14962401942
14962407435
14962413112
14962420802
14962428004
14962433009
14962439967
14962444850
14962453456
14962460048
14962467128
14962473780
14962479029
14962484278
14962491542
14962498194
14962504969
14962511073
14962517115
14962521510
14962527796
14962534693
14962541712
14962546717
14962552455
14962558924
14962563136
14962568202
14962576746
14962584071
14962588648
14962594813
14962599513
14962605616
14962610926
14962616663
14962622523
14962628077
14962634730
14962641077
14962645533
14962653773
14962658778
14962665491
14962671595
14962677698
14962682093
14962686915
14962694788
14962701319
14962706873
14962712305
14962717249
14962722437
14962727686
14962734217
14962741358
14962747706
14962752649
14962759119
14962764551
14962769739
14962775843
14962781275
14962788050
14962793482
14962798181
14962803675
14962809717
14962815821
14962822351
14962828821
14962833032
14962839868
14962844629
14962851099
14962857874
14962862451
14962869104
14962874902
14962880579
14962885584
14962891443
14962896387
14962904321
14962908838
14962914941
14962920374
14962925134
14962933740
14962938928
14962945642
14962951196
14962955713
14962961389
14962967798
14962973291
14962980066
14962986658
14962992151
14962996728
14963001794
14963006921
14963013757
14963021386
14963026330
14963031518
14963037622
14963042260
14963047448
14963054895
14963061731
14963066613
14963071618
14963078027
14963083276
14963089502
14963095666
14963101892
14963108239
14963112512
14963119348
14963124230
14963131799
14963136865
14963142785
14963148583
14963154443
14963160607
14963165368
14963172082
14963177819
14963184350
14963189904
14963194726
14963200036
14963205468
14963213036
14963218713
14963225426
14963230614
14963235314
14963241479
14963247460
14963253808
14963260155
14963265771
14963271630
14963276086
14963283532
14963291955
14963296837
14963303490
14963309716
14963313988
14963320275
14963326317
14963332665
14963337914
14963343163
14963349450
14963355248
14963359826
14963365990
14963373192
14963379784
14963384423
14963391014
14963395653
14963402245
14963406945
14963412743
14963418114
14963425499
14963430809
14963436791
14963441612
14963446739
14963453575
14963460289
14963465599
14963471947
14963476647
14963481957
14963487267
14963492821
14963499596
14963506310
14963511742
14963517784
14963523155
14963528465
14963533897
14963540672
14963547142
14963551964
14963556724
14963562767
14963569725
14963575645
14963581749
14963588402
14963593773
14963599388
14963603538
14963611412
14963616661
14963623314
14963628929
14963633201
14963639793
14963643943
14963652122
14963658775
14963665489
14963669212
14963675926
14963682457
14963687034
14963693870
14963698692
14963705467
14963709922
14963716392
14963722434
14963727195
14963733848
14963740379
14963746116
14963751487
14963757469
14963763450
14963768638
14963775718
14963780967
14963786155
14963793418
14963798118
14963803123
14963809470
14963816734
14963822410
14963827171
14963835288
14963842002
14963846030
14963852561
14963858176
14963865806
14963872214
14963878501
14963885825
14963891746
14963897849
14963904746
14963910544
14963917014
14963921409
14963928122
14963934775
14963941306
14963946372
14963951560
14963958396
14963963401
14963969443
14963975669
14963980918
14963987632
14963993003
14963998923
14964003989
14964008444
14964017417
14964024924
14964029135
14964033957
14964040915
14964046652
14964051413
14964058859
14964064597
14964071799
14964077292
14964083090
14964088156
14964094687
14964098471
14964106223
14964112387
14964118979
14964124716
14964129538
14964136618
14964142233
14964149496
14964155478
14964160361
14964165060
14964171835
14964178305
14964183676
14964190085
14964195639
14964202475
14964207358
14964213583
14964219198
14964226950
14964233786
14964239035
14964245810
14964252890
14964259054
14964265463
14964272055
14964279318
14964285788
14964292074
14964299642
14964304891
14964311056
14964319235
14964326132
14964331442
14964338339
14964344015
14964350607
14964357443
14964362570
14964369528
14964375814
14964380636
14964387655
14964393819
14964401998
14964407919
14964412679
14964419088
14964423421
14964431844
14964438619
14964447774
14964453817
14964461629
14964466939
14964474813
14964481283
14964487752
14964495321
14964500387
14964506734
14964513692
14964520589
14964527364
14964532674
14964540426
14964546895
14964553670
14964559102
14964564473
14964572896
14964580281
14964585775
14964593404
14964599263
14964604390
14964610066
14964617452
14964622884
14964627278
14964632710
14964639241
14964645345
14964650411
14964656453
14964663106
14964669026
14964674580
14964680135
14964686543
14964691365
14964697285
14964704121
14964710957
14964717915
14964724995
14964732564
14964738789
14964746663
14964754048
14964760945
14964769124
14964776082
14964782246
14964788899
14964795918
14964801289
14964806904
14964814045
14964819844
14964825642
14964831929
14964837544
14964842610
14964849202
14964854206
14964859455
14964865132
14964870747
14964878010
14964883381
14964889424
14964894367
14964900532
14964905903
14964912800
14964919575
14964926533
14964931050
14964936238
14964941914
14964948628
14964954121
14964960102
14964966389
14964972126
14964978474
14964982319
14964989826
14964995502
14965002705
14965006855
14965015156
14965021015
14965025715
14965032123
14965038654
14965043842
14965048969
14965056232
14965062214
14965068317
14965074055
14965079243
14965086139
14965092243
14965098224
14965103718
14965109760
14965117023
14965123188
14965128254
14965134845
14965139362
14965147541
14965153522
14965158832
14965164569
14965170917
14965176349
14965182270
14965187885
14965193744
14965199726
14965206562
14965211749
14965216815
14965224018
14965228534
14965234577
14965242206
14965247760
14965253681
14965259052
14965263934
14965270892
14965275592
14965282733
14965289142
14965295367
14965301044
14965307025
14965312762
14965318805
14965326251
14965333758
14965339130
14965343280
14965348407
14965354510
14965359759
14965366534
14965372516
14965378741
14965382403
14965389178
14965395526
14965400226
14965406573
14965411700
14965419391
14965425128
14965430804
14965435992
14965442035
14965447223
14965452777
14965458026
14965463763
14965469256
14965474322
14965480670
14965485430
14965490679
14965496722
14965502276
14965508868
14965515032
14965519854
14965526385
14965531207
14965536212
14965543902
14965549456
14965556780
14965562701
14965568499
14965574175
14965581683
14965587237
14965594012
14965599566
14965605425
14965611834
14965616656
14965623064
14965626482
14965633990
14965639300
14965645586
14965652544
14965657427
14965663897
14965668474
14965675310
14965680498
14965686968
14965692888
14965698321
14965705401
14965711382
14965717058
14965722673
14965728411
14965736345
14965742022
14965747393
14965752642
14965758440
14965763811
14965769426
14965777422
14965783708
14965790056
14965794634
14965799822
14965804338
14965810991
14965815569
14965823320
14965829119
14965835649
14965841142
14965847185
14965852800
14965857988
14965865251
14965871111
14965878069
14965882829
14965889604
14965895403
14965900957
14965905778
14965913103
14965919450
14965924455
14965930315
14965935258
14965941057
14965946367
14965951005
14965957780
14965962724
14965969133
14965974016
14965980424
14965985063
14965991533
14965996110
14966004045
14966010331
14966016252
14966022416
14966029130
14966035417
14966041276
14966047624
14966054460
14966059770
14966064469
14966070024
14966075883
14966081315
14966087236
14966093278
14966098710
14966106523
14966111772
14966118058
14966123857
14966130021
14966137773
14966144364
14966149308
14966156693
14966161393
14966166764
14966171220
14966176835
14966183976
14966190141
14966195084
14966201005
14966206132
14966212113
14966217057
14966222611
14966227555
14966234635
14966239945
14966246171
14966251359
14966257767
14966262528
14966269303
14966274613
14966279984
14966285294
14966291581
14966297013
14966302567
14966306778
14966312333
14966319535
14966325455
14966331315
14966336625
14966342240
14966347489
14966353104
14966358170
14966364151
14966370438
14966376419
14966382401
14966388626
14966393997
14966400345
14966407181
14966414017
14966418472
14966423966
14966429337
14966435135
14966443192
14966448868
14966454178
14966460404
14966466263
14966472549
14966478104
14966482620
14966487625
14966494888
14966500565
14966506424
14966511734
14966517410
14966522720
14966527664
14966533035
14966538589
14966544327
14966550552
14966556839
14966563309
14966569473
14966575516
14966581680
14966586929
14966594925
14966599869
14966605850
14966612869
14966618057
14966623001
14966628372
14966634414
14966639968
14966644912
14966651077
14966656448
14966663284
14966668533
14966675247
14966680679
14966686477
14966692275
14966697952
14966703445
14966709060
14966714614
14966719985
14966725540
14966731277
14966736831
14966742568
14966748550
14966754104
14966759780
14966765762
14966771987
14966776748
14966782241
14966788223
14966793716
14966798904
14966804458
14966809707
14966815383
14966821975
14966825698
14966832473
14966837966
14966842910
14966848830
14966855788
14966861526
14966866408
14966871779
14966876418
14966883193
14966888015
14966895400
14966901259
14966907851
14966914138
14966920791
14966927199
14966932936
14966938124
14966944167
14966949965
14966954787
14966960402
14966966201
14966971755
14966977553
14966983107
14966988234
14966994887
14967002516
14967008437
14967013259
14967019057
14967024001
14967029494
14967034987
14967041579
14967046889
14967054335
14967059706
14967065260
14967070265
14967076369
14967081374
14967088087
14967092909
14967099745
14967105238
14967110915
14967116408
14967120985
14967126112
14967133314
14967139540
14967146193
14967151991
14967157179
14967162733
14967168043
14967173659
14967180372
14967186659
14967192885
14967199232
14967205641
14967212050
14967217970
14967224623
14967230299
14967235975
14967241590
14967247084
14967253736
14967260389
14967266920
14967273451
14967279127
14967285963
14967291639
14967298109
14967305128
14967309278
14967317579
14967321668
14967329420
14967335279
14967341566
14967347486
14967352247
14967357618
14967362440
14967367750
14967372633
14967379408
14967384168
14967389722
14967394544
14967400709
14967405347
14967410780
14967415540
14967421888
14967426771
14967432569
14967437574
14967444593
14967450269
14967456495
14967462049
14967469678
14967475599
14967480848
14967486463
14967492566
14967498182
14967505872
14967511182
14967516248
14967521558
14967526746
14967532788
14967539014
14967545728
14967551892
14967558423
14967564466
14967571790
14967578992
14967585401
14967593335
14967597730
14967605542
14967609571
14967617444
14967624280
14967629163
14967636121
14967642346
14967648755
14967654431
14967661084
14967666394
14967674634
14967681470
14967687390
14967695203
14967701733
14967708081
14967714429
14967721387
14967726208
14967732678
14967737866
14967747204
14967752576
14967759106
14967764905
14967770093
14967775586
14967782177
14967789441
14967794446
14967801831
14967807385
14967813916
14967819409
14967825085
14967833020
14967838086
14967844799
14967849804
14967858105
14967863537
14967869274
14967875256
14967881481
14967887158
14967893811
14967900280
14967907177
14967912792
14967918102
14967926647
14967932324
14967938366
14967944103
14967949230
14967955944
14967962780
14967970470
14967976025
14967981335
14967988720
14967993237
14967998852
14968005810
14968013317
14968019298
14968024731
14968031628
14968036632
14968042736
14968049023
14968056774
14968061657
14968068554
14968074535
14968080578
14968086071
14968092296
14968098644
14968106884
14968112865
14968117626
14968124218
14968131237
14968135875
14968143200
14968149913
14968155529
14968161754
14968167919
14968172801
14968179515
14968184276
14968192333
14968197948
14968204479
14968210216
14968216930
14968222240
14968228099
14968234935
14968240428
14968246837
14968252147
14968258861
14968264720
14968271678
14968277293
14968284618
14968290782
14968296214
14968303294
14968308604
14968314830
14968320811
14968328441
14968334483
14968339305
14968347117
14968353099
14968358897
14968364879
14968372386
14968378062
14968382884
14968390330
14968396556
14968402720
14968408091
14968415110
14968422557
14968426829
14968434397
14968439219
14968446604
14968451915
14968459910
14968467051
14968472117
14968479563
14968484629
14968491282
14968496348
14968504710
14968512156
14968518565
14968523936
14968529856
14968535532
14968542429
14968548167
14968554575
14968560435
14968567027
14968573191
14968579966
14968586131
14968591868
14968599680
14968605112
14968610789
14968617991
14968623118
14968629954
14968635447
14968641611
14968647776
14968656077
14968662058
14968667368
14968675120
14968680369
14968686228
14968692698
14968699656
14968705332
14968711374
14968716990
14968723337
14968729074
14968735056
14968740793
14968747141
14968752756
14968759470
14968765146
14968771128
14968776865
14968783579
14968789499
14968794748
14968800607
14968807565
14968813852
14968819284
14968825632
14968833383
14968838815
14968843271
14968850168
14968855173
14968861581
14968866647
14968872202
14968879160
14968885873
14968891489
14968898019
14968903329
14968911020
14968916391
14968923959
14968929391
14968937448
14968943857
14968950570
14968956918
14968963266
14968969552
14968975412
14968981698
14968987314
14968993173
14968999337
14969005197
14969011239
14969016793
14969021554
14969028817
14969033090
14969038339
14969044320
14969050729
14969058358
14969064462
14969071420
14969077340
14969082345
14969088510
14969096200
14969101937
14969107186
14969113961
14969118905
14969124642
14969129525
14969135507
14969140328
14969147958
14969153878
14969160287
14969164254
14969171456
14969176949
14969181344
14969186654
14969192269
14969197579
14969203561
14969209115
14969214730
14969220284
14969225289
14969230782
14969237008
14969243355
14969249215
14969255440
14969260872
14969266854
14969273263
14969279244
14969284554
14969291817
14969296395
14969303170
14969308052
14969313301
14969319527
14969324654
14969329720
14969336983
14969341805
14969349984
14969356270
14969362740
14969368843
14969375313
14969381478
14969387947
14969394417
14969400154
14969405708
14969410347
14969417244
14969421700
14969428719
14969433479
14969441109
14969445870
14969450935
14969456978
14969461983
14969467903
14969472786
14969477608
14969484016
14969488899
14969495369
14969500252
14969506721
14969512398
14969517280
14969522224
14969529487
14969536079
14969542854
14969549324
14969555855
14969562324
14969568550
14969575264
14969581855
14969588325
14969593635
14969600105
14969606331
14969612617
14969618476
14969627266
14969632270
14969638862
14969643745
14969649299
14969655769
14969661140
14969666145
14969672676
14969677497
14969683845
14969688545
14969693794
14969698432
14969704719
14969709358
14969716804
14969721992
14969727668
14969733161
14969738960
14969745124
14969750190
14969757819
14969762458
14969769233
14969774238
14969779853
14969785468
14969790961
14969796455
14969802375
14969807685
14969813239
14969818427
14969824287
14969833381
14969839606
14969844489
14969849982
14969856147
14969861518
14969866523
14969873542
14969878669
14969884223
14969889228
14969897406
14969902655
14969909064
14969914374
14969919013
14969924384
14969930548
14969936469
14969942878
14969947760
14969954596
14969960883
14969967230
14969973212
14969978339
14969986395
14969990912
14969996405
14970001654
14970007269
14970014288
14970020209
14970024725
14970031012
14970039801
14970045355
14970050116
14970055365
14970060004
14970066473
14970071112
14970077704
14970083258
14970088080
14970093024
14970099005
14970104010
14970111029
14970116461
14970122259
14970127814
14970133917
14970139899
14970145575
14970151190
14970157171
14970163153
14970169989
14970175970
14970181891
14970188421
14970194403
14970200689
14970207403
14970213873
14970219549
14970227362
14970233099
14970239813
14970244574
14970250006
14970256231
14970262396
14970267218
14970272711
14970279058
14970285284
14970291143
14970298467
14970304205
14970310247
14970317388
14970322698
14970328008
14970333013
14970338445
14970344244
14970350530
14970356329
14970361944
14970367803
14970373418
14970378362
14970385198
14970389776
14970395513
14970403142
14970409185
14970413946
14970422002
14970427862
14970434942
14970440557
14970446599
14970451360
14970458074
14970463628
14970468572
14970473516
14970480779
14970486638
14970493413
14970499761
14970505559
14970512090
14970518071
14970524419
14970531255
14970537542
14970544927
14970550481
14970556218
14970561650
14970567144
14970572637
14970577764
14970585637
14970590947
14970597356
14970603337
14970610784
14970615666
14970621587
14970626897
14970634953
14970640447
14970646367
14970652715
14970658269
14970663518
14970670476
14970676091
14970683476
14970689336
14970696721
14970703129
14970709233
14970715947
14970722417
14970728703
14970734135
14970739567
14970745305
14970750493
14970756474
14970764103
14970769841
14970776494
14970782780
14970789128
14970795720
14970801884
14970807988
14970813786
14970819889
14970825749
14970832646
14970838810
14970844303
14970851506
14970857426
14970862736
14970868840
14970874211
14970878971
14970884281
14970889103
14970895512
14970900211
14970905399
14970912174
14970917118
14970923405
14970930058
14970936405
14970943058
14970948978
14970955509
14970962284
14970967777
14970974308
14970980961
14970987308
14970993900
14971000187
14971006718
14971013370
14971019840
14971025333
14971029850
14971036686
14971041569
14971047916
14971052677
14971058292
14971063358
14971070438
14971075382
14971081913
14971087345
14971091800
14971096683
14971105289
14971112003
14971118473
14971125003
14971131656
14971138004
14971143192
14971149723
14971156864
14971162113
14971166873
14971172183
14971178287
14971183841
14971188297
14971195560
14971200565
14971206912
14971215030
14971220889
14971225772
14971233768
14971238529
14971246463
14971252383
14971258243
14971264346
14971269351
14971275455
14971280521
14971285342
14971291812
14971296756
14971303592
14971308841
14971315616
14971323367
14971328067
14971333377
14971339236
14971344790
14971350894
14971356509
14971361880
14971367862
14971374453
14971380740
14971386233
14971392093
14971396914
14971403750
14971408206
14971413699
14971420596
14971427127
14971433047
14971438967
14971444339
14971452212
14971457583
14971463442
14971470095
14971475283
14971480776
14971486514
14971491946
14971497073
14971502627
14971508853
14971514468
14971521792
14971527590
14971533328
14971538821
14971544680
14971550112
14971555544
14971561770
14971567690
14971574160
14971579531
14971585757
14971592043
14971598452
14971605227
14971611758
14971618654
14971625429
14971630617
14971636965
14971644167
14971648012
14971657168
14971663759
14971668276
14971673708
14971678652
14971685427
14971690371
14971696169
14971701052
14971706972
14971711916
14971719118
14971724672
14971729250
14971734255
14971741030
14971746096
14971754763
14971760805
14971765383
14971771608
14971777956
14971784426
14971790773
14971797426
14971804018
14971810487
14971817079
14971823488
14971829042
14971835329
14971842287
14971848817
14971854250
14971859621
14971865907
14971872133
14971877565
14971884035
14971891969
14971898134
14971903627
14971910768
14971916078
14971921571
14971926759
14971934083
14971939393
14971947084
14971952516
14971957521
14971962831
14971967714
14971974061
14971981324
14971987611
14971994996
14972001405
14972006532
14972014344
14972019532
14972025880
14972031373
14972037965
14972046205
14972050294
14972058595
14972065248
14972070252
14972076539
14972082765
14972087769
14972093690
14972097291
14972104249
14972109742
14972114503
14972119874
14972124879
14972131226
14972136109
14972142091
14972146973
14972153809
14972158753
14972165711
14972171448
14972176942
14972182374
14972188111
14972193848
14972201905
14972208375
14972214661
14972221375
14972228577
14972234253
14972240906
14972246277
14972253113
14972258667
14972265198
14972271729
14972277161
14972283081
14972289002
14972294312
14972299012
14972304627
14972309510
14972316223
14972321656
14972327332
14972332703
14972337036
14972341919
14972348694
14972354248
14972362244
14972368347
14972375305
14972380799
14972385559
14972391236
14972397522
14972403748
14972410156
14972416260
14972421692
14972427612
14972433044
14972439209
14972445679
14972453918
14972458801
14972464355
14972468994
14972475159
14972480896
14972487610
14972493347
14972501648
14972507019
14972512207
14972517700
14972523987
14972529602
14972534424
14972541626
14972547119
14972553406
14972559997
14972566284
14972572815
14972579162
14972584961
14972590820
14972595581
14972601074
14972607055
14972612854
14972619628
14972624939
14972631164
14972637084
14972644287
14972652160
14972657409
14972663269
14972670104
14972675292
14972682372
14972688598
14972695495
14972701171
14972706359
14972711913
14972717162
14972723571
14972729186
14972736083
14972741576
14972745727
14972752624
14972758422
14972763610
14972768310
14972776366
14972783141
14972788390
14972793822
14972799987
14972805602
14972811584
14972818786
14972825377
14972830932
14972836547
14972841796
14972848388
14972853515
14972858703
14972866515
14972871825
14972878600
14972883666
14972890685
14972897582
14972902709
14972907409
14972915892
14972921263
14972926879
14972934325
14972939940
14972946044
14972952391
14972958434
14972965087
14972970946
14972975646
14972982848
14972987853
14972993834
14973001280
14973007994
14973013304
14973019103
14973024168
14973030943
14973036620
14973042418
14973047423
14973053343
14973058043
14973064329
14973069212
14973075255
14973080138
14973087157
14973092467
14973099608
14973105528
14973111387
14973117491
14973124632
14973130797
14973136168
14973142210
14973148680
14973154417
14973160215
14973165648
14973171934
14973176939
14973183592
14973189329
14973195494
14973200865
14973205626
14973212522
14973217955
14973223448
14973228758
14973234983
14973241087
14973247618
14973253782
14973259275
14973265501
14973272520
14973279112
14973285276
14973291258
14973296568
14973302671
14973309080
14973315244
14973321958
14973326536
14973334592
14973338621
14973346494
14973352903
14973358152
14973361875
14973370481
14973376279
14973381040
14973388059
14973395444
14973400632
14973406675
14973413877
14973419797
14973425657
14973431577
14973438962
14973442869
14973450986
14973457883
14973463071
14973469785
14973474973
14973482785
14973488218
14973494626
14973501096
14973510251
14973516538
14973521787
14973527707
14973534116
14973539426
14973544431
14973550717
14973555539
14973562253
14973567563
14973575070
14973581052
14973586057
14973591245
14973597775
14973603085
14973608273
14973614987
14973619992
14973625546
14973631406
14973637021
14973641965
14973648129
14973654843
14973660825
14973666135
14973673398
14973678708
14973686337
14973690732
14973696591
14973702817
14973708005
14973714230
14973720028
14973725033
14973730588
14973737240
14973743466
14973748837
14973756100
14973761288
14973768551
14973774472
14973780209
14973785946
14973792172
14973798275
14973804135
14973811703
14973817257
14973823361
14973830075
14973836239
14973841976
14973847348
14973852169
14973857723
14973864254
14973869625
14973875973
14973881893
14973886532
14973893673
14973898434
14973904232
14973909054
14973914852
14973919735
14973926449
14973931454
14973938473
14973944454
14973950130
14973955379
14973963009
14973969295
14973975277
14973981319
14973987789
14973993343
14973998836
14974004696
14974011165
14974017391
14974023372
14974028988
14974033443
14974040340
14974044674
14974050167
14974055477
14974062740
14974067562
14974073177
14974079403
14974085140
14974090206
14974095699
14974100704
14974107906
14974113826
14974119564
14974125179
14974131771
14974137752
14974142940
14974148677
14974156246
14974162471
14974168758
14974174739
14974181026
14974185665
14974192378
14974198909
14974203853
14974209956
14974216060
14974222163
14974229060
14974235347
14974241084
14974247188
14974252925
14974258845
14974266170
14974271297
14974277583
14974283137
14974287959
14974296260
14974303828
14974310664
14974316401
14974321528
14974327327
14974335078
14974341975
14974347285
14974354487
14974360591
14974366511
14974372310
14974379084
14974385066
14974390437
14974396479
14974402339
14974408076
14974414912
14974421504
14974426936
14974433955
14974439814
14974445368
14974450434
14974457392
14974463435
14974470149
14974476191
14974483027
14974488703
14974493342
14974500483
14974506587
14974513239
14974517939
14974523554
14974528803
14974535578
14974541743
14974548029
14974553156
14974559321
14974565668
14974572016
14974575739
14974582331
14974588312
14974593500
14974599299
14974604243
14974612604
14974618464
14974624506
14974629694
14974634699
14974641657
14974647822
14974656733
14974662531
14974669062
14974675531
14974681269
14974687738
14974693048
14974700922
14974706232
14974711542
14974717401
14974724604
14974730402
14974734796
14974741083
14974747675
14974754206
14974759455
14974764887
14974770624
14974775446
14974783136
14974788629
14974794122
14974799860
14974805048
14974810724
14974818170
14974824213
14974830133
14974835992
14974841913
14974848199
14974854303
14974859003
14974866266
14974871637
14974878534
14974884332
14974889947
14974895379
14974900873
14974907831
14974914483
14974920343
14974926507
14974933526
14974940057
14974945855
14974950372
14974955682
14974964349
14974969476
14974974786
14974981073
14974987909
14974993585
14974998529
14975004266
14975011285
14975015435
14975021905
14975029473
14975035638
14975041009
14975046136
14975053887
14975060296
14975065179
14975070672
14975076898
14975084405
14975089044
14975094781
14975103204
14975108270
14975114739
14975119744
14975126336
14975132623
14975137261
14975143731
14975149895
14975157769
14975163933
14975169183
14975176629
14975182671
14975188164
14975194329
14975200677
14975206658
14975211907
14975217034
14975225213
14975231926
14975238274
14975244561
14975252190
14975257561
14975261895
14975267876
14975274041
14975279900
14975285271
14975292290
14975298394
14975304497
14975308953
14975317559
14975323296
14975329338
14975334648
14975341789
14975347100
14975353264
14975358330
14975365471
14975370903
14975376824
14975382317
14975387138
14975392632
14975398613
14975404594
14975409844
14975415337
14975420525
14975425957
14975432304
14975438042
14975442497
14975448235
14975454704
14975461113
14975467338
14975473503
14975479423
14975481865
14975494377
14975500297
14975505302
14975511284
14975518303
14975523918
14975530571
14975534538
14975542045
14975548210
14975553154
14975559868
14975565178
14975570732
14975577140
14975580925
14975588371
14975594413
14975599601
14975605766
14975611015
14975618278
14975623710
14975630851
14975636405
14975644279
14975650627
14975657463
14975662956
14975668266
14975673820
14975678581
14975684135
14975691215
14975697624
14975704643
14975711051
14975716361
14975722648
14975729667
14975736137
14975742057
14975748405
14975753898
14975759940
14975765617
14975771354
14975776176
14975783561
14975790885
14975797050
14975802176
14975810111
14975815665
14975821647
14975828666
14975835441
14975840995
14975847525
14975852775
14975861014
14975866629
14975872672
14975878226
14975883170
14975888053
14975894095
14975898978
14975905387
14975910819
14975915580
14975920584
14975927787
14975933280
14975939078
14975944632
14975949393
14975954825
14975960684
14975968131
14975973807
14975979544
14975985404
14975990958
14975996146
14976001639
14976007071
14976012930
14976017447
14976024405
14976028983
14976034598
14976040030
14976045523
14976051749
14976057181
14976061697
14976069022
14976073904
14976080008
14976087088
14976093069
14976100027
14976106131
14976111319
14976119070
14976124807
14976130789
14976137625
14976143667
14976149344
14976156973
14976163748
14976168203
14976173941
14976181204
14976187490
14976193411
14976199087
14976207083
14976213186
14976219595
14976225637
14976231375
14976237356
14976242666
14976248648
14976256399
14976262319
14976268057
14976273977
14976278677
14976284292
14976290884
14976295156
14976301809
14976307790
14976314016
14976319631
14976325185
14976331228
14976336965
14976344717
14976349660
14976354970
14976361196
14976366323
14976371023
14976377004
14976384267
14976390615
14976397390
14976403432
14976408864
14976414663
14976421254
14976426809
14976431997
14976438955
14976444570
14976452016
14976458364
14976465200
14976471853
14976477224
14976482778
14976488576
14976494191
14976500478
14976506154
14976511037
14976516713
14976523122
14976528981
14976535817
14976542226
14976547536
14976553761
14976560536
14976566579
14976573293
14976579701
14976584523
14976589955
14976595509
14976600819
14976606740
14976612111
14976616933
14976624196
14976630177
14976636281
14976643422
14976649770
14976655568
14976662770
14976668507
14976675160
14976680531
14976687306
14976692006
14976696950
14976701649
14976707814
14976712514
14976718495
14976723256
14976730214
14976735585
14976740040
14976744801
14976751576
14976756947
14976763295
14976768910
14976774159
14976780323
14976785817
14976793202
14976798817
14976805226
14976811512
14976817555
14976823902
14976829945
14976835133
14976840931
14976847279
14976853687
14976858509
14976864002
14976869801
14976875355
14976881153
14976887379
14976892811
14976899098
14976905445
14976912037
14976917408
14976923634
14976930286
14976936512
14976941517
14976950489
14976955494
14976960743
14976966968
14976972034
14976976917
14976984119
14976989673
14976997608
14977004078
14977009571
14977015308
14977022876
14977029224
14977034595
14977040027
14977047107
14977053028
14977059497
14977065540
14977070545
14977076587
14977083789
14977089527
14977095325
14977101673
14977107105
14977113025
14977119129
14977124683
14977130603
14977136768
14977142749
14977148975
14977155506
14977161731
14977167896
14977173999
14977180042
14977186145
14977191821
14977197559
14977203174
14977208667
14977213855
14977219409
14977225024
14977232898
14977237353
14977242969
14977248035
14977253345
14977259936
14977264880
14977269641
14977275256
14977281360
14977286365
14977292163
14977298877
14977304614
14977311450
14977317370
14977324756
14977332202
14977337329
14977342822
14977347949
14977353381
14977359057
14977364734
14977369677
14977375109
14977381274
14977386767
14977392199
14977398608
14977405566
14977412341
14977417773
14977423937
14977430773
14977436755
14977442370
14977448413
14977454333
14977460192
14977468676
14977474719
14977479723
14977486132
14977491869
14977499194
14977509692
14977518725
14977526842
14977534655
14977543749
14977551562
14977561510
14977571093
14977581408
14977593188
14977602404
14977610460
14977620043
14977629320
14977640490
14977649462
14977659166
14977667162
14977678209
14977687548
14977696276
14977705919
14977716417
14977725817
14977735399
14977744371
14977750353
14977763780
14977772142
14977781603
14977790270
14977798265
14977806871
14977818163
14977826646
14977837205
14977845445
14977856187
14977863512
14977872240
14977883897
14977892076
14977899766
14977911546
14977920091
14977929246
14977937425
14977946641
14977955186
14977965440
14977973741
14977980394
14977989610
14977997972
14978007920
14978016404
14978026231
14978038316
14978048753
14978056809
14978066453
14978074998
14978084214
14978093919
14978102708
14978111497
14978121629
14978129868
14978140305
14978150925
14978160813
14978171250
14978182175
14978190049
14978196213
14978201768
14978206833
14978212876
14978219040
14978224045
14978229294
14978234299
14978239426
14978245530
14978250840
14978257737
14978264267
14978271347
14978276657
14978283188
14978288376
14978293686
14978300156
14978306015
14978311508
14978316880
14978323349
14978328537
14978334763
14978340012
14978344773
14978350327
14978357224
14978362595
14978367233
14978373886
14978379868
14978384750
14978390732
14978394699
14978401962
14978406784
14978413315
14978418930
14978423569
14978429916
14978434555
14978442062
14978449081
14978454880
14978460617
14978466354
14978471847
14978477585
14978484543
14978489792
14978495224
14978501877
14978507614
14978513839
14978519638
14978525375
14978531418
14978536850
14978543686
14978549118
14978554489
14978560409
14978565597
14978570419
14978577865
14978582077
14978589279
14978593856
14978601181
14978605880
14978613021
14978619552
14978625411
14978630355
14978636215
14978642684
14978647140
14978651718
14978658065
14978662765
14978670577
14978675948
14978681869
14978687179
14978692611
14978699752
14978704818
14978712203
14978718551
14978723861
14978729476
14978734969
14978741073
14978746566
14978751571
14978757430
14978765243
14978770553
14978777022
14978780562
14978788253
14978794051
14978798812
14978805587
14978811507
14978816634
14978822554
14978827742
14978832503
14978837386
14978845748
14978852584
14978858443
14978865523
14978871505
14978879073
14978885726
14978892989
14978898543
14978904097
14978911544
14978916670
14978924971
14978931014
14978936446
14978943404
14978949263
14978955000
14978960372
14978966841
14978972701
14978978560
14978984908
14978989729
14978997176
14979001814
14979008040
14979014693
14979020552
14979026045
14979032820
14979038435
14979043501
14979048933
14979055769
14979061568
14979067610
14979075361
14979080672
14979086836
14979093733
14979099959
14979105208
14979112044
14979118696
14979124251
14979131025
14979136824
14979143538
14979148665
14979153303
14979161543
14979168684
14979174543
14979180036
14979186506
14979191267
14979197248
14979204023
14979210249
14979216841
14979222090
14979228620
14979234785
14979239729
14979246687
14979252302
14979258344
14979263593
14979270979
14979275984
14979282392
14979287092
14979294294
14979301557
14979307661
14979312910
14979319013
14979324262
14979330549
14979335920
14979342145
14979348249
14979354902
14979359907
14979366559
14979372236
14979378034
14979385236
14979392621
14979399274
14979404950
14979412641
14979419111
14979425214
14979432599
14979438520
14979443586
14979450788
14979456403
14979462445
14979468671
14979474713
14979480207
14979485334
14979490766
14979497052
14979503156
14979510785
14979516645
14979523480
14979529950
14979535504
14979540997
14979547955
14979554181
14979561505
14979566205
14979572858
14979580121
14979586469
14979592023
14979597638
14979603925
14979610150
14979615826
14979623090
14979628033
14979632611
14979639569
14979645062
14979651471
14979657269
14979662945
14979668255
14979673749
14979679852
14979685345
14979692975
14979698224
14979705243
14979710980
14979716229
14979723675
14979728680
14979734662
14979739727
14979745282
14979752545
14979757550
14979763836
14979770062
14979775250
14979783184
14979789410
14979794964
14979800823
14979806561
14979811444
14979816448
14979822430
14979829205
14979834515
14979840862
14979846234
14979851421
14979857281
14979863079
14979869610
14979875042
14979880535
14979886089
14979891155
14979896587
14979903423
14979907391
14979915447
14979921368
14979926372
14979931499
14979937847
14979943279
14979948650
14979955791
14979961101
14979966961
14979972332
14979979534
14979984783
14979990459
14979995769
14980003826
14980009746
14980015239
14980020427
14980027080
14980032573
14980037456
14980044353
14980050640
14980056560
14980062114
14980068218
14980074871
14980081218
14980087749
14980092388
14980100017
14980105266
14980111797
14980117595
14980122234
14980128642
14980134197
14980139263
14980145244
14980151470
14980158061
14980162578
14980167217
14980173686
14980178874
14980185161
14980192180
14980198039
14980203593
14980209758
14980215373
14980220744
14980226726
14980232829
14980238628
14980244060
14980250773
14980257060
14980260661
14980268230
14980274516
14980281169
14980287089
14980291728
14980298259
14980302775
14980309184
14980313762
14980321513
14980326945
14980332499
14980337809
14980344035
14980349101
14980354106
14980360209
14980366191
14980372966
14980377604
14980382792
14980388896
14980394145
14980400004
14980405924
14980412516
14980418131
14980424113
14980429789
14980434550
14980439189
14980444682
14980452555
14980457804
14980464091
14980468974
14980475749
14980480998
14980486674
14980491923
14980499613
14980505350
14980511515
14980517191
14980523417
14980528971
14980534159
14980539591
14980547404
14980553202
14980558634
14980564310
14980570597
14980576334
14980583231
14980589823
14980596537
14980602274
14980607035
14980612772
14980617411
14980623819
14980628458
14980635721
14980640970
14980646585
14980652140
14980657877
14980663370
14980667765
14980673136
14980678507
14980683939
14980690531
14980695047
14980700601
14980706095
14980712564
14980718424
14980724222
14980729532
14980735513
14980740885
14980745523
14980750833
14980756754
14980762552
14980766824
14980773355
14980777689
14980782999
14980787637
14980794778
14980799234
14980804727
14980811441
14980815164
14980822305
14980826822
14980834939
14980839395
14980846597
14980853677
14980859415
14980866495
14980872171
14980878885
14980884561
14980891702
14980897439
14980903787
14980909280
14980917032
14980922830
14980930032
14980935403
14980939981
14980944802
14980952005
14980957864
14980963662
14980969278
14980974710
14980980203
14980985269
14980990640
14980997598
14981003579
14981010293
14981016580
14981021768
14981028054
14981033975
14981039834
14981045022
14981050942
14981057473
14981063088
14981069009
14981074685
14981079568
14981086892
14981091409
14981098611
14981103310
14981109170
14981114419
14981120034
14981126626
14981132241
14981138833
14981144387
14981149392
14981155739
14981162881
14981169533
14981175271
14981181618
14981186745
14981194558
14981200356
14981206460
14981213662
14981220681
14981226357
14981233559
14981240578
14981246437
14981252663
14981258461
14981264687
14981271523
14981277626
14981284035
14981291298
14981296486
14981302162
14981308571
14981314308
14981319985
14981325844
14981332253
14981338051
14981344093
14981351479
14981355934
14981361305
14981368141
14981374855
14981381691
14981386940
14981393959
14981399818
14981405495
14981411903
14981417580
14981424232
14981430824
14981435707
14981442238
14981447609
14981453529
14981459816
14981467811
14981473366
14981479164
14981486305
14981491371
14981497902
14981502601
14981510658
14981516395
14981522010
14981527809
14981534523
14981540077
14981547157
14981553871
14981558815
14981565895
14981571815
14981578529
14981583961
14981589515
14981595924
14981602577
14981609474
14981614540
14981620887
14981628028
14981634254
14981640174
14981646339
14981652076
14981659034
14981664466
14981671363
14981677161
14981682105
14981691016
14981696815
14981702125
14981709022
14981715247
14981721839
14981726112
14981732764
14981740027
14981746558
14981751929
14981757667
14981764380
14981770179
14981776771
14981784217
14981789954
14981795142
14981802039
14981807471
14981813819
14981819434
14981826270
14981834021
14981838721
14981845435
14981851722
14981857154
14981862647
14981870337
14981877783
14981883765
14981889441
14981894568
14981902442
14981907202
14981915991
14981922339
14981929175
14981936438
14981943030
14981949683
14981957678
14981963843
14981969702
14981976660
14981982764
14981990820
14981997839
14982003455
14982009863
14982017065
14982022375
14982027624
14982035132
14982041113
14982047278
14982053564
14982060644
14982066443
14982072058
14982077795
14982084387
14982090124
14982096533
14982102270
14982109167
14982115027
14982120398
14982127661
14982133703
14982139196
14982144690
14982150427
14982157812
14982163977
14982168737
14982174597
14982182104
14982188024
14982192968
14982200231
14982205480
14982212072
14982217382
14982223303
14982228674
14982234594
14982240331
14982247717
14982253393
14982259008
14982264318
14982271032
14982276464
14982282140
14982287939
14982293127
14982300878
14982305639
14982312841
14982317480
14982325109
14982329931
14982336950
14982341772
14982348485
14982353307
14982359960
14982364843
14982372411
14982378209
14982384862
14982390844
14982396398
14982403600
14982409765
14982415563
14982421727
14982427892
14982433690
14982439428
14982445287
14982451146
14982458959
14982464452
14982470677
14982476354
14982481298
14982488072
14982494786
14982499181
14982505956
14982511632
14982517064
14982524938
14982530553
14982535741
14982541478
14982548192
14982554173
14982560704
14982566686
14982574071
14982577977
14982585728
14982591527
14982596715
14982604039
14982609227
14982617284
14982623082
14982629552
14982635106
14982640538
14982645909
14982652257
14982658116
14982664647
14982670750
14982677464
14982682591
14982687901
14982693272
14982700108
14982704014
14982712071
14982718358
14982723118
14982730198
14982734898
14982740818
14982745518
14982753697
14982759678
14982766758
14982772557
14982778294
14982784031
14982789829
14982797276
14982803196
14982808933
14982814305
14982819676
14982826512
14982831455
14982836399
14982842259
14982850193
14982856052
14982860935
14982866917
14982873753
14982879246
14982884190
14982891880
14982897434
14982903538
14982908848
14982914036
14982919346
14982925815
14982931614
14982937778
14982943577
14982950291
14982955295
14982959995
14982966160
14982973850
14982979648
14982986301
14982992466
14982997226
14983003757
14983008274
14983014377
14983021152
14983029209
14983034885
14983040500
14983046238
14983052341
14983058078
14983064243
14983070652
14983077243
14983084568
14983089450
14983096103
14983100925
14983106601
14983112644
14983119785
14983124973
14983131015
14983138278
14983143283
14983149936
14983154880
14983161838
14983169711
14983175266
14983179782
14983186435
14983192111
14983197482
14983203281
14983209018
14983216098
14983221408
14983227450
14983232516
14983237094
14983243564
14983248569
14983256625
14983263583
14983269137
14983274569
14983279025
14983285678
14983290561
14983295932
14983303561
14983309420
14983314669
14983321750
14983327365
14983333041
14983339389
14983345248
14983352084
14983357821
14983362582
14983369296
14983373873
14983379244
14983385226
14983392367
14983398104
14983404330
14983410128
14983415499
14983422579
14983427828
14983433627
14983440951
14983448092
14983453707
14983459444
14983465182
14983470797
14983477572
14983484347
14983491244
14983496493
14983502718
14983509127
14983513949
14983520541
14983525423
14983533907
14983539156
14983547213
14983552645
14983558443
14983563692
14983569002
14983574495
14983582308
14983587984
14983593905
14983599581
14983606783
14983610506
14983618380
14983624727
14983631380
14983637056
14983641878
14983649263
14983654268
14983660799
14983665804
14983674349
14983680147
14983685579
14983691255
14983698091
14983703890
14983709871
14983716036
14983721834
14983729341
14983733675
14983739107
14983746187
14983751192
14983757234
14983763338
14983768098
14983775240
14983780183
14983787447
14983793306
14983798921
14983806306
14983812349
14983817903
14983823274
14983829927
14983836275
14983843843
14983850679
14983858674
14983864473
14983869844
14983875093
14983882539
14983888398
14983894563
14983901887
14983907319
14983915010
14983919831
14983927278
14983931916
14983939241
14983943757
14983951142
14983956147
14983963044
14983969331
14983975984
14983982148
14983989289
14983996552
14984002412
14984008515
14984015412
14984020722
14984026460
14984032014
14984038606
14984044404
14984051301
14984056794
14984061555
14984067597
14984074311
14984080231
14984085847
14984093598
14984100983
14984105561
14984114350
14984119599
14984127289
14984133271
14984139130
14984144990
14984151093
14984156647
14984162812
14984168549
14984175568
14984181427
14984187165
14984192963
14984198395
14984205536
14984212067
14984217621
14984224396
14984228424
14984236603
14984243744
14984249115
14984255036
14984260834
14984267243
14984273041
14984279755
14984285431
14984290924
14984297943
14984303864
14984309540
14984315643
14984322235
14984329376
14984334931
14984341034
14984346039
14984352081
14984357452
14984364044
14984368256
14984375580
14984382843
14984388275
14984392975
14984399689
14984404510
14984409759
14984417023
14984424225
14984428680
14984435333
14984439789
14984446380
14984451874
14984457977
14984464081
14984469696
14984475799
14984480865
14984487152
14984492767
14984497833
14984505218
14984512298
14984516510
14984522979
14984527496
14984533905
14984538482
14984545318
14984550445
14984555816
14984561676
14984567047
14984572662
14984579315
14984584136
14984589691
14984595062
14984601715
14984606414
14984611724
14984618621
14984623565
14984628570
14984634368
14984641387
14984646941
14984651397
14984656158
14984663055
14984666839
14984673492
14984680938
14984686492
14984691802
14984696563
14984703643
14984709014
14984715179
14984720611
14984727691
14984733428
14984739104
14984744536
14984750640
14984756072
14984761931
14984767791
14984775420
14984779265
14984786345
14984791411
14984797454
14984803008
14984807280
14984813323
14984820464
14984827056
14984832061
14984839568
14984844573
14984851165
14984855925
14984864531
14984870452
14984875518
14984882659
14984888396
14984894072
14984900847
14984906890
14984913359
14984919035
14984924834
14984930205
14984934966
14984941740
14984947966
14984954436
14984960905
14984967802
14984972868
14984980193
14984986052
14984992155
14984997954
14985004546
14985010283
14985016020
14985021452
14985028105
14985033476
14985039091
14985044768
14985050993
14985056853
14985062651
14985068449
14985075773
14985079558
14985087919
14985093596
14985100309
14985113005
14985117643
14985126249
14985134428
14985140287
14985145719
14985151579
14985157316
14985165434
14985171354
14985176725
14985182768
14985190580
14985194486
14985202787
14985208708
14985214018
14985220609
14985225736
14985234708
14985240385
14985245817
14985251188
14985258268
14985264127
14985270231
14985276212
14985283659
14985289274
14985294706
14985300077
14985306730
14985312162
14985317106
14985322721
14985329191
14985335660
14985341825
