15159349558
15159362009
15159370737
15159379893
15159389170
15159396067
15159404062
15159411081
15159419932
15159428293
15159436350
15159443918
15159452402
15159461802
15159469309
15159478159
15159486643
15159494944
15159503672
15159513315
15159519235
15159530405
15159538889
15159548288
15159555551
15159564829
15159576975
15159584909
15159595163
15159602731
15159612436
15159624155
15159630319
15159642404
15159649972
15159659738
15159668344
15159677560
15159687814
15159697458
15159705575
15159715402
15159724740
15159735482
15159745004
15159753183
15159763559
15159771432
15159780709
15159789498
15159797250
15159808236
15159817452
15159825692
15159835153
15159845101
15159857247
15159866769
15159875924
15159885445
15159895516
15159904366
15159913644
15159924081
15159933480
15159943978
15159952096
15159963021
15159972359
15159981392
15159990853
15160000069
15160011422
15160019356
15160026925
15160034127
15160040841
15160046212
15160054818
15160060067
15160069039
15160077523
15160084359
15160090828
15160097237
15160104805
15160111275
15160119148
15160125923
15160132332
15160140816
15160147835
15160155892
15160161995
15160170052
15160176643
15160184395
15160191109
15160198677
15160203316
15160210701
15160217110
15160224861
15160234383
15160241157
15160247566
15160255684
15160262215
15160269356
15160276131
15160282905
15160290657
15160297371
15160305671
15160311165
15160319343
15160324775
15160332893
15160340706
15160347786
15160355659
15160364387
15160370735
15160379707
15160385383
15160392951
15160399604
15160404975
15160411994
15160419746
15160426460
15160431831
15160440193
15160447761
15160455512
15160460822
15160468635
15160474433
15160482124
15160489753
15160496711
15160504279
15160512458
15160519294
15160528388
15160534858
15160542365
15160550849
15160557624
15160565253
15160573493
15160579230
15160586860
15160593940
15160600409
15160607245
15160615546
15160621467
15160630011
15160638007
15160644111
15160652472
15160660163
15160666083
15160674994
15160682563
15160690436
15160697394
15160703253
15160712836
15160719428
15160728827
15160734259
15160742560
15160748847
15160757636
15160764349
15160777716
15160782477
15160793829
15160804449
15160813116
15160821051
15160829169
15160835211
15160845343
15160853338
15160861639
15160868109
15160876166
15160884161
15160893072
15160900885
15160909308
15160917852
15160926153
15160934088
15160944403
15160951666
15160960455
15160969549
15160977545
15160982122
15160992987
15160999761
15161009771
15161016729
15161027105
15161034185
15161040716
15161050604
15161057440
15161066656
15161072881
15161082830
15161090459
15161098089
15161105962
15161115118
15161122686
15161130559
15161138494
15161148443
15161156316
15161164434
15161171819
15161181646
15161189031
15161197332
15161205755
15161215581
15161224248
15161232793
15161241033
15161248174
15161257817
15161266729
15161273503
15161282231
15161289434
15161299321
15161306340
15161313970
15161324529
15161330815
15161340947
15161349187
15161357060
15161364629
15161376042
15161381474
15161390508
15161399785
15161408635
15161416447
15161426884
15161434025
15161442692
15161450017
15161460087
15161466862
15161474248
15161485051
15161492009
15161501774
15161508305
15161518620
15161526738
15161535038
15161540959
15161552128
15161560673
15161568974
15161577458
15161586003
15161594242
15161603642
15161611881
15161621525
15161630436
15161638310
15161645329
15161655094
15161662785
15161671391
15161681217
15161686832
15161697269
15161705997
15161716495
15161722721
15161734379
15161742557
15161751102
15161759220
15161768009
15161775455
15161783695
15161791446
15161799381
15161808292
15161814884
15161822941
15161829776
15161838138
15161844608
15161852848
15161860782
15161868778
15161877079
15161884403
15161893436
15161902774
15161910526
15161918949
15161926395
15161935855
15161943973
15161952945
15161961490
15161967288
15161977481
15161985049
15161994998
15162002139
15162010745
15162019473
15162024661
15162033816
15162041751
15162048099
15162055850
15162064334
15162066226
15162078372
15162087954
15162095157
15162101993
15162109927
15162119326
15162127505
15162135257
15162139590
15162151797
15162159610
15162167300
15162173648
15162182681
15162186526
15162197390
15162201235
15162212832
15162220950
15162227542
15162233767
15162242983
15162249026
15162259036
15162267092
15162274477
15162281680
15162287356
15162294314
15162299319
15162307070
15162312319
15162319094
15162325381
15162331118
15162336001
15162343508
15162349245
15162354372
15162360476
15162368288
15162374148
15162381289
15162386965
15162392824
15162400149
15162405459
15162413088
15162418398
15162425722
15162432619
15162438051
15162444033
15162451052
15162456484
15162463747
15162470583
15162475710
15162482363
15162489260
15162495180
15162500917
15162507143
15162513246
15162519472
15162525331
15162531923
15162538942
15162545595
15162551332
15162558229
15162565248
15162571657
15162577760
15162584230
15162587221
15162597231
15162604433
15162610170
15162615907
15162621828
15162628358
15162634096
15162640565
15162645936
15162651979
15162659547
15162665712
15162671693
15162678224
15162684327
15162691224
15162696657
15162702821
15162709474
15162714296
15162720887
15162725648
15162732667
15162739015
15162745790
15162752320
15162757692
15162764527
15162771363
15162777284
15162782411
15162789369
15162794251
15162801087
15162807984
15162814454
15162819947
15162826417
15162832520
15162838014
15162843263
15162849000
15162854249
15162859559
15162864198
15162869630
15162875672
15162881165
15162885621
15162893311
15162899232
15162904786
15162909852
15162917298
15162921693
15162929200
15162933655
15162940613
15162946168
15162951478
15162956055
15162962464
15162967957
15162973145
15162978638
15162985413
15162990418
15162996766
15163000367
15163006775
15163011902
15163018189
15163023987
15163028199
15163034424
15163040955
15163045349
15163051819
15163057495
15163062134
15163069641
15163074829
15163080262
15163085755
15163091370
15163096070
15163101563
15163107483
15163113465
15163118225
15163125549
15163130432
15163136109
15163142395
15163147644
15163153504
15163161743
15163167908
15163173950
15163180359
15163186401
15163192444
15163199097
15163205688
15163210876
15163216675
15163224243
15163228454
15163234802
15163240600
15163244995
15163252258
15163257446
15163263916
15163270508
15163276611
15163282287
15163288330
15163294311
15163301208
15163307495
15163313965
15163319824
15163326294
15163331482
15163337097
15163343017
15163350830
15163355651
15163361633
15163368103
15163373779
15163378845
15163386169
15163392028
15163398193
15163404846
15163411987
15163418090
15163424011
15163430602
15163435973
15163441528
15163448242
15163453368
15163459899
15163464843
15163471252
15163476501
15163482299
15163486449
15163493102
15163499389
15163503905
15163509215
15163515746
15163522094
15163526610
15163532348
15163538878
15163546264
15163550902
15163558349
15163563415
15163570128
15163575622
15163582702
15163587829
15163594542
15163601806
15163608275
15163614745
15163621520
15163627440
15163632323
15163639281
15163644103
15163651549
15163657775
15163664611
15163670958
15163677184
15163683043
15163687682
15163695983
15163701293
15163707030
15163713927
15163719237
15163725218
15163732237
15163737669
15163743468
15163751280
15163757262
15163763426
15163769041
15163775023
15163782164
15163787779
15163792540
15163800230
15163807432
15163813353
15163819395
15163826109
15163832213
15163836912
15163843077
15163848143
15163858214
15163863402
15163870726
15163876341
15163882933
15163889647
15163896055
15163903196
15163908567
15163916014
15163922300
15163929808
15163935057
15163942808
15163948118
15163953672
15163960020
15163966673
15163973020
15163978758
15163983213
15163992491
15163998838
15164003843
15164010435
15164015684
15164023252
15164028135
15164035398
15164042417
15164048216
15164052854
15164060362
15164067136
15164072019
15164077268
15164083982
15164091550
15164097410
15164103086
15164109678
15164115171
15164122251
15164129087
15164133237
15164139951
15164145688
15164152097
15164158323
15164165891
15164171689
15164177244
15164184018
15164189573
15164196042
15164202817
15164208921
15164215574
15164222593
15164228086
15164232541
15164239621
15164245603
15164252011
15164258847
15164265195
15164270810
15164275266
15164282224
15164287778
15164295224
15164300412
15164308957
15164314877
15164321225
15164326718
15164332578
15164339536
15164345334
15164351682
15164358518
15164363461
15164370297
15164376706
15164381528
15164387875
15164394833
15164402158
15164407529
15164413388
15164420407
15164424863
15164431821
15164437375
15164444455
15164451230
15164457394
15164463437
15164469967
15164475339
15164481930
15164487362
15164493405
15164499875
15164504696
15164511532
15164518124
15164524655
15164530941
15164536435
15164543148
15164548458
15164555538
15164560849
15164567318
15164574398
15164578915
15164586849
15164592465
15164598629
15164603939
15164610836
15164616573
15164623837
15164629147
15164636105
15164641964
15164648373
15164654171
15164659847
15164667477
15164671810
15164678463
15164683956
15164690731
15164697262
15164702999
15164709530
15164714291
15164722347
15164728451
15164733883
15164740536
15164745663
15164752682
15164759762
15164766903
15164773678
15164778927
15164784054
15164791073
15164795894
15164803402
15164810299
15164816646
15164822322
15164828914
15164834591
15164841060
15164847469
15164854610
15164861019
15164865840
15164872310
15164877620
15164884395
15164891658
15164897396
15164903499
15164909480
15164914974
15164921382
15164927669
15164932491
15164941158
15164946773
15164951350
15164959773
15164966060
15164971370
15164974483
15164983150
15164989497
15164995784
15165001765
15165007686
15165014583
15165020564
15165027583
15165033626
15165038569
15165045222
15165051570
15165056087
15165062495
15165069697
15165076289
15165081965
15165085994
15165094783
15165100886
15165106074
15165112239
15165119685
15165126216
15165132746
15165139521
15165144465
15165151545
15165156855
15165165705
15165171321
15165176936
15165183894
15165189631
15165196101
15165201960
15165208918
15165214778
15165222773
15165228388
15165235163
15165241023
15165247553
15165254328
15165260615
15165266596
15165273554
15165280085
15165284968
15165292414
15165296992
15165305170
15165311396
15165316828
15165322809
15165329706
15165335993
15165342890
15165348871
15165354853
15165361750
15165366511
15165373346
15165378901
15165385737
15165393000
15165398981
15165404535
15165410395
15165417292
15165422602
15165430902
15165436579
15165442926
15165449457
15165455255
15165462091
15165468744
15165475763
15165481500
15165485895
15165494379
15165499689
15165506586
15165512079
15165519098
15165525263
15165531427
15165538385
15165543146
15165550165
15165558771
15165563287
15165570856
15165575800
15165583185
15165588068
15165594904
15165601129
15165607904
15165613153
15165619501
15165625055
15165631769
15165637445
15165643609
15165651056
15165655877
15165662835
15165668695
15165675042
15165680963
15165687249
15165693353
15165699762
15165705621
15165711724
15165717340
15165723016
15165729791
15165735467
15165742120
15165749688
15165755853
15165761529
15165768243
15165773614
15165779595
15165787042
15165792474
15165798821
15165804681
15165811639
15165817071
15165822564
15165829888
15165834405
15165841363
15165848321
15165854913
15165859734
15165866326
15165874078
15165879266
15165886101
15165892449
15165897515
15165902642
15165909783
15165916558
15165922845
15165928704
15165935662
15165941155
15165947503
15165953911
15165961480
15165968621
15165974236
15165980523
15165985894
15165992119
15165998589
15166004448
15166010979
15166018853
15166023735
15166030632
15166036553
15166042900
15166048333
15166056877
15166062554
15166067742
15166074883
15166080315
15166086663
15166094170
15166100212
15166105889
15166111870
15166118706
15166124992
15166129997
15166137261
15166143974
15166149773
15166155937
15166161613
15166167961
15166174248
15166179619
15166187492
15166193352
15166199089
15166206352
15166211540
15166217766
15166223625
15166230217
15166237846
15166244133
15166249443
15166256340
15166261284
15166269401
15166274101
15166289299
15166294059
15166301323
15166307975
15166314323
15166320427
15166325859
15166333122
15166337883
15166345024
15166351371
15166357292
15166363700
15166369438
15166375968
15166381767
15166386650
15166393730
15166399406
15166407035
15166412467
15166417777
15166423209
15166430290
15166436637
15166441947
15166447868
15166454948
15166459647
15166466483
15166471671
15166478568
15166483634
15166490714
15166497977
15166504020
15166510062
15166514640
15166520988
15166526908
15166531547
15166538199
15166544608
15166551078
15166556754
15166563163
15166568961
15166573600
15166579947
15166585807
15166591422
15166597281
15166606620
15166613028
15166618766
15166625296
15166631034
15166635978
15166643241
15166647879
15166654959
15166659537
15166666617
15166672782
15166678092
15166685294
15166690909
15166696829
15166703360
15166708548
15166715140
15166720572
15166727164
15166732840
15166739554
15166744070
15166750723
15166756216
15166762869
15166769095
15166775198
15166781607
15166788138
15166793997
15166798514
15166805350
15166810049
15166818411
15166823050
15166831778
15166837149
15166844595
15166850149
15166856070
15166862661
15166868643
15166874563
15166880850
15166888296
15166893972
15166899221
15166906912
15166913321
15166918631
15166924368
15166931814
15166937002
15166943594
15166948660
15166955191
15166960379
15166967092
15166973074
15166979971
15166985098
15166991628
15166996694
15167003103
15167009268
15167015310
15167019827
15167026296
15167032400
15167038259
15167043935
15167049856
15167055654
15167061636
15167067495
15167074270
15167080007
15167085989
15167091726
15167096303
15167102712
15167108755
15167116262
15167120962
15167128591
15167134267
15167140493
15167145376
15167153066
15167157888
15167166738
15167171315
15167178335
15167182912
15167189931
15167194509
15167201711
15167206350
15167213674
15167220388
15167227040
15167234670
15167239370
15167247426
15167253957
15167261525
15167266103
15167273061
15167279531
15167285329
15167292104
15167297841
15167303517
15167309377
15167314748
15167321889
15167324880
15167333547
15167339101
15167344899
15167351552
15167358754
15167364125
15167370900
15167376942
15167382436
15167388722
15167395863
15167402943
15167409474
15167415517
15167421803
15167427479
15167433522
15167439381
15167445607
15167453297
15167460072
15167466481
15167473439
15167479542
15167485218
15167491139
15167497914
15167505299
15167509755
15167517628
15167523915
15167530873
15167535694
15167542286
15167547657
15167554859
15167561939
15167568592
15167574879
15167579945
15167585865
15167593067
15167600880
15167605335
15167612110
15167618763
15167624439
15167629566
15167636646
15167642506
15167650013
15167657093
15167663074
15167668568
15167675098
15167681019
15167686024
15167694263
15167700306
15167706776
15167711231
15167717701
15167724354
15167731129
15167736866
15167742054
15167749622
15167755237
15167762134
15167766468
15167772815
15167780262
15167786731
15167792408
15167797535
15167804371
15167809375
15167816455
15167822254
15167829151
15167835804
15167840320
15167848865
15167853931
15167859729
15167865955
15167873340
15167879016
15167885913
15167892200
15167896411
15167903491
15167908618
15167916248
15167922412
15167927722
15167934070
15167940356
15167946643
15167952869
15167959094
15167965259
15167970874
15167976733
15167983386
15167988818
15167995044
15168000354
15168008044
15168014270
15168018725
15168025989
15168032519
15168038012
15168045642
15168052173
15168057177
15168063525
15168070300
15168076342
15168081775
15168086535
15168094897
15168101428
15168106311
15168111926
15168118823
15168124926
15168130908
15168136706
15168141345
15168150012
15168155139
15168161791
15168167163
15168173632
15168179675
15168186389
15168192858
15168199023
15168204638
15168209948
15168216845
15168222826
15168229723
15168235156
15168241564
15168247240
15168252978
15168259020
15168265124
15168272875
15168278979
15168284533
15168291003
15168295946
15168301562
15168308398
15168314806
15168322314
15168328295
15168333361
15168340197
15168346422
15168351366
15168358202
15168363207
15168370409
15168377062
15168383165
15168389086
15168394518
15168401659
15168407152
15168412950
15168419237
15168425585
15168431749
15168437853
15168444445
15168450365
15168457079
15168463671
15168469774
15168474901
15168481676
15168486070
15168494615
15168500963
15168506578
15168511766
15168519212
15168525316
15168530443
15168536729
15168543687
15168549974
15168555833
15168562608
15168567369
15168574388
15168580431
15168587816
15168593431
15168600389
15168605882
15168611741
15168618333
15168625291
15168630906
15168635911
15168642686
15168649156
15168654344
15168660203
15168666612
15168673875
15168681382
15168686692
15168692308
15168699449
15168704026
15168710740
15168715745
15168722276
15168729112
15168734971
15168741014
15168747727
15168753099
15168758042
15168765611
15168771348
15168778245
15168784898
15168789659
15168795823
15168802171
15168808457
15168814256
15168821031
15168826402
15168833054
15168838731
15168845200
15168851182
15168858628
15168864365
15168870164
15168876939
15168882371
15168889085
15168894334
15168901536
15168908127
15168914353
15168920334
15168926865
15168932358
15168937607
15168945115
15168950791
15168957016
15168963974
15168968247
15168974900
15168981003
15168988205
15168993271
15168999863
15169005478
15169012192
15169018845
15169024826
15169031235
15169038132
15169043503
15169048874
15169054611
15169061692
15169066635
15169072678
15169079758
15169087265
15169092819
15169098313
15169105087
15169110581
15169115036
15169122299
15169127670
15169134384
15169140366
15169146957
15169152939
15169159348
15169167038
15169173019
15169178085
15169185287
15169190292
15169195724
15169202377
15169209823
15169216720
15169222091
15169227218
15169234298
15169239609
15169246933
15169252060
15169258957
15169265365
15169272262
15169278610
15169284286
15169290207
15169295578
15169304306
15169309982
15169316391
15169322799
15169329025
15169334274
15169340866
15169348495
15169353378
15169359970
15169364913
15169371688
15169378402
15169382675
15169391158
15169396774
15169403915
15169408126
15169415511
15169420760
15169427047
15169433089
15169439742
15169447128
15169450423
15169458785
15169464278
15169470138
15169476974
15169483749
15169489181
15169495894
15169502181
15169506698
15169514632
15169519942
15169527205
15169533797
15169538619
15169543990
15169550277
15169557113
15169561812
15169569381
15169574019
15169582442
15169587142
15169593795
15169599776
15169604964
15169611617
15169618331
15169624556
15169630294
15169637068
15169642928
15169648543
15169653914
15169661360
15169667037
15169673201
15169678023
15169684249
15169690718
15169697493
15169703475
15169708663
15169716048
15169722090
15169728926
15169734541
15169740706
15169747176
15169753584
15169759383
15169765181
15169772444
15169777632
15169784346
15169790144
15169796919
15169801619
15169808027
15169814131
15169820234
15169825667
15169831831
15169840315
15169846174
15169852522
15169857466
15169863813
15169869551
15169875959
15169883528
15169888166
15169895185
15169899946
15169907942
15169913069
15169919416
15169925825
15169932844
15169938642
15169945234
15169950483
15169955793
15169963362
15169968061
15169974714
15169980512
15169987226
15169992964
15169999433
15170005171
15170012678
15170020063
15170025190
15170031416
15170037458
15170043501
15170049421
15170055280
15170063093
15170067731
15170074506
15170081403
15170086530
15170092023
15170098310
15170105451
15170112226
15170117963
15170123334
15170129987
15170135908
15170142621
15170149152
15170155744
15170161176
15170165693
15170172773
15170179853
15170185468
15170192853
15170198224
15170203717
15170210797
15170215863
15170222821
15170229474
15170233869
15170242902
15170248090
15170254743
15170260358
15170266889
15170272016
15170278546
15170285687
15170293012
15170298261
15170303388
15170310223
15170316510
15170323102
15170328107
15170334699
15170341412
15170346783
15170354108
15170358380
15170366437
15170372357
15170378949
15170384320
15170391278
15170397809
15170402264
15170409161
15170414593
15170422101
15170428387
15170434491
15170439251
15170445599
15170451947
15170457867
15170466595
15170471295
15170477948
15170483624
15170490094
15170496014
15170502118
15170507855
15170514202
15170521160
15170526959
15170532330
15170537579
15170544476
15170551190
15170558392
15170563091
15170569500
15170576641
15170582562
15170587872
15170593304
15170601238
15170606731
15170613201
15170619610
15170624004
15170631573
15170636333
15170644817
15170650127
15170656780
15170661236
15170668011
15170674114
15170679851
15170687420
15170692852
15170699688
15170704998
15170711895
15170716594
15170722881
15170730083
15170736370
15170741924
15170746380
15170753338
15170759746
15170765178
15170772808
15170779277
15170783428
15170790447
15170796672
15170802959
15170808330
15170813945
15170821453
15170827007
15170833232
15170838420
15170845073
15170850810
15170856609
15170864421
15170870220
15170877361
15170881694
15170889324
15170893962
15170900676
15170906108
15170913615
15170920940
15170926860
15170932475
15170939006
15170944438
15170952312
15170959575
15170965434
15170971660
15170977458
15170984050
15170989299
15170994121
15171001933
15171007792
15171014567
15171019938
15171026225
15171032268
15171039348
15171045268
15171051249
15171058329
15171064067
15171070353
15171075053
15171081462
15171088664
15171094645
15171101786
15171106974
15171113749
15171118632
15171125651
15171132426
15171137919
15171143595
15171149882
15171157084
15171161662
15171168986
15171174357
15171181620
15171187602
15171194560
15171198649
15171205119
15171211283
15171217692
15171223673
15171229533
15171236124
15171241984
15171247477
15171253641
15171259867
15171267130
15171273966
15171279459
15171284891
15171292399
15171296610
15171303324
15171309061
15171315897
15171322855
15171328959
15171334330
15171340677
15171346781
15171353739
15171361063
15171366617
15171373209
15171379496
15171383890
15171390726
15171395365
15171404276
15171409159
15171416422
15171422464
15171428873
15171434732
15171441812
15171447794
15171452127
15171460001
15171464395
15171471720
15171477518
15171483865
15171489359
15171497232
15171502969
15171507913
15171514139
15171519876
15171526956
15171531961
15171539407
15171544473
15171550943
15171558755
15171563089
15171569437
15171575418
15171583047
15171588113
15171595254
15171599283
15171605691
15171611490
15171618387
15171624612
15171630899
15171636636
15171641824
15171648538
15171653787
15171660745
15171666238
15171672952
15171678323
15171684915
15171692361
15171697610
15171703836
15171709573
15171715554
15171722146
15171728921
15171733316
15171739724
15171744668
15171751748
15171760964
15171764016
15171772927
15171779214
15171784097
15171789773
15171795571
15171800759
15171807473
15171813882
15171820168
15171827187
15171831582
15171839028
15171845986
15171851174
15171858132
15171864175
15171868325
15171874673
15171881142
15171885781
15171894570
15171899636
15171906350
15171911721
15171918130
15171922890
15171930092
15171937661
15171942116
15171949990
15171954873
15171962136
15171966835
15171973854
15171979958
15171986672
15171991860
15171998146
15172004311
15172011574
15172017678
15172022377
15172029763
15172036476
15172041847
15172048744
15172054604
15172061135
15172065651
15172075966
15172080971
15172087746
15172093056
15172099464
15172104469
15172110878
15172117226
15172123451
15172129066
15172135780
15172141884
15172148537
15172153725
15172159950
15172167213
15172171913
15172178139
15172185097
15172189735
15172196510
15172202736
15172210609
15172217018
15172222145
15172228309
15172234535
15172240394
15172244789
15172252784
15172259742
15172266029
15172271217
15172279518
15172285133
15172292274
15172298255
15172304481
15172311073
15172318153
15172324073
15172330421
15172336158
15172342445
15172348182
15172353431
15172360511
15172366859
15172372169
15172379066
15172384315
15172391334
15172397010
15172403541
15172408668
15172414710
15172419654
15172425269
15172431434
15172436378
15172442603
15172449317
15172455115
15172460975
15172467261
15172472632
15172477027
15172484656
15172490882
15172496009
15172501197
15172507789
15172513282
15172518470
15172524634
15172529578
15172534888
15172541663
15172547583
15172554114
15172559485
15172564734
15172570411
15172580054
15172585242
15172590735
15172595252
15172601844
15172606787
15172613318
15172620032
15172626990
15172632605
15172636817
15172644751
15172649634
15172654883
15172660193
15172667334
15172673316
15172678259
15172684485
15172689185
15172695410
15172700415
15172708289
15172714209
15172719763
15172725317
15172731604
15172735754
15172742041
15172747595
15172753393
15172758032
15172765417
15172772070
15172777380
15172782385
15172789038
15172795813
15172800879
15172807104
15172811926
15172816992
15172823095
15172827734
15172833838
15172839331
15172845678
15172851416
15172857031
15172863073
15172868628
15172873877
15172880041
15172886633
15172892248
15172898962
15172904638
15172909887
15172915197
15172920507
15172925085
15172932409
15172937414
15172943945
15172950048
15172954870
15172961035
15172966223
15172971777
15172980505
15172985754
15172991308
15172997045
15173002905
15173009252
15173015478
15173021886
15173028844
15173034277
15173039403
15173044530
15173050817
15173056066
15173061376
15173067480
15173074865
15173080114
15173086339
15173092260
15173097692
15173102575
15173108251
15173115209
15173121801
15173127233
15173132726
15173139196
15173144628
15173148961
15173157384
15173162511
15173167638
15173173375
15173178563
15173183629
15173190343
15173194921
15173202428
15173207738
15173213780
15173219029
15173223790
15173228551
15173235021
15173240270
15173248143
15173253942
15173260045
15173265599
15173271153
15173276524
15173280919
15173289281
15173292516
15173299901
15173305699
15173312596
15173317235
15173322789
15173327184
15173336095
15173342015
15173346837
15173353001
15173359105
15173362889
15173369542
15173375157
15173382115
15173387425
15173393529
15173399144
15173404759
15173410191
15173415806
15173422215
15173428563
15173434361
15173439000
15173446263
15173450840
15173457432
15173461827
15173470189
15173478062
15173483311
15173488682
15173494847
15173500828
15173504917
15173513951
15173519810
15173525425
15173531285
15173536656
15173541722
15173548435
15173553379
15173562962
15173570469
15173577793
15173586277
15173591038
15173597813
15173602085
15173611179
15173617405
15173622166
15173628513
15173633335
15173639378
15173645542
15173649631
15173656040
15173662937
15173668980
15173675022
15173681370
15173687046
15173691379
15173699314
15173705417
15173711033
15173717258
15173722812
15173728550
15173733982
15173738804
15173746433
15173753391
15173758701
15173764499
15173771213
15173777073
15173783786
15173787754
15173794284
15173801487
15173806125
15173813694
15173818271
15173824985
15173829379
15173838413
15173844211
15173849948
15173855380
15173862644
15173867954
15173874851
15173880710
15173887485
15173892795
15173899326
15173904086
15173910373
15173915500
15173921603
15173928134
15173934665
15173940402
15173944919
15173951938
15173956393
15173964389
15173969760
15173977511
15173982883
15173988193
15173994723
15174000522
15174007174
15174012301
15174018649
15174025302
15174030429
15174036776
15174042086
15174048556
15174055331
15174060092
15174065890
15174072421
15174080172
15174084628
15174091342
15174097201
15174102755
15174108493
15174114230
15174120089
15174125399
15174130648
15174137423
15174143221
15174148226
15174155490
15174162386
15174166598
15174172701
15174177706
15174183749
15174188998
15174195712
15174200900
15174207858
15174214205
15174219698
15174224947
15174230502
15174237154
15174241732
15174249972
15174253084
15174262118
15174267916
15174273836
15174280306
15174285250
15174292391
15174299227
15174303682
15174309847
15174316256
15174320589
15174327059
15174332674
15174339449
15174346041
15174351351
15174357271
15174362459
15174367952
15174373323
15174377901
15174385164
15174390413
15174397066
15174403170
15174408052
15174414034
15174418978
15174425020
15174431978
15174437532
15174444002
15174449434
15174454988
15174460726
15174466158
15174472261
15174478853
15174484529
15174490694
15174496004
15174501863
15174507234
15174512910
15174520601
15174526460
15174532503
15174537202
15174543245
15174549470
15174555086
15174559663
15174566316
15174573030
15174580232
15174586030
15174591951
15174598176
15174607087
15174612764
15174618867
15174626619
15174631501
15174638215
15174643464
15174650239
15174658052
15174663057
15174669587
15174674409
15174682527
15174687654
15174694917
15174701142
15174708222
15174713777
15174720674
15174726289
15174732270
15174738252
15174743012
15174751069
15174757478
15174763093
15174769013
15174775056
15174781892
15174787324
15174793000
15174800141
15174805146
15174811921
15174817902
15174824311
15174831574
15174837067
15174844636
15174850068
15174857026
15174861970
15174869172
15174876435
15174881135
15174888276
15174893525
15174898713
15174905060
15174912324
15174919037
15174924042
15174929841
15174936676
15174944123
15174949006
15174955475
15174962067
15174968598
15174975800
15174982148
15174988312
15174994660
15175000824
15175005402
15175012970
15175018036
15175027436
15175031891
15175038361
15175044892
15175050751
15175056244
15175062592
15175069672
15175075409
15175082245
15175088959
15175094086
15175100800
15175106598
15175113251
15175120148
15175126007
15175131500
15175137360
15175144379
15175149506
15175154999
15175161835
15175169159
15175173492
15175181854
15175187469
15175192901
15175199676
15175206695
15175211273
15175217743
15175224762
15175230804
15175236725
15175242889
15175248565
15175254364
15175261627
15175267059
15175273346
15175278411
15175285247
15175292022
15175298980
15175304412
15175310943
15175316680
15175322967
15175329254
15175335052
15175342498
15175348174
15175354156
15175359710
15175366058
15175373199
15175377715
15175385650
15175391387
15175397918
15175403045
15175410308
15175416045
15175422027
15175429717
15175434905
15175441619
15175447417
15175454253
15175459258
15175466155
15175472259
15175479522
15175485198
15175490264
15175497161
15175501616
15175508513
15175516448
15175520903
15175527739
15175534331
15175539824
15175544280
15175552581
15175557586
15175564788
15175570769
15175577788
15175583586
15175589385
15175596038
15175601042
15175609648
15175615203
15175621611
15175627226
15175633635
15175640166
15175644377
15175651274
15175658110
15175663481
15175668669
15175675688
15175681242
15175687590
15175694853
15175699492
15175707793
15175713347
15175718779
15175724638
15175731535
15175737883
15175744231
15175750517
15175756438
15175762053
15175767851
15175773466
15175780363
15175788908
15175794401
15175800749
15175806608
15175812895
15175819426
15175823637
15175831938
15175838041
15175843840
15175849150
15175855986
15175862028
15175868620
15175874418
15175881193
15175886808
15175893705
15175899565
15175905363
15175912260
15175918669
15175925321
15175931852
15175938932
15175944242
15175949980
15175955717
15175961149
15175968778
15175974210
15175980558
15175987272
15175993009
15175999052
15176003446
15176011930
15176018095
15176023832
15176030851
15176037260
15176042997
15176049528
15176056303
15176060697
15176069120
15176074064
15176080900
15176086454
15176092862
15176097745
15176104642
15176111295
15176117521
15176122892
15176129606
15176135343
15176140775
15176148221
15176153531
15176159696
15176165433
15176171720
15176178861
15176183377
15176190885
15176196866
15176204251
15176209378
15176215543
15176222013
15176226834
15176235806
15176241666
15176247281
15176253629
15176259427
15176264798
15176271512
15176276944
15176284207
15176290677
15176297391
15176302762
15176308255
15176315396
15176320523
15176328824
15176333279
15176340115
15176346402
15176352566
15176359097
15176363431
15176370633
15176377713
15176383206
15176388699
15176395474
15176401516
15176406643
15176412869
15176421170
15176426907
15176431485
15176439297
15176444668
15176450406
15176457058
15176463650
15176470791
15176475735
15176482205
15176489346
15176494778
15176500149
15176507595
15176513394
15176519863
15176523770
15176530728
15176538906
15176543301
15176551235
15176558254
15176563381
15176569790
15176576077
15176580898
15176587246
15176594021
15176600246
15176607388
15176611721
15176618496
15176625271
15176630825
15176636562
15176643459
15176651333
15176657558
15176662929
15176668789
15176674404
15176679409
15176687038
15176693813
15176699611
15176706325
15176711025
15176717189
15176722927
15176731167
15176738124
15176742946
15176748806
15176755092
15176760463
15176766872
15176774257
15176781215
15176786769
15176791835
15176799098
15176803676
15176810817
15176817165
15176824062
15176829677
15176836574
15176842311
15176847316
15176854274
15176858730
15176866725
15176872524
15176879054
15176884731
15176890468
15176897121
15176903407
15176910731
15176916713
15176922206
15176928859
15176934108
15176939418
15176946437
15176954188
15176959621
15176967189
15176972865
15176977687
15176983607
15176989955
15176995204
15177001918
15177008143
15177014369
15177019984
15177026820
15177032435
15177039210
15177046595
15177052027
15177058924
15177064845
15177072047
15177077662
15177084071
15177090357
15177095790
15177102748
15177109645
15177115016
15177120204
15177126490
15177133143
15177140162
15177145594
15177151026
15177158167
15177163050
15177169642
15177175868
15177182398
15177187830
15177193568
15177199610
15177205592
15177212489
15177217005
15177224512
15177230128
15177236536
15177242518
15177248682
15177254786
15177261622
15177267603
15177274256
15177279444
15177285853
15177292444
15177297571
15177303858
15177310267
15177316431
15177322352
15177329554
15177334925
15177340357
15177347315
15177353357
15177360010
15177365076
15177371363
15177377344
15177384363
15177390406
15177394983
15177402246
15177408838
15177414026
15177421167
15177426966
15177433008
15177437830
15177446558
15177451929
15177459314
15177464746
15177471155
15177475610
15177481958
15177488794
15177495630
15177501428
15177507104
15177512537
15177518823
15177525842
15177530542
15177538415
15177543848
15177550256
15177557458
15177561731
15177568506
15177574487
15177582666
15177587854
15177594690
15177601037
15177608728
15177614343
15177620324
15177627404
15177632653
15177640161
15177646630
15177652002
15177658044
15177664697
15177671777
15177678186
15177684045
15177690332
15177695886
15177700952
15177708276
15177713891
15177720422
15177727380
15177731713
15177738427
15177745263
15177751244
15177756738
15177764062
15177768762
15177775658
15177780969
15177787560
15177793176
15177799523
15177807458
15177813195
15177819054
15177825951
15177831078
15177837548
15177844567
15177850854
15177855553
15177863793
15177868249
15177875634
15177881859
15177887414
15177895165
15177902062
15177910119
15177914513
15177922570
15177928002
15177935143
15177941002
15177948876
15177954979
15177961144
15177967369
15177974327
15177979882
15177984276
15177992516
15177998802
15178004601
15178010521
15178016136
15178023155
15178028893
15178034752
15178040978
15178046776
15178054039
15178058128
15178065331
15178070519
15178078270
15178084373
15178091454
15178096947
15178102318
15178107872
15178114586
15178120750
15178127342
15178132469
15178139305
15178146080
15178151756
15178157188
15178163780
15178169090
15178173424
15178181297
15178186729
15178192894
15178197715
15178204307
15178208702
15178215294
15178218162
15178226463
15178231773
15178238914
15178243248
15178250389
15178256309
15178261314
15178268699
15178274253
15178279869
15178285972
15178291587
15178297813
15178301902
15178308433
15178313682
15178320030
15178326682
15178332664
15178339073
15178343711
15178351280
15178357627
15178364280
15178369712
15178375388
15178380332
15178386436
15178392905
15178399131
15178405173
15178412070
15178418540
15178425254
15178431541
15178437949
15178443687
15178450034
15178456260
15178462852
15178468589
15178476462
15178481101
15178489158
15178493857
15178499228
15178504172
15178509787
15178514731
15178521445
15178526938
15178531882
15178536521
15178542319
15178548178
15178553916
15178559592
15178565573
15178571128
15178578574
15178583945
15178591269
15178596030
15178602622
15178608359
15178613791
15178619223
15178625693
15178630026
15178636496
15178641989
15178648886
15178653342
15178660483
15178664450
15178670920
15178676169
15178683615
15178691550
15178696616
15178705893
15178710532
15178717673
15178722739
15178729758
15178736349
15178743246
15178747641
15178754172
15178761007
15178767660
15178773214
15178779867
15178787680
15178793417
15178798544
15178804159
15178811239
15178817587
15178822653
15178830038
15178836386
15178843588
15178848288
15178855001
15178860495
15178866903
15178873617
15178880270
15178885824
15178892843
15178898519
15178904562
15178910665
15178917135
15178924520
15178930135
15178937093
15178942220
15178948019
15178954244
15178959127
15178967306
15178973714
15178978597
15178985860
15178990804
15178996481
15179002828
15179010152
15179017171
15179022665
15179028646
15179034200
15179041341
15179048116
15179053243
15179060140
15179066366
15179072774
15179078328
15179084554
15179090352
15179095968
15179103780
15179109212
15179115804
15179121297
15179128133
15179134114
15179140706
15179148519
15179153829
15179159261
15179165853
15179172567
15179177205
15179183675
15179192342
15179197713
15179204854
15179210042
15179217061
15179222310
15179228780
15179234944
15179241841
15179248189
15179254842
15179260518
15179266499
15179272176
15179277119
15179285542
15179292012
15179297261
15179302998
15179309529
15179316182
15179322896
15179328755
15179334004
15179341450
15179346394
15179353230
15179358174
15179366292
15179372822
15179379353
15179385273
15179391072
15179396748
15179403279
15179409687
15179415608
15179421040
15179427082
15179433491
15179439595
15179446247
15179452351
15179458577
15179466023
15179471516
15179478047
15179482380
15179488850
15179495014
15179500691
15179508625
15179513752
15179520588
15179525654
15179532612
15179538349
15179544697
15179550007
15179556660
15179564045
15179568440
15179576252
15179580708
15179588276
15179593342
15179601093
15179606769
15179613300
15179619404
15179624348
15179632282
15179637226
15179644672
15179650471
15179655903
15179661274
15179668354
15179673664
15179680622
15179689533
15179696186
15179701923
15179707294
15179714130
15179719013
15179725910
15179732318
15179737934
15179745807
15179751728
15179757831
15179763935
15179769550
15179776203
15179782794
15179788043
15179795124
15179801044
15179807514
15179814411
15179819293
15179828204
15179833820
15179840350
15179845844
15179852496
15179856220
15179863300
15179871051
15179875690
15179882648
15179890155
15179895831
15179902545
15179907855
15179913776
15179920856
15179928607
15179932941
15179940082
15179946307
15179952289
15179959186
15179966876
15179972430
15179978106
15179983905
15179990313
15179996905
15180002704
15180010516
15180016436
15180021930
15180028704
15180034014
15180040667
15180047137
15180053241
15180059405
15180065142
15180071551
15180077166
15180082232
15180089800
15180096209
15180103106
15180109698
15180114153
15180122149
15180127703
15180133257
15180140032
15180145892
15180151507
15180158404
15180163165
15180169634
15180176836
15180183123
15180189043
15180195330
15180200762
15180206988
15180213457
15180219805
15180226336
15180232500
15180239031
15180244768
15180251421
15180257342
15180262346
15180269182
15180274309
15180282000
15180287188
15180293596
15180298906
15180305132
15180311296
15180317034
15180324602
15180329180
15180336077
15180342913
15180348345
15180354143
15180360674
15180368486
15180373369
15180380510
15180385088
15180392534
15180397844
15180405290
15180410723
15180417375
15180425188
15180429521
15180436113
15180441911
15180449541
15180454485
15180462419
15180468034
15180474931
15180481157
15180485612
15180493303
15180498674
15180507097
15180513139
15180517961
15180524736
15180529985
15180537614
15180543229
15180548967
15180556413
15180562456
15180568559
15180574113
15180581437
15180586931
15180592973
15180600297
15180607133
15180611589
15180618791
15180623796
15180631547
15180637040
15180644731
15180649491
15180655961
15180660844
15180667985
15180675431
15180679826
15180687333
15180693620
15180700517
15180705461
15180712907
15180718461
15180725114
15180730241
15180737321
15180743668
15180748307
15180756608
15180762528
15180768021
15180773759
15180781876
15180787797
15180794266
15180800736
15180805070
15180811295
15180817399
15180825333
15180829911
15180836869
15180841508
15180848832
15180853898
15180860367
15180866898
15180876297
15180881974
15180887589
15180894669
15180900467
15180906998
15180911820
15180920304
15180926285
15180932267
15180937882
15180942398
15180950333
15180957047
15180963883
15180968827
15180975479
15180982132
15180988419
15180993912
15180998245
15181006119
15181012467
15181019302
15181025589
15181030777
15181037003
15181043900
15181051102
15181055862
15181062698
15181068863
15181075638
15181081558
15181087967
15181095047
15181100479
15181105911
15181112686
15181118729
15181123733
15181130569
15181136917
15181143509
15181149002
15181155411
15181162369
15181168228
15181173660
15181178604
15181186783
15181192093
15181198990
15181205886
15181210769
15181216018
15181222488
15181230117
15181236770
15181242446
15181248306
15181255935
15181261184
15181268081
15181272842
15181279922
15181287002
15181291519
15181298293
15181304885
15181310378
15181316848
15181325027
15181330032
15181337112
15181342483
15181349014
15181355239
15181359328
15181368362
15181373916
15181379531
15181384658
15181392226
15181398025
15181405044
15181410781
15181416823
15181424331
15181429519
15181436416
15181442519
15181447890
15181454787
15181461501
15181467605
15181473769
15181480422
15181485061
15181492019
15181498122
15181506057
15181511428
15181518019
15181523085
15181530104
15181535292
15181541030
15181548659
15181554702
15181560317
15181566786
15181573622
15181579421
15181585585
15181591811
15181596144
15181604445
15181610060
15181616164
15181622267
15181627821
15181635695
15181641249
15181647047
15181653517
15181660292
15181667372
15181672926
15181678236
15181686354
15181693129
15181698012
15181703200
15181709852
15181716627
15181721632
15181729933
15181735304
15181741041
15181748244
15181753126
15181758803
15181765272
15181771010
15181777540
15181784865
15181789503
15181797010
15181802992
15181809095
15181815870
15181822462
15181827894
15181834303
15181840223
15181846022
15181852369
15181858900
15181864637
15181870191
15181877088
15181883619
15181890028
15181894666
15181901197
15181908949
15181913648
15181921583
15181927320
15181932996
15181939466
15181945142
15181951368
15181958021
15181965162
15181969801
15181976698
15181981153
15181988416
15181995374
15182003919
15182008985
15182015638
15182023084
15182029310
15182034864
15182040845
15182046949
15182053724
15182058668
15182063855
15182070630
15182076734
15182083143
15182090345
15182095105
15182102124
15182108960
15182114942
15182120374
15182127393
15182134473
15182140332
15182147718
15182152173
15182158399
15182163037
15182170850
15182175244
15182183423
15182189954
15182196362
15182201428
15182207776
15182212110
15182218457
15182226331
15182231336
15182238477
15182244824
15182250317
15182257581
15182262769
15182268140
15182274731
15182281934
15182286511
15182294324
15182299390
15182304883
15182309338
15182318616
15182324719
15182331311
15182336133
15182343152
15182349255
15182355420
15182361828
15182369092
15182374890
15182379956
15182386792
15182392163
15182399182
15182404309
15182411389
15182418286
15182424389
15182429882
15182436352
15182442089
15182450024
15182457531
15182462109
15182468762
15182475842
15182480725
15182488049
15182490978
15182499890
15182503124
15182511730
15182517223
15182524181
15182529675
15182536144
15182542736
15182547619
15182555309
15182560375
15182567577
15182572399
15182579540
15182585277
15182591747
15182598278
15182602978
15182610668
15182614941
15182622692
15182628368
15182634472
15182641002
15182647533
15182652843
15182659923
15182666088
15182670543
15182679149
15182685253
15182690685
15182693676
15182702709
15182708934
15182713878
15182720409
15182727184
15182733470
15182740612
15182746532
15182751659
15182758556
15182764659
15182771556
15182776927
15182783214
15182789806
15182794383
15182802989
15182808299
15182815868
15182820262
15182827403
15182834117
15182839732
15182845653
15182851878
15182859691
15182864513
15182871165
15182877513
15182883556
15182890452
15182897044
15182903453
15182910228
15182914622
15182921580
15182928050
15182933909
15182939586
15182945994
15182953807
15182959361
15182965892
15182970652
15182977916
15182984935
15182989756
15182998301
15183002635
15183010691
15183016612
15183023936
15183029185
15183036021
15183042552
15183047190
15183053904
15183058055
15183067210
15183072886
15183078379
15183085093
15183091685
15183097239
15183102488
15183109873
15183114329
15183120677
15183126292
15183133311
15183139658
15183145274
15183151255
15183158335
15183164011
15183170237
15183176096
15183183176
15183190440
15183195811
15183201304
15183206797
15183213633
15183219614
15183226389
15183233835
15183238718
15183245676
15183250132
15183257700
15183263437
15183271616
15183276194
15183282908
15183288828
15183295176
15183301401
15183306162
15183314524
15183319223
15183329721
15183337717
15183346750
15183354746
15183363352
15183373178
15183381723
15183391916
15183400766
15183411508
15183424143
15183434396
15183442514
15183452402
15183462717
15183473215
15183480112
15183489267
15183498361
15183508920
15183517892
15183526498
15183535226
15183543771
15183553109
15183560739
15183570138
15183579171
15183584604
15183594125
15183604074
15183613168
15183621347
15183630441
15183639230
15183648385
15183657052
15183667001
15183675851
15183683785
15183694528
15183702401
15183711251
15183720773
15183732919
15183741708
15183750558
15183759408
15183768441
15183778573
15183785897
15183795235
15183802254
15183812447
15183819161
15183829476
15183837838
15183846077
15183858773
15183871163
15183880501
15183889901
15183900460
15183912361
15183921883
15183930794
15183941841
15183950630
15183959969
15183969307
15183978768
15183988411
15183997078
15184007027
15184013435
15184019478
15184025398
15184032051
15184036263
15184043526
15184048286
15184054024
15184059090
15184064949
15184071663
15184077278
15184082222
15184088203
15184094246
15184099739
15184106697
15184112190
15184119209
15184125130
15184131599
15184137642
15184143318
15184148811
15184152107
15184161323
15184168647
15184174629
15184181953
15184189277
15184194282
15184203743
15184208992
15184215766
15184220588
15184227851
15184234565
15184239875
15184247200
15184254341
15184258857
15184264900
15184269294
15184275398
15184280952
15184286994
15184292426
15184301032
15184306770
15184312507
15184317756
15184323493
15184328803
15184334296
15184341499
15184347358
15184353828
15184358100
15184364509
15184368720
15184375434
15184380195
15184387214
15184392341
15184398566
15184403876
15184409980
15184414374
15184420844
15184425727
15184433967
15184439399
15184443549
15184449714
15184455329
15184460883
15184465033
15184473883
15184479438
15184484748
15184490485
15184495856
15184501593
15184506964
15184512763
15184518744
15184524298
15184530890
15184536200
15184541083
15184546515
15184552680
15184556830
15184563727
15184569708
15184576056
15184582099
15184587653
15184593268
15184598883
15184604376
15184611395
15184617926
15184625250
15184631171
15184639044
15184644598
15184650702
15184657599
15184662970
15184669684
15184676459
15184683295
15184689337
15184694830
15184702276
15184708014
15184713873
15184720282
15184726019
15184731390
15184737188
15184742499
15184750372
15184757025
15184762396
15184767889
15184775213
15184781195
15184786505
15184791937
15184799261
15184805120
15184811895
15184817511
15184822943
15184828680
15184835760
15184841925
15184848944
15184854498
15184861212
15184866400
15184872991
15184877630
15184884222
15184890386
15184896429
15184902410
15184908514
15184916082
15184922186
15184927923
15184933294
15184939275
15184946050
15184952215
15184958013
15184965398
15184970159
15184977544
15184982427
15184989629
15184995916
15185001226
15185007085
15185013677
15185018804
15185025457
15185030034
15185037298
15185043889
15185051153
15185055852
15185063176
15185070623
15185075505
15185082036
15185089116
15185095586
15185101995
15185106877
15185113835
15185120854
15185125554
15185134526
15185140935
15185146611
15185152043
15185159246
15185165166
15185172246
15185178227
15185183782
15185190068
15185197026
15185202947
15185208379
15185214055
15185220891
15185228886
15185235112
15185240910
15185247075
15185252873
15185257451
15185265080
15185269597
15185276067
15185282719
15185288701
15185294804
15185300542
15185306706
15185312504
15185318974
15185324956
15185331486
15185337346
15185342473
15185349858
15185354985
15185362126
15185368657
15185374089
15185379765
15185386601
15185392155
15185399052
15185404362
15185411625
15185416996
15185424321
15185431156
15185437565
15185443730
15185448551
15185454838
15185461491
15185468388
15185475163
15185481083
15185485722
15185493351
15185498600
15185504459
15185510929
15185517399
15185524113
15185530216
15185534916
15185540714
15185546146
15185553410
15185558475
15185566227
15185572025
15185577335
15185584476
15185589725
15185595829
15185602482
15185609012
15185616154
15185620548
15185626835
15185631962
15185638248
15185643314
15185649784
15185654422
15185660892
15185667606
15185673648
15185679020
15185683170
15185690128
15185695072
15185702640
15185708011
15185713443
15185718631
15185725284
15185730594
15185736881
15185740787
15185747684
15185753116
15185759647
15185763797
15185770267
15185775272
15185781375
15185785709
15185793643
15185799320
15185804935
15185810428
15185816043
15185821414
15185825565
15185833682
15185839664
15185845035
15185851382
15185856265
15185861209
15185868350
15185873050
15185880069
15185885257
15185891482
15185896182
15185902408
15185906985
15185914554
15185918521
15185926822
15185932437
15185938235
15185943667
15185949405
15185954776
15185960879
15185967166
15185973208
15185979922
15185985232
15185990115
15185996341
15186001345
15186007510
15186014773
15186020327
15186026919
15186030825
15186037234
15186042483
15186048953
15186056216
15186062441
15186068118
15186074160
15186079409
15186084963
15186090395
15186094729
15186102847
15186108828
15186114626
15186120730
15186126528
15186132754
15186138613
15186145205
15186151858
15186157107
15186163760
15186169131
15186174135
15186180117
15186186526
15186191592
15186198122
15186204409
15186208681
15186215273
15186220888
15186227297
15186233034
15186240847
15186247011
15186252016
15186258059
15186263247
15186268129
15186275148
15186281130
15186287783
15186292971
15186299257
15186303957
15186310305
15186315370
15186321596
15186327822
15186334169
15186340395
15186344789
15186349977
15186356569
15186362123
15186367677
15186373720
15186380373
15186387575
15186393739
15186401308
15186407106
15186413271
15186420107
15186427003
15186432253
15186438783
15186444093
15186450868
15186457704
15186463197
15186469850
15186475465
15186482240
15186486635
15186493349
15186499574
15186506288
15186512758
15186517396
15186523317
15186530092
15186536561
15186542665
15186549257
15186553895
15186561586
15186566102
15186573549
15186579774
15186585633
15186592164
15186597963
15186603028
15186610414
15186615724
15186623109
15186627931
15186635560
15186640565
15186648133
15186653626
15186661317
15186666932
15186673768
15186679017
15186685792
15186691041
15186697816
15186703004
15186709840
15186715211
15186722169
15186728028
15186734986
15186741822
15186746827
15186753236
15186760377
15186766785
15186772950
15186779175
15186785523
15186791321
15186797425
15186803467
15186808167
15186817383
15186823121
15186828919
15186834656
15186840577
15186848267
15186853760
15186860840
15186866272
15186872071
15186878785
15186884827
15186890198
15186896546
15186903565
15186909363
15186916077
15186920349
15186927185
15186932617
15186939392
15186946045
15186950745
15186957642
15186963745
15186970581
15186975220
15186982178
15186986755
15186995178
15187000916
15187006775
15187013306
15187019165
15187024902
15187030945
15187037170
15187044922
15187050293
15187057739
15187062622
15187070068
15187076172
15187081604
15187089111
15187094665
15187101379
15187106872
15187112793
15187119568
15187125488
15187130981
15187136780
15187143921
15187149597
15187156494
15187163086
15187169372
15187174743
15187180725
15187189270
15187195556
15187201232
15187206665
15187211975
15187216918
15187223632
15187229248
15187236694
15187241882
15187248474
15187254028
15187259399
15187266174
15187271423
15187277587
15187285522
15187290832
15187297057
15187301391
15187307678
15187314025
15187319885
15187328429
15187334899
15187339965
15187347045
15187352355
15187358092
15187364867
15187370849
15187377868
15187384032
15187388366
15187394469
15187400512
15187404967
15187411620
15187418883
15187425780
15187431518
15187436950
15187444579
15187451842
15187456847
15187465209
15187471251
15187477111
15187484923
15187490172
15187497191
15187503722
15187511534
15187516234
15187523558
15187528685
15187535582
15187541442
15187547972
15187554320
15187560607
15187567931
15187574461
15187581053
15187586241
15187593688
15187599730
15187606871
15187612425
15187617369
15187624510
15187631224
15187637877
15187644408
15187650633
15187658507
15187664549
15187670042
15187673094
15187682921
15187688841
15187695677
15187702879
15187707518
15187714354
15187720579
15187726378
15187732054
15187740599
15187747068
15187752256
15187758055
15187764524
15187770567
15187777037
15187783079
15187789549
15187795103
15187801756
15187806944
15187813658
15187820433
15187827024
15187831724
15187840086
15187844908
15187850523
15187856687
15187863706
15187869505
15187876096
15187881590
15187888303
15187894346
15187900022
15187905637
15187911802
15187917783
15187924802
15187930051
15187936765
15187941770
15187947752
15187954282
15187961362
15187966001
15187973997
15187978757
15187986143
15187989072
15187997739
15188004392
15188009824
15188015684
15188022336
15188027524
15188033933
15188040036
15188045835
15188053769
15188059995
15188065061
15188070127
15188077329
15188083066
15188089292
15188095761
15188102170
15188108274
15188114926
15188122129
15188128171
15188135190
15188139585
15188146726
15188153012
15188159543
15188163815
15188170102
15188176938
15188181638
15188187314
15188193845
15188200070
15188206540
15188212155
15188217831
15188223264
15188229367
15188236203
15188242368
15188249081
15188254147
15188260312
15188265805
15188270627
15188276242
15188282773
15188287289
15188293759
15188299435
15188305661
15188311276
15188317013
15188321103
15188327450
15188334042
15188339779
15188346005
15188352169
15188357663
15188361935
15188369259
15188375668
15188381039
15188385922
15188392514
15188396786
15188403439
15188408200
15188415463
15188421261
15188427609
15188433041
15188437985
15188443600
15188450070
15188455990
15188462582
15188468563
15188474545
15188481075
15188485470
15188490780
15188497494
15188504574
15188511105
15188516842
15188524044
15188530514
15188536678
15188541439
15188550289
15188553524
15188562618
15188568783
15188573971
15188580685
15188586239
15188593014
15188599300
15188606991
15188611934
15188619137
15188624630
15188629757
15188635982
15188642696
15188648311
15188654903
15188660457
15188666927
15188672725
15188678707
15188686397
15188691890
15188698299
15188704830
15188710201
15188715511
15188721981
15188730464
15188735530
15188742732
15188747676
15188753536
15188760433
15188765682
15188773250
15188780147
15188786006
15188791377
15188796932
15188801509
15188809993
15188815303
15188822566
15188828426
15188835017
15188839839
15188846248
15188852290
15188858150
15188866633
15188871577
15188878474
15188883662
15188890986
15188896235
15188902644
15188909419
15188916255
15188922419
15188930049
15188935603
15188942561
15188948176
15188954585
15188961726
15188967280
15188973689
15188978572
15188984980
15188988887
15188995356
15189001399
15189007991
15189014033
15189020137
15189025874
15189030451
15189037043
15189042780
15189049433
15189055476
15189062373
15189068659
15189075373
15189080927
15189086237
15189093745
15189099604
15189106013
15189112543
15189116938
15189122370
15189128718
15189135859
15189142878
15189148798
15189155329
15189160639
15189166926
15189173578
15189178766
15189185602
15189192011
15189198603
15189204279
15189209406
15189216730
15189223688
15189228937
15189234369
15189240961
15189248529
15189255426
15189261164
15189267572
15189275629
15189281305
15189286676
15189293207
15189299677
15189305719
15189311823
15189318415
15189325617
15189331293
15189336786
15189343927
15189350031
15189355341
15189360956
15189367792
15189375482
15189380365
15189387567
15189392450
15189399713
15189404779
15189411798
15189416498
15189423212
15189429498
15189434259
15189442071
15189448236
15189454156
15189459711
15189466669
15189472345
15189478937
15189485040
15189489618
15189496698
15189504022
15189510125
15189515680
15189523004
15189529168
15189535943
15189540704
15189547662
15189554132
15189562127
15189568170
15189575433
15189582452
15189588433
15189595330
15189601312
15189607476
15189612969
15189619256
15189624627
15189629510
15189636895
15189642144
15189649163
15189655328
15189660088
15189665643
15189671929
15189677239
15189684441
15189689996
15189696587
15189702752
15189708978
15189714471
15189718743
15189726311
15189732293
15189739373
15189747369
15189753472
15189759148
15189764886
15189772576
15189778313
15189783440
15189788933
15189795830
15189801323
15189807793
15189814751
15189821343
15189827324
15189833001
15189839959
15189845635
15189852166
15189858879
15189864739
15189871148
15189877617
15189883171
15189888665
15189895745
15189902214
15189908928
15189914788
15189919304
15189925835
15189932427
15189938225
15189944328
15189951958
15189956780
15189963616
15189968926
15189975700
15189982048
15189988823
15189995720
15190002190
15190007927
15190014091
15190019890
15190026848
15190031975
15190038322
15190046623
15190052421
15190057854
15190064995
15190070915
15190076042
15190083366
15190089226
15190095085
15190101677
15190107414
15190114372
15190120170
15190126823
15190133049
15190138115
15190145378
15190151359
15190157585
15190162651
15190169120
15190175956
15190182853
15190188713
15190191520
15190200859
15190206352
15190212882
15190217643
15190224601
15190231437
15190238944
15190244804
15190249809
15190255546
15190261039
15190268485
15190274345
15190281120
15190286186
15190292594
15190298454
15190304618
15190312308
15190317802
15190325004
15190330436
15190335563
15190341361
15190348014
15190354362
15190359122
15190367545
15190373038
15190378715
15190384086
15190391349
15190397696
15190404838
15190411857
15190416373
15190423453
15190429801
15190435904
15190440665
15190448600
15190455008
15190461600
15190465995
15190472647
15190479178
15190484915
15190492484
15190497672
15190504569
15190509940
15190516593
15190523245
15190530203
15190536917
15190542288
15190551016
15190555533
15190562491
15190568655
15190574088
15190579764
15190586539
15190593314
15190597830
15190605643
15190611502
15190617178
15190624991
15190632010
15190636343
15190642874
15190649527
15190654104
15190661917
15190665030
15190674124
15190680594
15190685782
15190691397
15190698294
15190704886
15190710623
15190717215
15190723318
15190730398
15190735403
15190742849
15190748770
15190754019
15190760000
15190766653
15190773123
15190779348
15190784902
15190791250
15190796621
15190803518
15190810903
15190816641
15190823049
15190829031
15190835623
15190841482
15190846975
15190855215
15190861440
15190866811
15190872060
15190878469
15190884878
15190890798
15190897329
15190903616
15190910696
15190915334
15190922231
15190927785
15190934316
15190940603
15190947256
15190953725
15190958242
15190966237
15190971242
15190978567
15190984304
15190991506
15190996145
15191002797
15191008657
15191014577
15191021169
15191027456
15191034230
15191039907
15191047048
15191051686
