14766917396
14766926735
14766937294
14766942543
14766953529
14766961830
14766968422
14766978675
14766984718
14766995826
14767003883
14767009681
14767018470
14767024818
14767034339
14767041908
14767050758
14767059913
14767066627
14767075904
14767082130
14767092078
14767100562
14767108070
14767116004
14767122474
14767131141
14767138526
14767146766
14767155250
14767163123
14767170325
14767177039
14767185401
14767191749
14767201026
14767207374
14767217444
14767223548
14767231421
14767239234
14767247657
14767255652
14767264380
14767272620
14767279517
14767286902
14767295142
14767301184
14767310889
14767317603
14767327796
14767335547
14767343909
14767352820
14767359534
14767368811
14767378638
14767386450
14767394202
14767404211
14767410620
14767423254
14767433691
14767444495
14767453772
14767465613
14767474707
14767482214
14767492285
14767503760
14767514319
14767523596
14767535070
14767544409
14767553991
14767559851
14767572241
14767583471
14767591467
14767602270
14767609899
14767620214
14767628637
14767639318
14767652319
14767661352
14767671911
14767679907
14767689428
14767697668
14767707494
14767713720
14767727514
14767737035
14767744970
14767753454
14767761571
14767773168
14767782628
14767792150
14767801916
14767810399
14767817785
14767826085
14767834630
14767842382
14767853124
14767861730
14767872838
14767883763
14767892186
14767900060
14767911107
14767920873
14767931798
14767941747
14767950231
14767960301
14767968907
14767981236
14767990453
14767998265
14768007237
14768015355
14768024449
14768032506
14768041356
14768052098
14768062596
14768071507
14768082249
14768089818
14768100071
14768107823
14768117589
14768125828
14768138585
14768148899
14768158909
14768167698
14768175816
14768185459
14768193699
14768206272
14768216892
14768227024
14768235752
14768243382
14768253208
14768260960
14768269932
14768277256
14768286655
14768291111
14768303562
14768311131
14768324070
14768335606
14768345798
14768355320
14768364719
14768372288
14768384556
14768392612
14768400913
14768408298
14768417515
14768426853
14768435642
14768444309
14768454013
14768461948
14768470005
14768479343
14768487766
14768494419
14768503879
14768513828
14768524326
14768529880
14768540378
14768547763
14768557346
14768564548
14768572971
14768580417
14768591342
14768599338
14768609042
14768614291
14768624667
14768631992
14768641757
14768649509
14768659885
14768668857
14768677279
14768682590
14768693759
14768701693
14768707980
14768715304
14768727145
14768735873
14768744357
14768749240
14768758822
14768765841
14768775424
14768783114
14768793795
14768798739
14768809725
14768817477
14768826754
14768831759
14768842074
14768853549
14768862460
14768869051
14768877596
14768885653
14768894259
14768902621
14768911166
14768920931
14768930086
14768938570
14768946871
14768955416
14768961947
14768970125
14768978304
14768988253
14768997042
14769005526
14769014010
14769021151
14769029451
14769037813
14769046846
14769058382
14769065401
14769074495
14769083712
14769091219
14769097994
14769108248
14769115084
14769126314
14769137056
14769144441
14769153047
14769160310
14769168001
14769176485
14769187410
14769195528
14769204134
14769212068
14769219514
14769225923
14769234407
14769242647
14769250825
14769257539
14769264131
14769271150
14769277986
14769285432
14769292756
14769300813
14769308015
14769317354
14769325288
14769333284
14769341157
14769349153
14769357454
14769366853
14769374116
14769380769
14769388948
14769396028
14769405305
14769414094
14769422883
14769431855
14769439790
14769449861
14769459626
14769467622
14769476045
14769484711
14769492646
14769500397
14769511201
14769518525
14769526398
14769533417
14769545808
14769550996
14769562348
14769571015
14769578461
14769587861
14769594208
14769606293
14769612763
14769623688
14769630707
14769643036
14769651459
14769658722
14769666962
14769674347
14769682465
14769687714
14769696015
14769701508
14769708771
14769715973
14769723236
14769730011
14769736298
14769743317
14769749725
14769755402
14769763214
14769769074
14769777069
14769783478
14769790314
14769793976
14769803009
14769806610
14769816071
14769822662
14769827606
14769834442
14769840179
14769845795
14769851837
14769857696
14769863373
14769871002
14769874664
14769882110
14769888031
14769893463
14769899017
14769906402
14769911956
14769918365
14769924347
14769928985
14769935516
14769941070
14769947235
14769953277
14769959442
14769965728
14769971771
14769977935
14769984344
14769990020
14769995391
14770000946
14770007232
14770013275
14770018585
14770025848
14770031585
14770037750
14770041595
14770049468
14770056060
14770062164
14770067901
14770072479
14770080474
14770086028
14770092986
14770098113
14770104949
14770108611
14770115997
14770122649
14770128692
14770134002
14770140227
14770146087
14770152068
14770158660
14770163604
14770169829
14770175139
14770182464
14770187530
14770194549
14770200652
14770207366
14770212859
14770220427
14770226287
14770230986
14770236785
14770241973
14770248870
14770253020
14770260161
14770266387
14770272979
14770278655
14770284636
14770290618
14770295012
14770303130
14770308867
14770315154
14770321196
14770327300
14770333403
14770339507
14770343840
14770350615
14770356719
14770362273
14770368132
14770373320
14770379424
14770385893
14770390715
14770396269
14770403593
14770410185
14770414519
14770419829
14770426909
14770433806
14770439848
14770445891
14770450712
14770456938
14770463347
14770467619
14770474394
14770482207
14770486418
14770492094
14770499540
14770505461
14770510954
14770515226
14770520536
14770526945
14770532316
14770538908
14770545073
14770551725
14770556242
14770562529
14770568022
14770574552
14770581266
14770587004
14770591520
14770597563
14770603971
14770610319
14770615873
14770621305
14770627897
14770633329
14770639799
14770645292
14770650175
14770657987
14770664152
14770669706
14770675077
14770682340
14770687650
14770693693
14770700895
14770706144
14770712247
14770717741
14770724210
14770728605
14770737089
14770742277
14770749540
14770754972
14770760892
14770767423
14770772062
14770779813
14770784879
14770792142
14770798917
14770805021
14770809720
14770815946
14770822782
14770830167
14770835660
14770841214
14770847074
14770853421
14770858426
14770865995
14770872464
14770878995
14770885343
14770891507
14770897183
14770902616
14770907498
14770913358
14770919705
14770926236
14770931912
14770938199
14770943143
14770947781
14770955472
14770962552
14770968716
14770973660
14770978848
14770984647
14770990506
14770995877
14771001981
14771008145
14771013272
14771019925
14771025418
14771032193
14771037320
14771042996
14771049527
14771055936
14771061612
14771067166
14771072659
14771076748
14771084927
14771091824
14771097683
14771104214
14771109219
14771115506
14771120572
14771127469
14771131436
14771138577
14771143887
14771149868
14771156521
14771161587
14771168240
14771174282
14771181790
14771187283
14771193264
14771198574
14771204495
14771210354
14771217190
14771223660
14771227444
14771234097
14771239346
14771245510
14771253018
14771257900
14771264492
14771270840
14771276089
14771282864
14771288967
14771294155
14771299587
14771304348
14771311245
14771317837
14771322903
14771329311
14771335659
14771341335
14771346096
14771352321
14771358120
14771363186
14771369777
14771375454
14771380520
14771387783
14771391384
14771399196
14771404934
14771410549
14771416774
14771422451
14771428005
14771434230
14771441127
14771444728
14771451442
14771456447
14771463527
14771468837
14771475185
14771482082
14771488552
14771494167
14771498805
14771505336
14771508632
14771515590
14771521633
14771527675
14771534511
14771539028
14771546474
14771551112
14771557826
14771565761
14771571620
14771578151
14771582851
14771590541
14771594875
14771601100
14771606532
14771612575
14771618251
14771624477
14771630885
14771636867
14771641383
14771647548
14771654628
14771659816
14771666347
14771672084
14771677089
14771682460
14771688563
14771694728
14771700221
14771706324
14771711757
14771718409
14771723475
14771729029
14771733790
14771740931
14771744777
14771752772
14771758937
14771764796
14771770228
14771774501
14771781459
14771787684
14771793421
14771799037
14771805384
14771810694
14771817286
14771823451
14771829493
14771835169
14771840968
14771845912
14771850794
14771858912
14771862513
14771870326
14771876673
14771882960
14771889613
14771895045
14771902064
14771907374
14771913233
14771918787
14771925013
14771931116
14771937098
14771942347
14771949854
14771956019
14771960535
14771966639
14771971338
14771977747
14771983118
14771988855
14771995813
14772001856
14772007227
14772011438
14772018091
14772024012
14772030664
14772036829
14772044336
14772047815
14772055384
14772060633
14772066553
14772073328
14772079798
14772085047
14772090418
14772097925
14772103052
14772109094
14772115259
14772121851
14772128626
14772133081
14772139368
14772145960
14772150171
14772156946
14772163721
14772170190
14772176172
14772180383
14772187585
14772193323
14772198572
14772204858
14772211084
14772216089
14772220972
14772229028
14772235132
14772241052
14772246728
14772253381
14772258630
14772264062
14772269922
14772274621
14772282434
14772287683
14772294214
14772300012
14772305688
14772312585
14772318628
14772324426
14772330346
14772337243
14772342736
14772348474
14772354394
14772360192
14772366418
14772372888
14772378320
14772384912
14772391381
14772396813
14772402734
14772409387
14772415002
14772420373
14772425073
14772430688
14772437280
14772443322
14772448754
14772454736
14772460778
14772465600
14772472436
14772477624
14772483300
14772490807
14772496056
14772500329
14772507409
14772513756
14772519433
14772525475
14772530785
14772538476
14772542809
14772549767
14772556481
14772562279
14772567284
14772573144
14772578820
14772584801
14772592186
14772596825
14772602440
14772607445
14772614098
14772620507
14772627037
14772633080
14772637963
14772645592
14772650719
14772657799
14772664269
14772669762
14772674462
14772679589
14772684777
14772691796
14772697472
14772703209
14772707909
14772713524
14772721459
14772726158
14772733544
14772737572
14772745445
14772751244
14772756920
14772763573
14772768944
14772774376
14772782249
14772787559
14772792442
14772798729
14772805931
14772812035
14772815758
14772822227
14772827843
14772834495
14772842003
14772846519
14772853355
14772859520
14772865562
14772871116
14772875694
14772882591
14772889610
14772896446
14772903343
14772909935
14772913658
14772923301
14772930259
14772936424
14772941917
14772949546
14772955833
14772961692
14772966209
14772972923
14772976158
14772983482
14772990257
14772995567
14773003135
14773008262
14773013450
14773018211
14773025169
14773031028
14773037376
14773043723
14773049766
14773055625
14773059654
14773067039
14773072898
14773079734
14773086082
14773092490
14773098167
14773102439
14773109824
14773114646
14773121604
14773127463
14773133506
14773138328
14773144858
14773151328
14773157493
14773163413
14773168845
14773175010
14773179709
14773186179
14773190085
14773197776
14773202414
14773209678
14773216330
14773221274
14773228293
14773232932
14773237937
14773243125
14773249778
14773255576
14773262717
14773268393
14773272605
14773279318
14773286032
14773292258
14773297995
14773303427
14773308737
14773316123
14773319418
14773326376
14773332602
14773337973
14773344382
14773348776
14773354392
14773360251
14773368063
14773373679
14773379904
14773385947
14773390463
14773396933
14773403158
14773409140
14773415854
14773421835
14773428427
14773433066
14773438620
14773446249
14773452292
14773458395
14773464193
14773470663
14773476523
14773481772
14773487692
14773494650
14773501791
14773507895
14773513327
14773519186
14773524557
14773530172
14773537374
14773543356
14773548727
14773554342
14773560568
14773566793
14773571615
14773578146
14773583700
14773589865
14773603842
14773611105
14773617758
14773626363
14773632101
14773638509
14773643697
14773650350
14773657247
14773662313
14773668600
14773674764
14773680563
14773688924
14773694845
14773701498
14773709615
14773714498
14773721334
14773726339
14773733968
14773740804
14773746419
14773752767
14773758870
14773763509
14773769307
14773775228
14773779805
14773786214
14773792867
14773798543
14773804219
14773809530
14773815572
14773821248
14773826131
14773832235
14773840169
14773845296
14773851949
14773856710
14773863484
14773868795
14773874105
14773880513
14773886251
14773893086
14773900167
14773907796
14773912740
14773919820
14773925069
14773932881
14773936604
14773944661
14773950948
14773956990
14773961690
14773967671
14773974202
14773980000
14773986531
14773993062
14773997823
14774004109
14774009785
14774014973
14774021870
14774030171
14774036397
14774040303
14774049458
14774055195
14774059895
14774066792
14774072957
14774078145
14774084736
14774090413
14774096638
14774104023
14774110920
14774117146
14774123127
14774128865
14774134785
14774140522
14774146015
14774150593
14774157185
14774164143
14774170002
14774176411
14774182331
14774187092
14774193806
14774197956
14774205830
14774209370
14774216877
14774223286
14774229267
14774234821
14774241108
14774247395
14774252338
14774260395
14774264790
14774271015
14774277546
14774282612
14774288410
14774295246
14774300190
14774305378
14774311420
14774316059
14774323200
14774329914
14774336384
14774341572
14774348652
14774351887
14774358417
14774364582
14774370197
14774376850
14774382831
14774388019
14774393207
14774401020
14774405048
14774412922
14774419330
14774424762
14774430622
14774436542
14774442096
14774446430
14774452899
14774459003
14774465595
14774471027
14774478046
14774483356
14774488971
14774496356
14774502643
14774509052
14774514545
14774521320
14774526019
14774531818
14774538471
14774543781
14774551166
14774557208
14774563251
14774567462
14774574054
14774579791
14774586627
14774591510
14774598285
14774604205
14774609515
14774614886
14774620746
14774628253
14774633624
14774639667
14774645465
14774651874
14774655780
14774664020
14774667621
14774674273
14774680804
14774686908
14774692340
14774698077
14774703021
14774708697
14774716082
14774722369
14774727435
14774734576
14774738848
14774745440
14774751361
14774757281
14774763995
14774769793
14774775408
14774779925
14774786944
14774792010
14774799334
14774804888
14774811358
14774818194
14774822833
14774828570
14774835528
14774841692
14774847308
14774854266
14774860796
14774866961
14774872088
14774877215
14774882281
14774890948
14774897173
14774903094
14774908831
14774914202
14774920428
14774927325
14774932635
14774937700
14774945635
14774949602
14774958880
14774965471
14774971819
14774977861
14774982866
14774987993
14774994097
14774999651
14775006731
14775012041
14775018450
14775024981
14775031633
14775036943
14775041704
14775047563
14775054705
14775059038
14775065081
14775071733
14775078264
14775084123
14775090227
14775094560
14775100725
14775106035
14775112627
14775118608
14775123979
14775131059
14775136247
14775141679
14775145769
14775153886
14775158891
14775165727
14775172014
14775177202
14775182390
14775187028
14775192705
14775199419
14775205156
14775211687
14775216936
14775221513
14775228044
14775235795
14775241960
14775248063
14775253129
14775259965
14775264665
14775271928
14775276750
14775281938
14775289201
14775294450
14775300554
14775306779
14775311967
14775318254
14775323686
14775330094
14775336747
14775341813
14775348771
14775353532
14775358903
14775364152
14775371781
14775377214
14775383195
14775388810
14775394120
14775398942
14775406022
14775412675
14775417191
14775423600
14775430009
14775436173
14775439957
14775447953
14775452226
14775458756
14775466264
14775472245
14775478043
14775482987
14775489823
14775496415
14775501359
14775507950
14775514298
14775519852
14775524552
14775530472
14775536454
14775543473
14775548905
14775555497
14775562027
14775567276
14775571732
14775577652
14775584977
14775589920
14775595475
14775601517
14775607682
14775613053
14775619645
14775624161
14775630692
14775638748
14775644242
14775648514
14775654312
14775660172
14775665665
14775672318
14775677628
14775683792
14775689224
14775695023
14775701859
14775708145
14775713333
14775718216
14775726639
14775731033
14775737320
14775742203
14775747940
14775752213
14775758682
14775765518
14775771316
14775776382
14775781998
14775787735
14775794998
14775800613
14775806412
14775812454
14775819229
14775824234
14775831192
14775837295
14775843826
14775850723
14775855606
14775860489
14775867447
14775871353
14775879776
14775885086
14775890701
14775896377
14775902542
14775908401
14775912613
14775919204
14775924148
14775929580
14775935440
14775942703
14775948562
14775954238
14775959976
14775966323
14775971755
14775978469
14775983413
14775988418
14775995986
14776002517
14776007339
14776013198
14776019973
14776026077
14776032851
14776039016
14776044143
14776050613
14776053909
14776061660
14776067580
14776072951
14776078994
14776083877
14776090591
14776096633
14776102676
14776109695
14776116103
14776120009
14776128127
14776133254
14776140456
14776146377
14776152907
14776158034
14776163588
14776171401
14776175246
14776182448
14776185622
14776193312
14776200576
14776205764
14776211867
14776218215
14776224929
14776229262
14776236953
14776243300
14776249037
14776253310
14776260390
14776266371
14776271498
14776277846
14776284804
14776290480
14776294447
14776300978
14776306410
14776312026
14776316542
14776323561
14776330580
14776335768
14776341811
14776346388
14776353285
14776358412
14776364272
14776371107
14776377943
14776384413
14776388808
14776395216
14776399733
14776406264
14776412611
14776418349
14776425001
14776429762
14776435499
14776441298
14776448805
14776453993
14776460646
14776466261
14776472181
14776476942
14776482679
14776488173
14776494947
14776500746
14776505751
14776513807
14776520155
14776524855
14776531202
14776536390
14776543043
14776549513
14776554762
14776559339
14776566297
14776570997
14776576063
14776581007
14776588087
14776593092
14776599073
14776605116
14776610914
14776617567
14776622999
14776630384
14776635633
14776642164
14776647840
14776653272
14776660230
14776666273
14776672376
14776677503
14776684705
14776689100
14776695508
14776701185
14776707593
14776714246
14776720350
14776726392
14776732191
14776737256
14776744275
14776750013
14776755628
14776762281
14776766431
14776774244
14776780530
14776786206
14776791455
14776798413
14776804517
14776809278
14776815686
14776821180
14776826978
14776831189
14776839795
14776845899
14776851819
14776857556
14776863782
14776870130
14776876355
14776881604
14776885694
14776893140
14776900037
14776905286
14776912183
14776916455
14776923169
14776928479
14776934216
14776937756
14776945142
14776951428
14776957715
14776963696
14776970227
14776976331
14776981580
14776988232
14776993725
14776999646
14777006177
14777011792
14777018933
14777025403
14777031933
14777036816
14777042798
14777047497
14777055737
14777061108
14777066235
14777073437
14777078137
14777083996
14777089795
14777096081
14777102856
14777108471
14777114697
14777119519
14777125622
14777132519
14777138806
14777144909
14777150585
14777157421
14777163525
14777169140
14777174450
14777180859
14777186230
14777193310
14777200024
14777206127
14777211681
14777216747
14777223400
14777229809
14777236706
14777241406
14777248302
14777254406
14777260509
14777265820
14777272167
14777278820
14777282909
14777290539
14777294140
14777301037
14777306957
14777313122
14777319286
14777325268
14777330700
14777335583
14777341869
14777347667
14777353954
14777360180
14777365978
14777372448
14777377514
14777383495
14777389232
14777395214
14777401073
14777408275
14777413646
14777419872
14777425914
14777431468
14777439159
14777443126
14777450267
14777457408
14777462779
14777467479
14777473216
14777479991
14777485118
14777491710
14777498485
14777503917
14777509532
14777514781
14777521190
14777527843
14777534068
14777539867
14777545055
14777550243
14777557628
14777561290
14777568248
14777575816
14777581004
14777585826
14777591624
14777598521
14777603221
14777609996
14777615855
14777622264
14777628062
14777634532
14777640513
14777645701
14777652232
14777657603
14777665416
14777668528
14777675853
14777682139
14777688548
14777694835
14777700084
14777706797
14777713450
14777719676
14777724314
14777729686
14777735667
14777742442
14777748301
14777753977
14777759715
14777765696
14777771983
14777778880
14777783701
14777789927
14777797190
14777803111
14777808909
14777815135
14777821299
14777827403
14777832896
14777839121
14777845164
14777851572
14777856333
14777862192
14777868845
14777875620
14777881113
14777886851
14777891245
14777897471
14777903391
14777908823
14777915232
14777921763
14777927012
14777932322
14777938242
14777944285
14777948496
14777956247
14777961924
14777968027
14777972849
14777979563
14777986216
14777992380
14777997507
14778002268
14778009897
14778016489
14778021921
14778027658
14778032785
14778037302
14778043894
14778050791
14778056772
14778062387
14778068918
14778075083
14778080942
14778086679
14778092905
14778098398
14778102487
14778110361
14778116708
14778122141
14778128793
14778134775
14778141916
14778147104
14778152902
14778158701
14778166025
14778172433
14778179513
14778185739
14778191720
14778198556
14778204843
14778209970
14778217660
14778222909
14778230844
14778235483
14778241403
14778246835
14778253244
14778258798
14778265573
14778271127
14778276864
14778282296
14778288217
14778293893
14778300973
14778306527
14778312265
14778317575
14778323556
14778328561
14778334909
14778339303
14778346200
14778349923
14778357430
14778363473
14778369393
14778375680
14778380502
14778386483
14778393258
14778398812
14778404183
14778411202
14778416879
14778423348
14778428902
14778434640
14778440621
14778447030
14778452706
14778458504
14778463937
14778470040
14778477120
14778483163
14778488839
14778495064
14778500191
14778506051
14778511117
14778518075
14778523751
14778530282
14778536385
14778542550
14778547738
14778553902
14778559395
14778565133
14778572152
14778576973
14778584664
14778590035
14778595894
14778603279
14778609261
14778614693
14778621468
14778628182
14778632759
14778639473
14778644417
14778650948
14778657723
14778663521
14778668526
14778675118
14778681587
14778686958
14778693794
14778698738
14778706551
14778712898
14778719002
14778722603
14778729073
14778736336
14778741341
14778747688
14778752998
14778759041
14778764107
14778769966
14778774910
14778782722
14778790474
14778796394
14778803352
14778806953
14778813850
14778820747
14778827583
14778833687
14778838814
14778845100
14778850776
14778856147
14778861946
14778868721
14778876899
14778883186
14778889289
14778894477
14778900947
14778905891
14778911872
14778917671
14778924324
14778930793
14778935493
14778941230
14778946968
14778953559
14778960395
14778966926
14778972785
14778978217
14778984870
14778989692
14778996589
14779002509
14779008125
14779014289
14779019477
14779026130
14779032172
14779037788
14779042976
14779050361
14779057197
14779063361
14779069099
14779074531
14779081428
14779086677
14779092658
14779097663
14779104926
14779110847
14779117988
14779124518
14779131049
14779137336
14779143012
14779148688
14779154609
14779159919
14779164801
14779170905
14779176154
14779184455
14779191108
14779195807
14779203498
14779208197
14779215094
14779221503
14779227545
14779232611
14779238593
14779245612
14779251288
14779258185
14779264594
14779270148
14779276496
14779283148
14779288825
14779295355
14779301886
14779307440
14779312567
14779317633
14779323431
14779328192
14779334845
14779338263
14779346075
14779352606
14779359137
14779364447
14779369452
14779375372
14779380682
14779385138
14779391669
14779397772
14779402167
14779409430
14779415411
14779420538
14779426703
14779433111
14779437506
14779443670
14779449957
14779455694
14779461004
14779466620
14779473089
14779478827
14779483953
14779489752
14779495611
14779502081
14779507269
14779513739
14779518865
14779525701
14779530645
14779536932
14779542120
14779547796
14779552557
14779558782
14779565008
14779569464
14779575811
14779582037
14779588384
14779594915
14779600774
14779607244
14779612676
14779619268
14779625311
14779631170
14779637273
14779642950
14779647832
14779653570
14779659124
14779665349
14779670476
14779675237
14779682561
14779687261
14779692998
14779699163
14779704473
14779708867
14779715703
14779720830
14779726751
14779731572
14779739324
14779744817
14779750371
14779757024
14779763311
14779768560
14779775274
14779781377
14779788457
14779791997
14779800969
14779804204
14779813542
14779820623
14779827092
14779831548
14779837102
14779842717
14779848271
14779853642
14779857915
14779863835
14779869390
14779873784
14779879216
14779884587
14779890019
14779895390
14779901189
14779908269
14779912907
14779920171
14779924626
14779930425
14779934697
14779940495
14779947514
14779952763
14779956975
14779963505
14779968266
14779974431
14779979130
14779984196
14779990239
14779995305
14780000188
14780006535
14780012211
14780019291
14780025029
14780030949
14780036931
14780044194
14780049504
14780056340
14780061589
14780068669
14780075016
14780080204
14780087407
14780091740
14780097538
14780103215
14780108647
14780114750
14780119694
14780125798
14780130497
14780138859
14780145573
14780151737
14780157597
14780162663
14780169071
14780176151
14780182377
14780189030
14780194950
14780201481
14780207218
14780212528
14780218266
14780224491
14780230778
14780236027
14780242313
14780249210
14780255436
14780260441
14780267399
14780274418
14780280460
14780286564
14780293827
14780300724
14780306827
14780312259
14780317692
14780324955
14780330814
14780337223
14780343143
14780349430
14780354984
14780360050
14780366031
14780373417
14780379581
14780385318
14780390506
14780397281
14780403446
14780409549
14780415470
14780421329
14780428043
14780432682
14780439090
14780444461
14780451419
14780457950
14780465518
14780470401
14780476016
14780482425
14780488956
14780494388
14780499881
14780508365
14780515384
14780520999
14780527042
14780533572
14780539493
14780544620
14780551700
14780556827
14780563846
14780569217
14780577090
14780580691
14780589114
14780594302
14780601810
14780608218
14780614322
14780619571
14780626468
14780633731
14780639956
14780646426
14780651065
14780657046
14780662906
14780669558
14780674075
14780681399
14780687869
14780692813
14780699466
14780705203
14780710208
14780716799
14780721743
14780728335
14780733523
14780740542
14780745425
14780753481
14780757022
14780764468
14780771914
14780776797
14780783450
14780789858
14780797610
14780804141
14780808962
14780814761
14780821230
14780827151
14780833559
14780839846
14780846682
14780851504
14780858034
14780864504
14780872011
14780877383
14780882754
14780888674
14780893007
14780899721
14780905398
14780911135
14780917788
14780923159
14780929506
14780934755
14780940249
14780943728
14780950563
14780956728
14780961184
14780968081
14780974367
14780981142
14780987551
14780993837
14781000002
14781007204
14781015261
14781019716
14781025637
14781031130
14781035890
14781042177
14781046938
14781053102
14781058473
14781065126
14781068910
14781077272
14781082521
14781088136
14781093752
14781100893
14781107240
14781112184
14781117921
14781122255
14781128786
14781133485
14781139650
14781144472
14781151613
14781158754
14781163576
14781169496
14781174989
14781180299
14781185853
14781192567
14781198793
14781204042
14781209596
14781214967
14781220460
14781226381
14781231080
14781237611
14781244691
14781250917
14781256593
14781263734
14781269044
14781275697
14781281434
14781287110
14781291200
14781298280
14781304383
14781310060
14781314149
14781320314
14781326478
14781332215
14781338258
14781343019
14781350038
14781355165
14781362061
14781368348
14781373353
14781379517
14781386048
14781391419
14781397645
14781402345
14781408875
14781415650
14781420960
14781427308
14781433839
14781440125
14781446534
14781452454
14781458924
14781465394
14781469788
14781476624
14781481812
14781488587
14781495118
14781500184
14781504822
14781513001
14781518860
14781525086
14781530762
14781537354
14781542786
14781549988
14781556397
14781562012
14781567261
14781572815
14781578675
14781585205
14781590699
14781597534
14781603638
14781607910
14781614807
14781619263
14781624878
14781631592
14781638245
14781644165
14781651245
14781656677
14781663635
14781668457
14781674561
14781681275
14781686524
14781694275
14781699707
14781705750
14781711731
14781717224
14781721619
14781727966
14781734619
14781741150
14781744690
14781751892
14781755371
14781762512
14781768188
14781773682
14781779663
14781785217
14781790405
14781796142
14781802307
14781808716
14781814941
14781820373
14781828247
14781832763
14781838379
14781844360
14781850219
14781854980
14781860290
14781865417
14781871765
14781876464
14781882385
14781887207
14781893859
14781900268
14781906555
14781912902
14781918518
14781924377
14781929992
14781935119
14781939514
14781945983
14781952880
14781957946
14781963928
14781969421
14781974181
14781979736
14781984679
14781991699
14781997558
14782004516
14782008056
14782015624
14782021056
14782026427
14782029967
14782037658
14782043639
14782049193
14782054259
14782059753
14782064635
14782070312
14782076293
14782081359
14782088439
14782095519
14782100768
14782107421
14782112914
14782117553
14782125243
14782130248
14782137633
14782144530
14782150206
14782156066
14782160704
14782166930
14782173827
14782180541
14782186766
14782191588
14782197264
14782202880
14782207091
14782213134
14782219603
14782225035
14782230101
14782237731
14782242308
14782247557
14782252318
14782258910
14782266539
14782271727
14782278197
14782283995
14782289366
14782294859
14782300291
14782304625
14782311400
14782317198
14782322752
14782327330
14782333250
14782338805
14782344664
14782351012
14782357542
14782363280
14782370848
14782374388
14782380919
14782386778
14782392454
14782398436
14782405333
14782410032
14782417784
14782424986
14782431395
14782436461
14782441526
14782449827
14782455137
14782462034
14782467039
14782473936
14782480101
14782485044
14782489988
14782497740
14782502500
14782508665
14782513792
14782520262
14782525511
14782533262
14782540403
14782546446
14782552000
14782557371
14782562193
14782567747
14782574033
14782578672
14782584531
14782591001
14782597349
14782604246
14782609495
14782616392
14782621885
14782626890
14782634458
14782639829
14782646909
14782650754
14782658750
14782664060
14782671750
14782677427
14782683042
14782688230
14782693967
14782699888
14782705686
14782710264
14782717222
14782724485
14782728940
14782736020
14782743100
14782748960
14782754697
14782762204
14782767514
14782773557
14782779599
14782786313
14782790097
14782798703
14782802121
14782810788
14782817502
14782823606
14782830136
14782835080
14782842587
14782847043
14782853085
14782859982
14782866147
14782871701
14782879208
14782884885
14782892026
14782895810
14782903134
14782910031
14782915952
14782923154
14782928769
14782934628
14782940732
14782946225
14782952939
14782959042
14782965939
14782973324
14782980282
14782985470
14782993344
14782999936
14783005978
14783012875
14783018307
14783024045
14783030148
14783035458
14783042172
14783048214
14783053158
14783059384
14783064572
14783071041
14783077389
14783083004
14783089596
14783095639
14783100399
14783106198
14783112301
14783116757
14783123287
14783128292
14783135311
14783141415
14783146847
14783152706
14783158260
14783163998
14783169918
14783176266
14783182736
14783189327
14783193905
14783199581
14783204281
14783211300
14783218746
14783224544
14783230648
14783234798
14783240902
14783246273
14783252987
14783258114
14783264706
14783269710
14783276790
14783280330
14783288570
14783294246
14783300045
14783306881
14783312740
14783317745
14783323543
14783329647
14783334469
14783341610
14783348934
14783354915
14783358028
14783366085
14783372554
14783377864
14783382625
14783388362
14783396175
14783401180
14783407466
14783412227
14783419124
14783423702
14783430293
14783436885
14783442439
14783448604
14783454219
14783459224
14783464778
14783470882
14783476497
14783481868
14783487239
14783493037
14783498897
14783504451
14783509090
14783515926
14783521480
14783528621
14783534541
14783540156
14783546626
14783552119
14783557612
14783563167
14783569758
14783574519
14783581050
14783586299
14783593135
14783597774
14783604670
14783611689
14783617610
14783622493
14783627864
14783633906
14783639705
14783644526
14783650752
14783657710
14783664241
14783669551
14783672847
14783680171
14783686824
14783692805
14783699458
14783703974
14783710749
14783716731
14783721614
14783727717
14783733210
14783738581
14783744807
14783749262
14783755976
14783761347
14783767329
14783773676
14783780512
14783786982
14783793940
14783802119
14783805842
14783813532
14783817561
14783825190
14783832880
14783839594
14783845820
14783850580
14783856745
14783862665
14783869074
14783876520
14783882502
14783887507
14783894037
14783899347
14783906305
14783912287
14783919794
14783926813
14783931391
14783938288
14783944574
14783950861
14783955378
14783961542
14783966974
14783974543
14783978205
14783985895
14783989862
14783997248
14784003351
14784009699
14784016046
14784020746
14784027643
14784032648
14784038629
14784045099
14784051996
14784055414
14784062555
14784068048
14784073785
14784079767
14784085138
14784091730
14784096735
14784104120
14784109491
14784114862
14784119440
14784125726
14784132318
14784139154
14784145685
14784152032
14784158014
14784163568
14784169000
14784175470
14784181451
14784186090
14784192438
14784199029
14784204950
14784210321
14784215875
14784222772
14784229364
14784235284
14784240106
14784246759
14784250543
14784258477
14784263726
14784269708
14784275811
14784282159
14784288995
14784293939
14784300775
14784305230
14784312615
14784316705
14784323663
14784329888
14784335565
14784341180
14784347161
14784353448
14784360406
14784366082
14784371636
14784378411
14784381951
14784388909
14784395806
14784400933
14784407586
14784413323
14784418816
14784424859
14784438714
14784446465
14784454522
14784460015
14784465142
14784471306
14784478570
14784484795
14784490960
14784494561
14784502190
14784508599
14784513970
14784520318
14784525200
14784533196
14784538994
14784545464
14784550164
14784555352
14784560173
14784566765
14784571526
14784578484
14784582207
14784590081
14784593682
14784601250
14784607048
14784612297
14784619988
14784626335
14784632805
14784638542
14784644951
14784650322
14784657402
14784664726
14784671013
14784676872
14784682243
14784686760
14784692192
14784697990
14784703545
14784708794
14784715569
14784722038
14784726860
14784733574
14784738090
14784744926
14784749016
14784754753
14784761528
14784767753
14784773308
14784781120
14784784050
14784793510
14784799492
14784805717
14784812858
14784819389
14784825309
14784831840
14784838310
14784844108
14784849662
14784855522
14784860649
14784866508
14784872367
14784878288
14784884330
14784890190
14784899650
14784905204
14784911857
14784918388
14784925895
14784929984
14784937736
14784943046
14784949699
14784956901
14784963004
14784969535
14784975394
14784981254
14784987052
14784991264
14784996879
14785004020
14785010184
14785016410
14785021781
14785029899
14785037223
14785043449
14785049796
14785054740
14785061271
14785067924
14785073417
14785076591
14785084098
14785090873
14785096732
14785103324
14785107596
14785113944
14785119925
14785125907
14785133353
14785139029
14785146048
14785152518
14785159171
14785164359
14785171683
14785178580
14785184195
14785190787
14785197623
14785204215
14785209220
14785216849
14785221732
14785228446
14785234488
14785241812
14785248831
14785253409
14785259879
14785266654
14785273795
14785278738
14785285452
14785291190
14785297964
14785305167
14785311209
14785318167
14785324332
14785331656
14785337271
14785343008
14785350821
14785356192
14785364126
14785367605
14785375235
14785382864
14785387991
14785395010
14785402456
14785408255
14785415030
14785419912
14785427115
14785433584
14785439566
14785447134
14785451895
14785460134
14785465383
14785470938
14785478506
14785483572
14785490103
14785495962
14785502920
14785508901
14785515005
14785520315
14785528250
14785533987
14785540518
14785546926
14785554067
14785559133
14785565664
14785570852
14785577383
14785582510
14785590932
14785596975
14785602895
14785609548
14785615530
14785621267
14785625722
14785632741
14785638662
14785646474
14785650197
14785657888
14785664113
14785669423
14785674672
14785682668
14785689016
14785695485
14785702260
14785707509
14785714834
14785720021
14785726308
14785732839
14785739309
14785745778
14785750417
14785757924
14785763967
14785769582
14785774099
14785780202
14785786977
14785792104
14785798635
14785803700
14785810903
14785817555
14785823476
14785830068
14785836904
14785841969
14785849721
14785855519
14785861440
14785867604
14785873219
14785878041
14785883229
14785889272
14785894765
14785899892
14785905446
14785910390
14785917348
14785922475
14785927968
14785932973
14785939686
14785944752
14785950734
14785955800
14785962147
14785967579
14785974354
14785978200
14785985768
14785992238
14785998036
14786003712
14786008595
14786014271
14786020070
14786026051
14786030629
14786037403
14786044178
14786049183
14786055043
14786060658
14786066517
14786072254
14786078419
14786084950
14786089833
14786095997
14786100514
14786107044
14786113575
14786119068
14786123829
14786130665
14786137501
14786143543
14786148670
14786154591
14786159596
14786166309
14786171803
14786179188
14786182240
14786190479
14786193592
14786201954
14786205433
14786214405
14786221912
14786228565
14786234058
14786240101
14786246387
14786251148
14786257129
14786264271
14786270008
14786275989
14786281727
14786287769
14786293873
14786300159
14786305774
14786313160
14786318836
14786324634
14786332264
14786336475
14786342884
14786349903
14786355823
14786361072
14786368152
14786375293
14786381092
14786385913
14786392444
14786400257
14786404651
14786412342
14786417102
14786423816
14786430164
14786436206
14786443836
14786449451
14786454639
14786460620
14786467090
14786473560
14786478992
14786486743
14786492786
14786498401
14786504016
14786509387
14786515369
14786522082
14786526721
14786534228
14786539050
14786545947
14786551868
14786557544
14786563525
14786570666
14786577075
14786583911
14786589953
14786594958
14786602282
14786608203
14786614062
14786620959
14786626818
14786632129
14786637805
14786644702
14786649829
14786656665
14786661975
14786669238
14786676440
14786681872
14786688037
14786692309
14786700366
14786705859
14786711901
14786716845
14786725390
14786728747
14786737841
14786743395
14786749499
14786757006
14786761950
14786768603
14786773608
14786780505
14786786364
14786792284
14786802050
14786810656
14786822069
14786827257
14786833361
14786838305
14786845507
14786851488
14786857287
14786863146
14786868761
14786875475
14786881701
14786887560
14786893419
14786900011
14786906603
14786912523
14786918444
14786922960
14786929857
14786937609
14786943895
14786949022
14786955675
14786961657
14786968737
14786974474
14786978990
14786986986
14786992174
14786998461
14787003343
14787010485
14787016222
14787022142
14787029894
14787034227
14787042406
14787047106
14787053392
14787059740
14787065965
14787072130
14787077928
14787084337
14787089220
14787096056
14787102159
14787107957
14787113512
14787121934
14787127061
14787132982
14787138963
14787145067
14787151170
14787157762
14787164964
14787168687
14787177049
14787178819
14787189378
14787194627
14787201097
14787207078
14787212327
14787220140
14787223497
14787232286
14787238145
14787244126
14787250901
14787257615
14787263475
14787268296
14787275010
14787280564
14787289231
14787295579
14787300157
14787307786
14787311936
14787319261
14787324265
14787330796
14787336045
14787343552
14787349595
14787355821
14787361375
14787366990
14787373460
14787379075
14787386948
14787392442
14787398179
14787404343
14787410142
14787416123
14787422410
14787428208
14787434556
14787440598
14787445298
14787452256
14787459580
14787465500
14787471970
14787478135
14787483201
14787488022
14787495652
14787501755
14787507370
14787514084
14787520371
14787526780
14787533615
14787539414
14787544968
14787551865
14787560288
14787564743
14787572434
14787577317
14787583481
14787590012
14787596237
14787601364
14787608261
14787613327
14787620590
14787626206
14787631943
14787637497
14787643723
14787647873
14787656113
14787659409
14787667648
14787674057
14787680222
14787685959
14787691696
14787698593
14787703110
14787709701
14787715927
14787721054
14787726791
14787731491
14787738388
14787745346
14787748886
14787757431
14787760727
14787767563
14787773910
14787779892
14787786972
14787793197
14787798690
14787804428
14787810409
14787816269
14787822006
14787828720
14787835739
14787840744
14787847396
14787851913
14787857650
14787862228
14787869308
14787877059
14787882675
14787885971
14787892867
14787899764
14787906478
14787912887
14787919174
14787925460
14787932052
14787937789
14787944198
14787950057
14787954940
14787960983
14787966964
14787974532
14787979232
14787986678
14787989913
14787997176
14788000350
14788008163
14788017623
14788026046
14788035689
14788043624
14788051436
14788059554
14788069015
14788077681
14788085982
14788094466
14788105574
14788115706
14788124251
14788134078
14788141951
14788154891
14788163802
14788172774
14788182295
14788191268
14788200606
14788211165
14788220015
14788228255
14788238448
14788247969
14788257002
14788266768
14788275374
14788280440
14788296065
14788304793
14788313277
14788323225
14788332442
14788342818
14788352095
14788360884
14788371138
14788380354
14788388228
14788397566
14788405928
14788412886
14788426191
14788433943
14788444502
14788452070
14788460554
14788470747
14788479170
14788488508
14788495161
14788503706
14788513410
14788522444
14788531110
14788540266
14788552045
14788561018
14788569990
14788579572
14788587446
14788597211
14788605573
14788615156
14788622724
14788632856
14788641828
14788650068
14788659284
14788668378
14788677106
14788685834
14788695600
14788702375
14788712384
14788717511
14788724408
14788729535
14788738507
14788742047
14788750348
14788756330
14788761762
14788767560
14788773725
14788779523
14788786115
14788791669
14788797467
14788802838
14788808820
14788814496
14788820050
14788826947
14788831952
14788839215
14788844403
14788851178
14788856183
14788862347
14788867902
14788874615
14788880475
14788886334
14788892743
14788898663
14788904584
14788910687
14788917340
14788922894
14788929059
14788934003
14788939923
14788945477
14788952191
14788956647
14788963116
14788967389
14788973492
14788979229
14788985333
14788989972
14788995343
14789002362
14789008465
14789013043
14789019513
14789024212
14789029889
14789034344
14789041790
14789047894
14789053875
14789059613
14789065045
14789070294
14789075787
14789081585
14789088665
14789094158
14789099652
14789104901
14789110333
14789115765
14789121197
14789127728
14789133892
14789139019
14789145184
14789149883
14789156719
14789162640
14789167217
14789173565
14789180340
14789186504
14789191631
14789197063
14789202495
14789207867
14789213299
14789218853
14789225567
14789229656
14789236492
14789240337
14789247173
14789251262
14789257061
14789263164
14789270305
14789275493
14789282451
14789287395
14789294109
14789298565
14789304973
14789308757
14789315593
14789320110
14789327129
14789333477
14789338848
14789343242
14789350139
14789355754
14789361736
14789368144
14789372356
14789377971
14789383708
14789389018
14789396282
14789403057
14789406658
14789414897
14789420757
14789426128
14789431926
14789437785
14789445049
14789450847
14789456401
14789462444
14789467876
14789473979
14789479594
14789486430
14789492168
14789497050
14789504008
14789508769
14789515422
14789520000
14789527995
14789532512
14789541118
14789546611
14789551982
14789557109
14789562480
14789568156
14789573893
14789581706
14789586894
14789594706
14789598185
14789606852
14789613932
14789620280
14789627116
14789633464
14789640177
14789644999
14789651591
14789656535
14789663737
14789668925
14789676554
14789683207
14789689555
14789695963
14789702250
14789708720
14789714945
14789721415
14789727458
14789733073
14789739237
14789745524
14789751933
14789758463
14789764811
14789770182
14789776163
14789782938
14789787394
14789794352
14789800638
14789806620
14789812479
14789819620
14789824442
14789830607
14789835123
14789841166
14789846659
14789852335
14789858927
14789864481
14789871622
14789877787
14789882914
14789888712
14789894877
14789899393
14789905619
14789911112
14789916544
14789923136
14789929666
14789934915
14789942606
14789949808
14789955606
14789960550
14789965738
14789971964
14789977945
14789983133
14789991129
14789997415
14790003641
14790007242
14790014505
14790021463
14790027933
14790034525
14790041361
14790046610
14790052103
14790057535
14790063333
14790071695
14790076883
14790082864
14790087625
14790095010
14790102273
14790108438
14790114725
14790121072
14790125894
14790130350
14790138040
14790143411
14790148477
14790153299
14790160684
14790164468
14790172281
14790178872
14790184793
14790188516
14790197122
14790200479
14790208108
14790214578
14790221414
14790228006
14790234475
14790239663
14790245828
14790252053
14790258157
14790264321
14790268960
14790275125
14790281106
14790285989
14790292031
14790296609
14790302590
14790308267
14790313943
14790320290
14790325051
14790331887
14790335183
14790341775
14790346413
14790352456
14790359170
14790363564
14790369180
14790375649
14790381203
14790385964
14790390420
14790398659
14790404763
14790409035
14790415078
14790420510
14790425820
14790431557
14790436379
14790442422
14790448037
14790453896
14790459511
14790463906
14790470009
14790476113
14790482033
14790488686
14790493813
14790499428
14790506264
14790511879
14790519875
14790525368
14790533669
14790537209
14790545021
14790552162
14790558388
14790565041
14790571327
14790577797
14790582375
14790590004
14790594521
14790601296
14790607887
14790613381
14790619728
14790625221
14790632057
14790637917
14790645912
14790651833
14790658302
14790664589
14790670998
14790677467
14790683815
14790689735
14790695290
14790701637
14790708778
14790715248
14790721901
14790728493
14790734596
14790740883
14790746925
14790753334
14790758888
14790764076
14790771827
14790777687
14790784095
14790791298
14790797279
14790800819
14790808570
14790813881
14790821815
14790828834
14790835060
14790841651
14790847328
14790852272
14790858070
14790864112
14790870033
14790877296
14790881935
14790888343
14790894325
14790900184
14790907020
14790912818
14790919532
14790924720
14790931068
14790937171
14790942237
14790948829
14790953956
14790961463
14790967017
14790975013
14790981788
14790987708
14790993568
14790999305
14791005469
14791011756
14791015845
14791024817
14791030616
14791036536
14791043555
14791047950
14791054297
14791060706
14791067420
14791072486
14791079261
14791085364
14791091101
14791096717
14791102637
14791109778
14791114356
14791121314
14791126136
14791133094
14791136756
14791146277
14791152808
14791157324
14791163672
14791169898
14791176917
14791181861
14791188819
14791195349
14791200903
14791207007
14791212622
14791219397
14791224158
14791230628
14791238196
14791244177
14791247534
14791255469
14791261999
14791268530
14791274206
14791279394
14791286658
14791291540
14791299353
14791305212
14791310889
14791317847
14791323034
14791329809
14791336279
14791342627
14791348730
14791354468
14791360632
14791366430
14791374182
14791380468
14791386511
14791393103
14791398840
14791403967
14791409765
14791417395
14791423315
14791429968
14791434790
14791441870
14791445349
14791454565
14791460058
14791465795
14791472143
14791478124
14791483251
14791488256
14791495703
14791500707
14791508581
14791511999
14791520361
14791526525
14791532812
14791540014
14791545080
14791552099
14791558935
14791564428
14791570287
14791575719
14791581762
14791586339
14791593969
14791598913
14791606664
14791610448
14791618871
14791623510
14791631444
14791636815
14791643163
14791648839
14791653600
14791660497
14791666723
14791672826
14791679784
14791685949
14791691808
14791696447
14791704442
14791709874
14791715429
14791722936
14791728612
14791735204
14791739904
14791746678
14791752782
14791758580
14791764928
14791770909
14791776769
14791782506
14791788365
14791794652
14791802037
14791807530
14791815709
14791819310
14791826878
14791833226
14791839024
14791844762
14791851476
14791858067
14791863133
14791869542
14791874303
14791881444
14791887913
14791893773
14791900548
14791907017
14791912449
14791918553
14791924718
14791930028
14791936863
14791943272
14791948887
14791955235
14791960972
14791967625
14791973607
14791979222
14791984837
14791993077
14791998326
14792004490
14792010960
14792017430
14792023655
14792029209
14792035923
14792040928
14792048313
14792054783
14792061009
14792066258
14792072605
14792079197
14792084141
14792091709
14792097691
14792103184
14792109776
14792116673
14792121922
14792128147
14792134678
14792139439
14792145786
14792152256
14792157871
14792165073
14792171421
14792176243
14792182468
14792189548
14792192844
14792200046
14792206943
14792212620
14792218601
14792224216
14792229954
14792235996
14792242710
14792247837
14792255710
14792261326
14792267002
14792273716
14792280246
14792285556
14792292331
14792298984
14792302463
14792309970
14792316318
14792321872
14792327732
14792334873
14792341403
14792346286
14792353244
14792359226
14792364902
14792370273
14792376621
14792383273
14792389011
14792395297
14792401523
14792408054
14792411594
14792418796
14792425327
14792432834
14792437350
14792443088
14792449191
14792455600
14792462131
14792465732
14792474216
14792477573
14792485507
14792493136
14792497531
14792505160
14792510287
14792516635
14792521823
14792528659
14792535129
14792540988
14792547091
14792552951
14792560641
14792565829
14792572055
14792577182
14792584628
14792590609
14792596469
14792602267
14792608126
14792615206
14792620333
14792627536
14792630892
14792638644
14792645419
14792651217
14792657504
14792664034
14792669406
14792675753
14792681246
14792688937
14792694674
14792699435
14792706576
14792711581
14792717318
14792723910
14792729342
14792737643
14792741305
14792748995
14792755587
14792761080
14792767550
14792774203
14792780001
14792784945
14792791720
14792797091
14792803255
14792810213
14792814547
14792822542
14792828951
14792834444
14792839327
14792846041
14792851107
14792858065
14792864351
14792870394
14792876375
14792882113
14792888582
14792894564
14792900545
14792906404
14792913362
14792917269
14792926241
14792931734
14792937410
14792944551
14792949922
14792956636
14792961519
14792968721
14792973665
14792980867
14792987215
14792993196
14792996797
14793004793
14793008455
14793016206
14793022920
14793028780
14793034029
14793040193
14793047029
14793053011
14793059175
14793065584
14793072237
14793077180
14793084932
14793090486
14793097566
14793102754
14793110139
14793115083
14793121248
14793126375
14793133455
14793138948
14793146150
14793152620
14793158662
14793162141
14793169465
14793175386
14793181306
14793187776
14793193818
14793199983
14793205964
14793212556
14793218721
14793225984
14793231050
14793239228
14793244050
14793251435
14793256562
14793263093
14793268037
14793275361
14793280793
14793286958
14793292329
14793298921
14793303681
14793309052
14793313752
14793320222
14793326447
14793332368
14793335969
14793344636
14793348054
14793356965
14793363740
14793368134
14793374299
14793380036
14793385651
14793391389
14793397065
14793401826
14793408234
14793415131
14793421601
14793427277
14793434052
14793439362
14793445832
14793450776
14793456330
14793461030
14793467438
14793473114
14793480683
14793486359
14793492768
14793498566
14793505585
14793511689
14793517182
14793520661
14793527558
14793533356
14793539093
14793544586
14793548981
14793555145
14793560822
14793566803
14793571259
14793577240
14793582733
14793588104
14793592621
14793599457
14793603851
14793609711
14793616058
14793621735
14793627167
14793633453
14793639008
14793646515
14793651215
14793657074
14793662323
14793669586
14793673431
14793681793
14793688263
14793695587
14793699493
14793707672
14793714752
14793719635
14793726410
14793732330
14793737762
14793743377
14793749176
14793754486
14793760956
14793767364
14793773773
14793781341
14793786590
14793791412
14793796539
14793802642
14793808807
14793813812
14793819732
14793825408
14793833526
14793839385
14793845855
14793850433
14793856658
14793860137
14793867645
14793872222
14793879363
14793882964
14793890655
14793894988
14793901641
14793905242
14793914275
14793919647
14793927154
14793932891
14793939544
14793946746
14793951141
14793957366
14793963836
14793970061
14793975310
14793982513
14793987639
14793995025
14794000335
14794007232
14794012237
14794017852
14794022490
14794027923
14794032622
14794039092
14794044585
14794051116
14794055327
14794062774
14794066314
14794073394
14794076934
14794084502
14794089629
14794095549
14794100432
14794106658
14794112212
14794118437
14794124663
14794131377
14794137786
14794143706
14794149199
14794153716
14794159941
14794166106
14794171599
14794176177
14794182585
14794189665
14794196135
14794201506
14794208342
14794211943
14794218535
14794223540
14794229765
14794235014
14794242583
14794249297
14794254607
14794261015
14794267607
14794275358
14794280241
14794287138
14794293791
14794300505
14794305449
14794312651
14794319670
14794325651
14794332548
14794338469
14794344023
14794350309
14794355620
14794361662
14794366301
14794372709
14794377104
14794384123
14794389677
14794395597
14794401762
14794408598
14794414457
14794421293
14794426786
14794431120
14794438566
14794445585
14794450834
14794457487
14794462431
14794469084
14794474821
14794479704
14794485075
14794490995
14794495573
14794501615
14794506315
14794511076
14794519193
14794522489
14794531889
14794537748
14794543363
14794548734
14794553251
14794559537
14794566312
14794573026
14794579679
14794586271
14794591642
14794598844
14794606290
14794611478
14794615690
14794621671
14794627775
14794632902
14794639737
14794645902
14794651273
14794657560
14794662259
14794667508
14794672269
14794679105
14794682645
14794689786
14794696683
14794703031
14794709745
14794716275
14794721463
14794728238
14794734159
14794740201
14794746060
14794752225
14794758084
14794764432
14794770963
14794776151
14794783292
14794790677
14794796536
14794801419
14794807889
14794812833
14794818448
14794823514
14794830106
14794835355
14794841275
14794846097
14794852750
14794856351
14794863309
14794869168
14794875088
14794881680
14794888150
14794894620
14794901150
14794907376
14794913724
14794919156
14794925442
14794931119
14794937832
14794944424
14794949429
14794958889
14794963894
14794971341
14794976345
14794983487
14794988552
14794995694
14795000759
14795009182
14795016018
14795022305
14795029080
14795035427
14795040676
14795047268
14795052395
14795057095
14795064114
14795070339
14795078091
14795083828
14795088772
14795095486
14795101589
14795108242
14795112392
14795120388
14795126247
14795131863
14795137722
14795143887
14795150295
14795154934
14795162624
14795167507
14795174404
14795178005
14795185940
14795189419
14795197658
14795204860
14795211269
14795215847
14795222255
14795227627
14795232448
14795239650
14795246792
14795252590
14795258632
14795264919
14795270534
14795276455
14795282009
14795290554
14795296291
14795303066
14795308803
14795315090
14795321010
14795327297
14795332485
14795339809
14795343410
14795352321
14795358241
14795363674
14795369289
14795375942
14795381923
14795386928
14795393703
14795398891
14795406154
14795413539
14795419399
14795427272
14795432277
14795439052
14795443935
14795450648
14795457301
14795463405
14795470180
14795476527
14795481898
14795487086
14795494166
14795497706
14795506434
14795513698
14795519679
14795527430
14795534327
14795540309
14795545314
14795552272
14795557277
14795564967
14795568690
14795576381
14795581446
14795589442
14795592921
14795601466
14795605738
14795612269
14795619166
14795624964
14795631068
14795635646
14795641871
14795647914
14795655421
14795659998
14795667140
14795673548
14795680079
14795687098
14795693629
14795698390
14795705103
14795711878
14795718165
14795723475
14795730189
14795735682
14795743006
14795748682
14795755640
14795760767
14795767237
14795772242
14795779871
14795783411
14795791041
14795797754
14795803614
14795809412
14795815333
14795821192
14795827112
14795833277
14795840113
14795845911
14795850672
14795857874
14795864710
14795870203
14795877039
14795884119
14795889307
14795894617
14795899256
14795906519
14795912317
14795919031
14795924890
14795931909
14795939722
14795945642
14795949121
14795956323
14795960291
14795966577
14795972131
14795978235
14795984888
14795991296
14795997400
14796002832
14796007898
14796013513
14796019067
14796023767
14796031396
14796036584
14796044214
14796050012
14796055994
14796063013
14796068994
14796074670
14796081201
14796086023
14796093530
14796097070
14796104028
14796107385
14796114526
14796120508
14796126062
14796130822
14796136560
14796142236
14796148278
14796153161
14796159692
14796167382
14796172265
14796179345
14796184045
14796190332
14796197351
14796204126
14796209069
14796215661
14796220178
14796225793
14796230798
14796237878
14796243371
14796249536
14796255151
14796261865
14796268273
14796274865
14796281152
14796287438
14796292809
14796299584
14796306481
14796312951
14796318749
14796325341
14796332421
14796337914
14796345299
14796350915
14796357629
14796363793
14796368859
14796373681
14796379479
14796384179
14796389794
14796395592
14796402367
14796407311
14796413720
14796418603
14796424584
14796429467
14796436913
14796443139
14796448266
14796455651
14796460778
14796467980
14796474572
14796481285
14796486595
14796493126
14796497765
14796504174
14796509056
14796517296
14796522606
14796529625
14796536644
14796541893
14796546593
14796552941
14796557762
14796564171
14796569847
14796577110
14796582420
14796590050
14796595848
14796601524
14796606407
14796612206
14796617882
14796624046
14796629723
14796636253
14796643028
14796648277
14796655174
14796661705
14796668663
14796673851
14796680931
14796685631
14796691551
14796698082
14796704063
14796710899
14796717003
14796722923
14796729881
14796733482
14796740074
14796745689
14796751365
14796754966
14796761802
14796768882
14796773826
14796780601
14796787132
14796792442
14796797935
14796803245
14796809410
14796816612
14796821922
14796828208
14796834800
14796842063
14796847495
14796853904
14796860984
14796867027
14796871726
14796879600
14796884849
14796891929
14796896079
14796903587
14796908164
14796915305
14796918723
14796925864
14796931541
14796937217
14796942832
14796948875
14796953940
14796960410
14796966819
14796973411
14796979880
14796986350
14796991599
14796997703
14797002646
14797008445
14797014365
14797018882
14797025779
14797030295
14797037314
14797042197
14797049277
14797056296
14797062888
14797068442
14797075156
14797080466
14797086264
14797091208
14797098105
14797103720
14797112082
14797116294
14797123984
14797127646
14797135337
14797142966
14797147849
14797153830
14797160544
14797167136
14797173666
14797179831
14797186362
14797191855
14797196616
14797204733
14797210410
14797217856
14797223593
14797229697
14797235251
14797242270
14797247275
14797254111
14797257590
14797264242
14797268942
14797276083
14797281271
14797286947
14797292990
14797298422
14797303305
14797308676
14797313315
14797319174
14797325216
14797329611
14797335409
14797341208
14797346762
14797352804
14797358908
14797365561
14797371542
14797376364
14797383566
14797388205
14797393820
14797399923
14797405233
14797410116
14797417135
14797422628
14797429891
14797435018
14797442159
14797447958
14797452352
14797458883
14797464315
14797468343
14797474813
14797481344
14797487875
14797494527
14797499776
14797507589
14797512533
14797518819
14797524862
14797530538
14797536153
14797540853
14797546651
14797553854
14797559103
14797565267
14797571371
14797576375
14797581014
14797587484
14797592306
14797598653
14797604268
14797610006
14797613668
14797621663
14797625081
14797633992
14797638448
14797647481
14797650777
14797660360
14797667134
14797671651
14797677571
14797683858
14797689962
14797696187
14797701375
14797707906
14797714131
14797720662
14797727742
14797733296
14797740621
14797745503
14797751241
14797757283
14797762654
14797767476
14797773702
14797778890
14797785481
14797790242
14797795674
14797800374
14797806294
14797811177
14797817830
14797824971
14797831563
14797836201
14797843709
14797850911
14797857014
14797862385
14797868794
14797874776
14797881611
14797888020
14797893269
14797900471
14797905659
14797912251
14797919209
14797924397
14797930562
14797935994
14797940571
14797946553
14797951252
14797957417
14797962361
14797969807
14797973774
14797980915
14797986409
14797991902
14797995381
14798002217
14798005879
14798015522
14798021565
14798028095
14798034138
14798040547
14798047444
14798052570
