15108553363
15108558428
15108564715
15108570696
15108578082
15108582903
15108589495
15108596270
15108602862
15108610796
15108618487
15108625506
15108632647
15108638750
15108645770
15108653094
15108661394
15108668536
15108676653
15108683245
15108689532
15108697893
15108704241
15108711443
15108718584
15108725970
15108731768
15108737566
15108745257
15108753557
15108761065
15108768084
15108775469
15108781145
15108790178
15108797930
15108804277
15108810930
15108818376
15108824297
15108830828
15108839617
15108847490
15108852922
15108860491
15108868059
15108874651
15108882341
15108888994
15108896929
15108905046
15108910906
15108920061
15108926958
15108934404
15108941911
15108950151
15108957536
15108963396
15108971391
15108979509
15108986162
15108993242
15109000566
15109005388
15109014421
15109022844
15109030107
15109035722
15109043962
15109050065
15109058915
15109066667
15109073808
15109081315
15109087236
15109094499
15109103288
15109112870
15109119645
15109126359
15109134294
15109141252
15109147721
15109155595
15109162553
15109173173
15109179399
15109186723
15109193559
15109200334
15109209672
15109219376
15109226457
15109233476
15109240861
15109247453
15109253373
15109262406
15109266862
15109274674
15109282792
15109289994
15109296525
15109303055
15109310258
15109317216
15109325089
15109332169
15109339921
15109347245
15109352616
15109361466
15109368058
15109375870
15109382340
15109391922
15109401078
15109406815
15109418106
15109424149
15109432144
15109439957
15109447953
15109453812
15109461502
15109470047
15109478592
15109487015
15109494339
15109500992
15109508377
15109514053
15109523148
15109530106
15109540115
15109548355
15109555557
15109562881
15109568985
15109577835
15109585892
15109593460
15109600479
15109607132
15109615738
15109622330
15109630935
15109638077
15109647537
15109653885
15109662857
15109670303
15109680984
15109689224
15109697647
15109705764
15109714492
15109722610
15109729263
15109736892
15109746658
15109757339
15109766189
15109773025
15109781997
15109791763
15109798415
15109807327
15109813857
15109823074
15109830337
15109838027
15109846084
15109854934
15109862014
15109872146
15109878677
15109890945
15109900161
15109907119
15109917251
15109925551
15109933059
15109943252
15109950576
15109960708
15109969558
15109978041
15109988173
15109994582
15110005751
15110013686
15110021804
15110030348
15110040114
15110046096
15110059523
15110065383
15110076491
15110085036
15110095229
15110098830
15110110732
15110117995
15110126967
15110134169
15110143385
15110151442
15110161757
15110168715
15110178297
15110184584
15110193068
15110200392
15110207167
15110216200
15110223036
15110232557
15110240309
15110249708
15110259413
15110266188
15110274794
15110282057
15110289320
15110299635
15110308912
15110315687
15110322889
15110331617
15110338209
15110346998
15110353834
15110362867
15110371961
15110378919
15110385633
15110394911
15110401746
15110409803
15110419813
15110428602
15110437513
15110444837
15110453260
15110459791
15110466749
15110478406
15110488355
15110496107
15110505689
15110513074
15110518140
15110530164
15110536084
15110546460
15110555616
15110563550
15110572889
15110580640
15110590528
15110600171
15110608838
15110619153
15110628797
15110636243
15110646619
15110656079
15110664441
15110674024
15110680798
15110688428
15110697827
15110705701
15110713391
15110721631
15110728894
15110737805
15110746960
15110754407
15110762768
15110770459
15110777356
15110784558
15110791394
15110799878
15110807263
15110816052
15110824658
15110832654
15110840161
15110847424
15110856274
15110865307
15110874463
15110881970
15110891674
15110901867
15110910656
15110920971
15110929699
15110939282
15110947888
15110956372
15110963024
15110972546
15110980847
15110990185
15110998242
15111007946
15111015759
15111024975
15111033215
15111040050
15111051037
15111058788
15111067760
15111077282
15111084911
15111092113
15111100475
15111109203
15111115612
15111125561
15111131908
15111138988
15111147960
15111156261
15111163707
15111173168
15111181347
15111188488
15111195568
15111200756
15111208995
15111214489
15111222972
15111228282
15111234569
15111241466
15111246898
15111254405
15111259776
15111266612
15111272594
15111278453
15111285045
15111292064
15111297923
15111303478
15111310313
15111316051
15111321971
15111327586
15111335765
15111342418
15111349376
15111353282
15111361156
15111366893
15111374095
15111380504
15111385020
15111391246
15111397471
15111402659
15111407115
15111414439
15111419322
15111425181
15111432261
15111437999
15111443797
15111450328
15111457164
15111463328
15111469066
15111475596
15111481028
15111487803
15111493357
15111499156
15111504527
15111513011
15111517039
15111524974
15111528636
15111536265
15111540049
15111547007
15111553538
15111558421
15111565318
15111571543
15111575266
15111582957
15111589915
15111596079
15111600718
15111607066
15111613596
15111619639
15111625986
15111630503
15111636179
15111642039
15111647654
15111654490
15111661997
15111667429
15111675242
15111680552
15111688120
15111693979
15111700022
15111707102
15111713267
15111718455
15111724070
15111730784
15111735361
15111740305
15111746897
15111752817
15111758493
15111763559
15111770090
15111774973
15111781748
15111785410
15111792307
15111796213
15111803720
15111807260
15111814646
15111818186
15111825693
15111829294
15111837473
15111844431
15111849924
15111855478
15111863046
15111869516
15111876230
15111882333
15111889230
15111894479
15111900949
15111907724
15111914377
15111919687
15111926279
15111932626
15111939706
15111945749
15111951791
15111957529
15111963510
15111969003
15111974985
15111981271
15111987741
15111995004
15111999948
15112007394
15112012460
15112019845
15112023385
15112032785
15112042672
15112047494
15112053964
15112060251
15112066415
15112071786
15112079293
15112083322
15112090890
15112095102
15112102853
15112109201
15112115670
15112121469
15112128182
15112134286
15112138864
15112146249
15112149667
15112158517
15112164315
15112170541
15112176949
15112183480
15112188851
15112193917
15112201791
15112207833
15112213815
15112221383
15112226144
15112233712
15112238900
15112244881
15112249825
15112257516
15112264657
15112270516
15112276681
15112282296
15112289315
15112293526
15112300789
15112306222
15112313790
15112317452
15112325387
15112333199
15112340584
15112346016
15112353035
15112359444
15112364937
15112372322
15112381844
15112389351
15112394234
15112402108
15112408150
15112415291
15112421089
15112426399
15112432198
15112438729
15112445381
15112452339
15112456490
15112463387
15112470345
15112476631
15112482124
15112488472
15112495003
15112500923
15112507271
15112511787
15112519173
15112523750
15112530220
15112536873
15112542854
15112549568
15112555733
15112561043
15112567024
15112573860
15112579780
15112586738
15112592293
15112597297
15112604317
15112609443
15112616707
15112622200
15112628608
15112633918
15112640876
15112646125
15112652839
15112657966
15112664558
15112669563
15112676216
15112681648
15112687812
15112692695
15112699348
15112704353
15112711738
15112717781
15112723945
15112727668
15112735298
15112738838
15112747199
15112754096
15112760078
15112765693
15112771797
15112778571
15112785041
15112791999
15112798408
15112804023
15112810188
15112816047
15112821723
15112828864
15112833808
15112841682
15112847175
15112854072
15112858955
15112866340
15112872382
15112878425
15112884894
15112891181
15112898444
15112904853
15112910346
15112917182
15112923896
15112930182
15112936408
15112942634
15112948249
15112952948
15112960517
15112966681
15112974006
15112979316
15112985419
15112991584
15112996466
15113003424
15113010138
15113015998
15113022162
15113027960
15113034613
15113040656
15113045661
15113052130
15113058722
15113064459
15113070075
15113076972
15113082587
15113088690
15113095892
15113101325
15113107794
15113114203
15113119574
15113126105
15113132819
15113139105
15113145087
15113149664
15113157049
15113163275
15113170294
15113174933
15113181647
15113188788
15113194525
15113200506
15113206549
15113212103
15113218390
15113224432
15113229864
15113238531
15113244146
15113250189
15113255926
15113262640
15113267523
15113274298
15113281134
15113287847
15113293646
15113299505
15113305365
15113311041
15113317816
15113325689
15113330572
15113337225
15113342840
15113349066
15113355901
15113361883
15113367620
15113374029
15113379827
15113385992
15113391485
15113398748
15113405157
15113411565
15113417486
15113423528
15113429143
15113436224
15113441106
15113448125
15113455755
15113461492
15113467473
15113473638
15113480474
15113484991
15113492071
15113497564
15113504583
15113511480
15113517705
15113523870
15113529485
15113536687
15113541326
15113549566
15113555791
15113561345
15113569036
15113573552
15113580754
15113587590
15113593145
15113599980
15113604802
15113613164
15113619390
15113625920
15113631902
15113638066
15113644902
15113650823
15113656621
15113663884
15113670476
15113676457
15113683110
15113688420
15113694341
15113700688
15113706792
15113714848
15113720708
15113726567
15113732365
15113738896
15113744755
15113750493
15113758061
15113764226
15113770634
15113776921
15113782475
15113789128
15113795476
15113802006
15113808049
15113813176
15113820073
15113825871
15113832219
15113840764
15113846074
15113853642
15113858220
15113864445
15113870793
15113877140
15113884587
15113891789
15113898197
15113904423
15113910282
15113916569
15113924565
15113930119
15113936955
15113943180
15113948673
15113955204
15113962162
15113969608
15113977360
15113982487
15113990788
15113997196
15114002201
15114009586
15114016422
15114021915
15114029484
15114035465
15114041874
15114048283
15114052982
15114062321
15114068912
15114076908
15114083744
15114091373
15114098392
15114104679
15114110599
15114117923
15114124393
15114130863
15114137882
15114143619
15114149784
15114153873
15114161502
15114168705
15114175113
15114181705
15114189090
15114195072
15114200443
15114206363
15114214420
15114221683
15114226016
15114233035
15114239993
15114247684
15114253726
15114260928
15114266910
15114274844
15114280704
15114287662
15114294132
15114300906
15114307620
15114314883
15114320499
15114326358
15114333682
15114341251
15114347598
15114352603
15114358523
15114365359
15114372500
15114378482
15114384524
15114389712
15114397037
15114403689
15114411746
15114416690
15114424807
15114432071
15114439883
15114445681
15114453799
15114460391
15114467044
15114473696
15114479434
15114486392
15114490908
15114497317
15114504153
15114509097
15114516848
15114524111
15114530642
15114538027
15114544802
15114550051
15114557681
15114565737
15114573000
15114580019
15114586428
15114592776
15114598696
15114604983
15114611025
15114617251
15114624636
15114630801
15114637942
15114643618
15114649843
15114657839
15114664614
15114670779
15114677798
15114685549
15114691714
15114698610
15114705385
15114712099
15114718203
15114721804
15114731264
15114736574
15114743166
15114748903
15114756289
15114760866
15114768923
15114774660
15114780275
15114788088
15114794741
15114798647
15114806459
15114811830
15114820192
15114826296
15114831850
15114838320
15114845094
15114851869
15114859499
15114865541
15114871828
15114879091
15114884584
15114890260
15114897462
15114905824
15114912172
15114919374
15114926576
15114932436
15114937990
15114944215
15114952638
15114958009
15114963991
15114971803
15114978639
15114985170
15114992433
15114999391
15115004213
15115011110
15115019594
15115025026
15115031251
15115038270
15115043824
15115051881
15115058656
15115065004
15115070924
15115075929
15115082643
15115089967
15115097535
15115104127
15115110841
15115115663
15115124146
15115130006
15115136964
15115142579
15115150025
15115156617
15115162171
15115168763
15115175965
15115182740
15115189149
15115195008
15115202454
15115208375
15115214661
15115221192
15115228272
15115234986
15115241883
15115249146
15115254517
15115259888
15115267518
15115273865
15115280335
15115288331
15115294007
15115300293
15115305420
15115312745
15115319947
15115326111
15115331971
15115339173
15115344422
15115352051
15115357483
15115363892
15115371216
15115377442
15115384461
15115392090
15115399048
15115405335
15115413208
15115420044
15115424805
15115431763
15115438111
15115444824
15115452393
15115458923
15115464478
15115472107
15115477234
15115484436
15115489868
15115496948
15115504578
15115511108
15115517334
15115523376
15115529785
15115535705
15115541565
15115549438
15115555969
15115561279
15115569092
15115576660
15115581909
15115588562
15115593261
15115601074
15115608093
15115613891
15115621216
15115627563
15115635132
15115641174
15115646728
15115654296
15115660522
15115667968
15115673034
15115679687
15115687255
15115693237
15115699829
15115706298
15115713378
15115718688
15115723754
15115731262
15115738891
15115743652
15115751708
15115757812
15115763366
15115769836
15115776122
15115782714
15115790221
15115795348
15115801452
15115809753
15115814635
15115822204
15115828429
15115834960
15115840209
15115848388
15115854858
15115860107
15115867309
15115873046
15115880126
15115886413
15115892455
15115899108
15115904174
15115911254
15115917907
15115923339
15115931823
15115938414
15115944396
15115952391
15115958434
15115964598
15115971312
15115979125
15115985106
15115992308
15115998290
15116003966
15116009154
15116017027
15116023924
15116029540
15116035216
15116040099
15116046629
15116053099
15116059081
15116065245
15116069884
15116077818
15116081114
15116087645
15116095091
15116099669
15116108092
15116112669
15116117613
15116125120
15116130064
15116137450
15116144041
15116150023
15116155516
15116162047
15116167967
15116173826
15116180296
15116187315
15116193113
15116198485
15116205137
15116211363
15116216612
15116225035
15116231688
15116236753
15116245848
15116256834
15116275145
15116292539
15116310789
15116327452
15116341245
15116355161
15116368162
15116383237
15116397886
15116411619
15116425962
15116440061
15116455198
15116468931
15116483518
15116496946
15116505857
15116515256
15116524534
15116539243
15116550290
15116564328
15116577024
15116589475
15116602597
15116612363
15116618894
15116625730
15116632504
15116638425
15116645200
15116652219
15116659177
15116665585
15116671384
15116677976
15116683225
15116689999
15116697018
15116702939
15116709042
15116717221
15116723996
15116729123
15116734677
15116742612
15116748044
15116754269
15116760312
15116765988
15116772702
15116779294
15116784543
15116792355
15116799008
15116805050
15116809933
15116816647
15116821896
15116829403
15116836789
15116841671
15116848629
15116855038
15116860836
15116866391
15116875119
15116880612
15116887631
15116892391
15116899594
15116904232
15116911251
15116918575
15116924923
15116931027
15116936825
15116943295
15116947933
15116954586
15116961483
15116967587
15116974056
15116979733
15116985775
15116991512
15116996944
15117004269
15117011532
15117016720
15117023189
15117027950
15117034786
15117041500
15117047176
15117053646
15117058346
15117064815
15117070370
15117077266
15117081539
15117087887
15117094539
15117102047
15117107845
15117113399
15117119075
15117124569
15117129635
15117135555
15117142513
15117149044
15117154598
15117160640
15117165706
15117171932
15117177852
15117185787
15117191829
15117197383
15117203365
15117210323
15117214534
15117221797
15117226924
15117234615
15117240779
15117246456
15117252864
15117259029
15117265315
15117271419
15117278804
15117285762
15117291438
15117298152
15117302303
15117309322
15117314998
15117322627
15117328914
15117334468
15117337703
15117345576
15117351741
15117358027
15117365352
15117371943
15117376887
15117382869
15117389583
15117395015
15117400691
15117408870
15117414973
15117420405
15117425959
15117431941
15117437922
15117443965
15117449275
15117457026
15117463252
15117469050
15117475093
15117481135
15117487117
15117493647
15117500300
15117506404
15117512629
15117517390
15117525446
15117531977
15117538447
15117544734
15117550776
15117557978
15117564753
15117570368
15117577143
15117582819
15117590998
15117597529
15117604792
15117611018
15117617365
15117624567
15117629938
15117636591
15117642878
15117648737
15117655390
15117662043
15117668818
15117674860
15117681574
15117689142
15117694636
15117701655
15117707636
15117714228
15117720758
15117726557
15117732660
15117738276
15117744928
15117750971
15117756586
15117762079
15117769953
15117776178
15117782038
15117785272
15117794672
15117799555
15117806391
15117813410
15117819818
15117825311
15117829828
15117836176
15117840936
15117848993
15117855280
15117861566
15117867365
15117873041
15117878839
15117884576
15117890802
15117897394
15117904962
15117908807
15117917230
15117922601
15117927972
15117931146
15117939020
15117945917
15117952447
15117958368
15117963251
15117970514
15117974969
15117981500
15117988153
15117994012
15117999749
15118005487
15118012445
15118018853
15118024163
15118030206
15118036615
15118042352
15118048639
15118055230
15118062371
15118068048
15118075555
15118081964
15118085748
15118093377
15118096795
15118104608
15118111077
15118118218
15118122979
15118129388
15118135064
15118140069
15118146844
15118152154
15118159905
15118163384
15118171624
15118177911
15118183648
15118189385
15118194878
15118200372
15118207879
15118213677
15118220025
15118225457
15118232110
15118236993
15118242364
15118250298
15118256524
15118262322
15118267205
15118273186
15118278985
15118284600
15118290947
15118297661
15118304070
15118311272
15118316460
15118319817
15118327691
15118334404
15118339898
15118346367
15118353630
15118358879
15118364861
15118370537
15118375786
15118381096
15118388726
15118394402
15118400078
15118406792
15118412773
15118418572
15118423577
15118431450
15118434807
15118442558
15118446404
15118452995
15118459282
15118465324
15118470818
15118476860
15118483269
15118487907
15118494743
15118500664
15118506950
15118514885
15118519890
15118526909
15118533867
15118540153
15118545830
15118550773
15118559257
15118565422
15118571281
15118576835
15118581108
15118589287
15118596000
15118601860
15118608329
15118613212
15118620903
15118626457
15118634391
15118639762
15118645988
15118652519
15118659233
15118666069
15118670768
15118678642
15118685905
15118691581
15118698295
15118704582
15118709953
15118717826
15118725822
15118730949
15118738883
15118744376
15118749259
15118757865
15118765617
15118770683
15118779655
15118785514
15118791679
15118798209
15118805350
15118811881
15118820121
15118826469
15118832023
15118839591
15118845939
15118851615
15118858024
15118862906
15118870841
15118877494
15118883841
15118889823
15118896293
15118901542
15118906730
15118914054
15118920707
15118927176
15118933097
15118938773
15118944449
15118950003
15118956046
15118963370
15118968375
15118974539
15118980948
15118986014
15118993521
15118999808
15119006217
15119012198
15119017935
15119023551
15119030081
15119037100
15119041556
15119048819
15119053946
15119060416
15119063956
15119072134
15119077261
15119084830
15119090750
15119096670
15119102957
15119107413
15119114127
15119118582
15119125540
15119130545
15119137381
15119143912
15119149588
15119154349
15119160208
15119165091
15119172903
15119176565
15119185415
15119191885
15119197622
15119203848
15119208120
15119214895
15119219473
15119226370
15119232962
15119238394
15119243216
15119250174
15119255606
15119261404
15119268118
15119274893
15119281240
15119285757
15119292654
15119297048
15119304067
15119308828
15119315420
15119321523
15119327627
15119332510
15119339468
15119342947
15119350393
15119356680
15119363027
15119366201
15119375051
15119380972
15119387136
15119392934
15119397695
15119404165
15119410940
15119416677
15119421621
15119428762
15119434865
15119440725
15119445608
15119452199
15119458486
15119464345
15119469838
15119475881
15119481557
15119486074
15119492605
15119498342
15119506093
15119511708
15119519094
15119522634
15119530141
15119533559
15119541127
15119547658
15119554006
15119560475
15119564931
15119571096
15119577260
15119582875
15119588185
15119594655
15119599599
15119608449
15119613332
15119620595
15119626576
15119633595
15119639333
15119645985
15119652394
15119656911
15119663869
15119668568
15119675343
15119681630
15119688100
15119693105
15119699818
15119706105
15119712514
15119718434
15119724660
15119730214
15119735890
15119741871
15119746632
15119754933
15119759327
15119765919
15119771412
15119778737
15119782399
15119790089
15119795887
15119802296
15119809315
15119815663
15119821522
15119825856
15119831532
15119837269
15119844715
15119849598
15119855946
15119862294
15119868397
15119873707
15119882069
15119885609
15119892811
15119899769
15119906300
15119912525
15119918141
15119923084
15119928761
15119934925
15119941761
15119948231
15119953297
15119959950
15119965748
15119971851
15119975513
15119984180
15119989490
15119995594
15120002735
15120007252
15120013050
15120018726
15120024280
15120030567
15120037037
15120044056
15120048816
15120053577
15120060352
15120066456
15120072315
15120078907
15120085804
15120090687
15120097339
15120103504
15120109302
15120115406
15120121509
15120126697
15120132679
15120139576
15120144519
15120151172
15120156909
15120163196
15120169239
15120176074
15120181629
15120187915
15120195239
15120199756
15120206226
15120212268
15120217944
15120224841
15120232044
15120235523
15120242297
15120247119
15120253772
15120260120
15120266895
15120273914
15120280200
15120285693
15120290698
15120298450
15120304004
15120309985
15120317432
15120323474
15120328723
15120333850
15120342273
15120345813
15120354541
15120356494
15120365039
15120368457
15120377368
15120384509
15120389270
15120397143
15120402270
15120408557
15120413318
15120419543
15120424975
15120432483
15120438342
15120444323
15120450488
15120456408
15120462939
15120467944
15120475146
15120481738
15120488268
15120493395
15120501147
15120508349
15120514636
15120520129
15120525256
15120535082
15120541186
15120547228
15120554797
15120559985
15120567431
15120574328
15120580126
15120586901
15120591662
15120598437
15120604540
15120612231
15120615404
15120624316
15120631212
15120635790
15120642077
15120648058
15120652941
15120657213
15120663683
15120671129
15120677599
15120683764
15120689562
15120694567
15120698046
15120706408
15120713610
15120718859
15120725695
15120729174
15120736681
15120742052
15120747789
15120754381
15120760363
15120765184
15120769640
15120777635
15120783312
15120788072
15120794420
15120801134
15120806749
15120812975
15120818834
15120823229
15120829088
15120835436
15120841478
15120846971
15120853380
15120859422
15120864061
15120871141
15120876146
15120881761
15120887559
15120893114
15120898668
15120903795
15120909471
15120916673
15120922838
15120927720
15120932786
15120939195
15120944932
15120950303
15120957933
15120962938
15120970811
15120977769
15120982469
15120992540
15120999681
15121006028
15121014573
15121021653
15121026414
15121034593
15121041062
15121048143
15121054246
15121062852
15121069749
15121073350
15121080796
15121087815
15121095384
15121103745
15121110581
15121117356
15121123948
15121129014
15121136094
15121141709
15121148545
15121152818
15121161790
15121167893
15121173997
15121178818
15121184617
15121190720
15121195237
15121201035
15121207200
15121212876
15121218857
15121224412
15121229661
15121236008
15121240830
15121246018
15121250718
15121256821
15121261704
15121267380
15121272263
15121279221
15121282822
15121289963
15121296189
15121302475
15121308945
15121315598
15121321152
15121327805
15121334519
15121340073
15121344590
15121350571
15121356736
15121361252
15121366806
15121372544
15121378525
15121384201
15121390061
15121394760
15121401779
15121406540
15121413071
15121420334
15121427231
15121433151
15121437668
15121444077
15121449692
15121454514
15121460983
15121465866
15121472519
15121476120
15121482529
15121488327
15121496078
15121501511
15121509323
15121516159
15121521469
15121526840
15121534897
15121540756
15121546798
15121551559
15121557358
15121563095
15121568832
15121573654
15121579696
15121585922
15121592819
15121598312
15121604965
15121611435
15121618026
15121623397
15121630111
15121636825
15121641220
15121647201
15121653305
15121657943
15121664596
15121669479
15121675765
15121681869
15121688827
15121694686
15121700179
15121706588
15121711898
15121720016
15121724532
15121732955
15121738509
15121744430
15121749252
15121755965
15121759567
15121767318
15121773544
15121780685
15121786361
15121792220
15121798385
15121804488
15121809493
15121815230
15121821029
15121825301
15121831283
15121835616
15121841598
15121848250
15121855147
15121860702
15121867537
15121874434
15121880660
15121887496
15121893172
15121898665
15121904647
15121911666
15121916610
15121922896
15121928389
15121933150
15121939131
15121944380
15121953841
15121957869
15121964461
15121969222
15121980391
15121986495
15121993208
15121999556
15122004378
15122010909
15122015303
15122021407
15122027693
15122032820
15122039351
15122045149
15122050154
15122055708
15122060469
15122066878
15122071761
15122081221
15122087813
15122093428
15122100386
15122106184
15122111799
15122117659
15122123640
15122128096
15122135115
15122140242
15122148420
15122153547
15122158980
15122165022
15122170149
15122176375
15122181440
15122187605
15122192854
15122197920
15122204756
15122210249
15122217451
15122223188
15122230574
15122235456
15122243635
15122249189
15122255903
15122259626
15122267134
15122274336
15122281904
15122287458
15122293379
15122299421
15122305341
15122311628
15122318281
15122324812
15122330427
15122336713
15122343855
15122350263
15122357099
15122363386
15122368452
15122374677
15122380781
15122388715
15122394819
15122401655
15122409040
15122415204
15122418928
15122426618
15122432599
15122438276
15122443159
15122448713
15122454694
15122460370
15122462323
15122471540
15122477704
15122483869
15122490216
15122494977
15122501081
15122507184
15122513288
15122517865
15122523908
15122529828
15122534894
15122539228
15122546125
15122551007
15122556378
15122562360
15122569684
15122575177
15122579877
15122584821
15122591168
15122595929
15122603009
15122606732
15122613385
15122616803
15122624127
15122629620
15122635785
15122642072
15122648541
15122654034
15122660626
15122666180
15122671918
15122678326
15122682782
15122688946
15122694989
15122700299
15122706830
15122712140
15122716839
15122724713
15122729596
15122736554
15122744366
15122750836
15122755536
15122761517
15122766278
15122772992
15122777813
15122784344
15122790387
15122797894
15122803570
15122809063
15122814862
15122820355
15122826153
15122832135
15122838177
15122844158
15122850384
15122856243
15122861370
15122867779
15122873455
15122879070
15122885540
15122892132
15122897686
15122903484
15122909344
15122914837
15122921002
15122928448
15122932903
15122938885
15122944988
15122952251
15122956829
15122963360
15122970013
15122975506
15122981792
15122988262
15122993145
15122999309
15123003826
15123009991
15123015789
15123022381
15123028545
15123034466
15123040569
15123046489
15123052593
15123059307
15123065227
15123071453
15123077251
15123083355
15123089946
15123095867
15123101726
15123108562
15123117412
15123124187
15123130168
15123135356
15123141460
15123146282
15123151531
15123159709
15123162883
15123170574
15123177165
15123183269
15123189128
15123194255
15123201640
15123208171
15123213542
15123218730
15123224468
15123230998
15123237590
15123243633
15123249736
15123254741
15123261028
15123266582
15123271648
15123278300
15123285808
15123290813
15123296672
15123302898
15123308757
15123314616
15123321818
15123328532
15123333720
15123340129
15123345988
15123352580
15123358500
15123366252
15123372111
15123375895
15123384013
15123389628
15123395976
15123403605
15123409770
15123415080
15123422160
15123426615
15123433879
15123440348
15123447062
15123454020
15123459696
15123465068
15123470927
15123477885
15123484782
15123491679
15123496989
15123502726
15123508524
15123514506
15123521403
15123528849
15123534159
15123538432
15123545695
15123550761
15123558451
15123564616
15123569071
15123576212
15123583170
15123588908
15123595560
15123601847
15123608011
15123613505
15123620280
15123625467
15123631571
15123637186
15123644449
15123651468
15123656595
15123664408
15123668924
15123676004
15123682169
15123688150
15123693888
15123699930
15123706217
15123711222
15123717142
15123724466
15123730448
15123735514
15123741983
15123746256
15123753397
15123759561
15123765238
15123771890
15123775186
15123783731
15123789835
15123796182
15123803934
15123809915
15123815592
15123821695
15123827737
15123834512
15123840921
15123846964
15123853983
15123859415
15123866006
15123871072
15123878030
15123885477
15123892068
15123897195
15123903299
15123909158
15123915079
15123923318
15123931131
15123936807
15123941263
15123948587
15123954080
15123961892
15123969034
15123974954
15123980081
15123986428
15123991861
15123997903
15124003884
15124011575
15124016946
15124021035
15124028176
15124034768
15124040872
15124046243
15124053811
15124059060
15124065042
15124070779
15124076150
15124083352
15124090981
15124096597
15124100747
15124108010
15124114663
15124120889
15124125832
15124133584
15124138955
15124145730
15124150063
15124156838
15124164529
15124170693
15124176858
15124181802
15124189004
15124194009
15124201272
15124210000
15124215127
15124220437
15124227517
15124233986
15124240395
15124245766
15124252968
15124259194
15124262307
15124270424
15124276589
15124282692
15124287880
15124292519
15124300454
15124306252
15124311501
15124316994
15124322304
15124330361
15124336464
15124342201
15124348183
15124354592
15124360329
15124367104
15124374611
15124379921
15124385719
15124391823
15124398354
15124403359
15124411171
15124418312
15124424843
15124429970
15124435951
15124441566
15124448097
15124454872
15124459877
15124466164
15124471779
15124477333
15124484291
15124489906
15124495888
15124501320
15124507301
15124511574
15124519874
15124525306
15124531288
15124539039
15124543800
15124548866
15124554970
15124563820
15124569191
15124575782
15124581031
15124586647
15124592140
15124597755
15124604713
15124613258
15124618141
15124624733
15124630287
15124635231
15124640907
15124648536
15124655250
15124660987
15124666786
15124671302
15124678077
15124684425
15124691749
15124698280
15124704322
15124711646
15124716529
15124723060
15124729591
15124736610
15124742286
15124748756
15124753883
15124760657
15124766822
15124773170
15124779090
15124786475
15124791358
15124799354
15124805152
15124811317
15124817176
15124823829
15124829444
15124834754
15124842383
15124848853
15124855506
15124861976
15124868323
15124874183
15124879615
15124885535
15124892981
15124898047
15124905799
15124910743
15124917762
15124923987
15124929969
15124935706
15124942664
15124948828
15124955237
15124960730
15124965735
15124972632
15124977637
15124985755
15124992285
15124998084
15125004370
15125012610
15125023901
15125032629
15125043127
15125052588
15125059241
15125067602
15125076514
15125084753
15125093664
15125104956
15125114294
15125122778
15125131933
15125141394
15125149634
15125159948
15125168432
15125178320
15125187902
15125197241
15125206945
15125216650
15125226782
15125236120
15125245397
15125253576
15125263830
15125272131
15125281774
15125291357
15125300329
15125310949
15125318273
15125329809
15125339147
15125346166
15125357763
15125365392
15125375280
15125382726
15125393041
15125402502
15125411657
15125420751
15125430211
15125440099
15125447484
15125458165
15125467931
15125476659
15125485814
15125494542
15125502355
15125510961
15125519750
15125529088
15125539464
15125547521
15125557164
15125570043
15125579198
15125587743
15125597081
15125606847
15125615392
15125624486
15125633397
15125643101
15125651891
15125658971
15125668187
15125676915
15125686864
15125695714
15125704320
15125710118
15125716282
15125722325
15125726964
15125733922
15125739415
15125744847
15125750340
15125755894
15125761204
15125766514
15125773228
15125778965
15125784336
15125790867
15125796116
15125802220
15125806919
15125814976
15125820713
15125827061
15125832127
15125837681
15125842747
15125847019
15125853733
15125861302
15125866368
15125872044
15125877171
15125882359
15125887669
15125895542
15125900669
15125907810
15125913426
15125918491
15125923374
15125928928
15125934116
15125939854
15125945286
15125951817
15125956882
15125962925
15125966892
15125974216
15125981235
15125986301
15125992100
15125997410
15126003269
15126007114
15126013218
15126020054
15126025242
15126030124
15126035190
15126041843
15126047397
15126052219
15126058201
15126065097
15126071933
15126076999
15126082126
15126087009
15126092624
15126098911
15126105686
15126111057
15126117343
15126122531
15126128086
15126133152
15126138584
15126144931
15126149265
15126156772
15126162326
15126166538
15126173007
15126179172
15126186191
15126190830
15126196872
15126202365
15126207492
15126213229
15126218234
15126225192
15126229831
15126236789
15126242038
15126247165
15126252109
15126258334
15126264438
15126270236
15126275302
15126280978
15126286166
15126291110
15126297153
15126304172
15126309787
15126314731
15126320895
15126325656
15126331576
15126338656
15126344455
15126350863
15126355746
15126361178
15126366183
15126371737
15126377963
15126384188
15126391207
15126397006
15126402072
15126407565
15126412387
15126419467
15126427279
15126432589
15126437777
15126445223
15126449557
15126455294
15126463107
15126469882
15126475436
15126480074
15126487277
15126493197
15126498812
15126504916
15126510653
15126517550
15126523226
15126527926
15126533602
15126539278
15126544588
15126549227
15126557650
15126564425
15126570711
15126578829
15126585238
15126591097
15126597445
15126603365
15126610445
15126617220
15126623568
15126629793
15126636568
15126642550
15126648714
15126653536
15126658602
15126666719
15126672701
15126678072
15126683870
15126688143
15126694979
15126702913
15126709505
15126714754
15126721285
15126727144
15126735201
15126742159
15126748689
15126756563
15126762361
15126768099
15126775240
15126780428
15126789156
15126796236
15126801912
15126809786
15126816744
15126823152
15126831941
15126837434
15126843111
15126850862
15126857698
15126862398
15126870759
15126877595
15126882051
15126889314
15126896028
15126901338
15126908479
15126915437
15126921113
15126926851
15126934297
15126939790
15126947908
15126953950
15126960481
15126967683
15126974763
15126980806
15126987275
15126993257
15127000581
15127007356
15127013581
15127020906
15127027192
15127033723
15127040437
15127045320
15127052278
15127059297
15127065461
15127072541
15127079133
15127083833
15127090485
15127098542
15127104646
15127113801
15127119660
15127125642
15127131440
15127134858
15127144562
15127151887
15127156892
15127164765
15127170441
15127176301
15127183564
15127189362
15127196747
15127202790
15127208405
15127214387
15127220673
15127228119
15127234772
15127240265
15127246918
15127251435
15127258027
15127262970
15127272126
15127277619
15127284455
15127289338
15127294587
15127301056
15127308136
15127315155
15127321991
15127328949
15127335541
15127341950
15127346710
15127354523
15127361420
15127368317
15127375275
15127380890
15127386932
15127392975
15127400299
15127406708
15127412201
15127417145
15127425385
15127431305
15127437592
15127442902
15127450165
15127456573
15127461761
15127467865
15127476959
15127482452
15127488006
15127495270
15127498993
15127506134
15127513397
15127519806
15127528473
15127535797
15127541961
15127547393
15127551605
15127559539
15127565094
15127571685
15127579071
15127585113
15127589752
15127598358
15127604705
15127610626
15127617279
15127624969
15127631378
15127637664
15127645355
15127651397
15127659576
15127664947
15127671172
15127677337
15127684844
15127691741
15127697418
15127703582
15127709197
15127715057
15127723052
15127729461
15127735198
15127741607
15127748565
15127755889
15127762725
15127769195
15127777068
15127782256
15127790679
15127797027
15127802825
15127811065
15127817412
15127822600
15127830413
15127838530
15127844268
15127851653
15127857268
15127863372
15127871001
15127877288
15127883147
15127890715
15127898467
15127903594
15127910124
15127915007
15127924040
15127928862
15127935393
15127941863
15127949065
15127954009
15127961211
15127969512
15127976225
15127982939
15127989287
15127995635
15128001006
15128009551
15128016081
15128022368
15128028105
15128033659
15128041533
15128047087
15128052458
15128060026
15128066557
15128072050
15128079680
15128086943
15128092619
15128099638
15128105009
15128113005
15128119536
15128127470
15128134550
15128142485
15128147917
15128154387
15128157743
15128165190
15128171721
15128177580
15128183866
15128191069
15128196501
15128204435
15128211820
15128217741
15128224333
15128230680
15128237699
15128243742
15128250089
15128255827
15128264066
15128271147
15128276884
15128283781
15128290373
15128296720
15128303007
15128309965
15128316129
15128320890
15128327909
15128335783
15128341642
15128348661
15128354337
15128360075
15128367704
15128374174
15128380826
15128387174
15128391996
15128399198
15128405118
15128412015
15128416898
15128423490
15128429288
15128435025
15128444730
15128451200
15128456144
15128463163
15128470487
15128474576
15128482328
15128487882
15128493985
15128501859
15128508023
15128512235
15128519437
15128523953
15128530667
15128537686
15128543790
15128550138
15128556180
15128562406
15128569974
15128575711
15128583035
15128590176
15128596585
15128602872
15128609402
15128616788
15128623624
15128629605
15128635159
15128641629
15128648282
15128656888
15128663968
15128668423
15128675686
15128683072
15128688687
15128695218
15128701077
15128706631
15128713772
15128718533
15128725613
15128732998
15128739651
15128746182
15128752163
15128757595
15128763699
15128769680
15128776333
15128782681
15128789151
15128794705
15128800564
15128806485
15128813992
15128819302
15128826199
15128832546
15128839199
15128847805
15128853604
15128861416
15128869473
15128874539
15128881802
15128885525
15128893826
15128900356
15128905911
15128913296
15128919094
15128925625
15128932583
15128939358
15128945461
15128951809
15128958095
15128963589
15128969631
15128976528
15128982509
15128989528
15128994900
15129001430
15129006618
15129013393
15129020656
15129027065
15129033168
15129040065
15129047878
15129054836
15129063015
15129070217
15129074611
15129081996
15129088954
15129094142
15129101039
15129107814
15129112636
15129119594
15129125087
15129132045
15129138454
15129144313
15129150295
15129156642
15129164455
15129169887
15129178493
15129183620
15129189723
15129196620
15129202724
15129208522
15129214565
15129220851
15129225490
15129233119
15129237697
15129244899
15129251613
15129256801
15129263270
15129268642
15129275111
15129281398
15129286525
15129293178
15129298915
15129306178
15129309535
15129316249
15129320949
15129327540
15129333400
15129339320
15129346522
15129352443
15129358485
15129362880
15129369349
15129375087
15129380946
15129386012
15129394007
15129398768
15129405726
15129410609
15129416041
15129421839
15129426905
15129435816
15129441737
15129447657
15129453272
15129458460
15129464442
15129470240
15129475733
15129484522
15129489161
15129494288
15129500452
15129505701
15129512782
15129516932
15129525660
15129531947
15129539210
15129545252
15129551966
15129556849
15129564295
15129571314
15129579127
15129586817
15129593165
15129600977
15129607264
15129614527
15129620752
15129627588
15129634058
15129640223
15129647791
15129653894
15129660669
15129667566
15129673609
15129678614
15129686914
15129693018
15129699976
15129706568
15129711328
15129718408
15129723474
15129729639
15129736231
15129743677
15129749719
15129755701
15129761804
15129767847
15129773035
15129780908
15129786401
15129792627
15129799036
15129805566
15129810999
15129817468
15129823572
15129829126
15129836206
15129840784
15129847375
15129850976
15129858301
15129863367
15129870569
15129877038
15129882959
15129888879
15129894494
15129900598
15129906152
15129911401
15129917138
15129922754
15129928735
15129935083
15129939416
15129945581
15129951745
15129957299
15129963159
15129970300
15129975122
15129982019
15129985498
15129992578
15129997216
15130003503
15130010705
15130016931
15130022729
15130028527
15130033959
15130039514
15130045251
15130051171
15130057824
15130064172
15130069787
15130073998
15130080712
15130085351
15130092431
15130097680
15130104760
15130109948
15130115929
15130120995
15130128381
15130133507
15130139672
15130145837
15130153405
15130159447
15130165246
15130170800
15130176598
15130182152
15130190148
15130196679
15130201806
15130209313
15130214440
15130220421
15130226586
15130231652
15130238671
15130245385
15130250817
15130255944
15130260521
15130266747
15130271325
15130279503
15130286034
15130292748
15130299217
15130305138
15130310082
15130315697
15130321251
15130327416
15130334679
15130339745
15130345665
15130349877
15130356285
15130362511
15130368614
15130373985
15130381981
15130385460
15130393395
15130398399
15130405663
15130412132
15130418419
15130424400
15130430565
15130435875
15130441429
15130447777
15130451927
15130458092
15130464378
15130471641
15130476158
15130482811
15130487022
15130494041
15130498741
15130504600
15130512047
15130518699
15130521995
15130528770
15130534874
15130540611
15130547325
15130553611
15130559043
15130565147
15130570884
15130576683
15130582725
15130589012
15130594810
15130602256
15130607871
15130612510
15130618370
15130624961
15130629600
15130634239
15130641563
15130644981
15130653587
15130657066
15130664756
15130670188
15130675742
15130681724
15130688133
15130695884
15130700340
15130706565
15130710838
15130717185
15130722678
15130728294
15130734946
15130741965
15130746909
15130752708
15130757407
15130764426
15130769248
15130774924
15130780112
15130788108
15130794272
15130800254
15130806296
15130812339
15130818259
15130824485
15130831076
15130836936
15130841269
15130846824
15130853415
15130859397
15130865073
15130869895
15130877524
15130884055
15130888877
15130894919
15130899619
15130905661
15130910910
15130917563
15130923361
15130928244
15130936606
15130940146
15130947775
15130952841
15130959738
15130965842
15130972189
15130975729
15130983847
15130990012
15130996176
15131002524
15131009238
15131016196
15131022848
15131027853
15131034201
15131039877
15131046286
15131052695
15131058493
15131064535
15131069601
15131076864
15131080282
15131087118
15131092184
15131101462
15131107077
15131113363
15131119589
15131125570
15131131064
15131135214
15131140768
15131147177
15131152975
15131159018
15131164511
15131169210
15131175741
15131180380
15131186300
15131193746
15131199667
15131202902
15131209982
15131215353
15131220846
15131224203
15131232015
15131237814
15131243734
15131249960
15131255514
15131261251
15131265524
15131271261
15131276937
15131284322
15131289449
15131295065
15131301290
15131306539
15131312826
15131318685
15131324605
15131331441
15131336324
15131343465
15131346883
15131354574
15131360677
15131366353
15131373250
15131378011
15131385091
15131391012
15131396444
15131403219
15131408223
15131414998
15131420430
15131426961
15131433431
15131438619
15131444173
15131450338
15131455892
15131463460
15131469014
15131475118
15131479512
15131487081
15131491292
15131500264
15131507039
15131512471
15131517598
15131523458
15131529134
15131536458
15131542073
15131547139
15131553731
15131558553
15131566487
15131573567
15131580281
15131586385
15131593404
15131598836
15131603596
15131610249
15131617085
15131623189
15131627461
15131633870
15131638753
15131644917
15131651387
15131657185
15131663472
15131668843
15131674031
15131679524
15131687764
15131694294
15131700215
15131705342
15131712544
15131717061
15131723713
15131727192
15131736531
15131743672
15131749348
15131754109
15131759663
15131766194
15131773091
15131779866
15131785115
15131791584
15131796955
15131801533
15131807636
15131814228
15131821125
15131825825
15131831013
15131836323
15131841999
15131849445
15131856464
15131861836
15131866963
15131874226
15131881001
15131888081
15131893635
15131900776
15131906269
15131911701
15131916401
15131922871
15131927326
15131934162
15131940754
15131946247
15131951008
15131956867
15131964496
15131970356
15131975971
15131982319
15131988544
15131993305
15131999103
15132004657
15132010822
15132018146
15132024250
15132030170
15132037067
15132043293
15132049640
15132055683
15132061847
15132068561
15132073932
15132079425
15132085956
15132091510
15132098529
15132104511
15132110980
15132115924
15132122882
15132129169
15132135639
15132140949
15132146564
15132151141
15132158466
15132165363
15132172748
15132177814
15132184406
15132191547
15132197772
15132205157
15132211200
15132217853
15132223102
15132230060
15132237994
15132245563
15132250323
15132257587
15132262347
15132267535
15132273700
15132279803
15132286273
15132292132
15132297259
15132302813
15132308001
15132314044
15132320086
15132327411
15132333087
15132339557
15132345233
15132349749
15132361102
15132370501
15132375506
15132383746
15132389544
15132395465
15132402789
15132408831
15132417254
15132423663
15132428851
15132433856
15132440264
15132447222
15132453265
15132459063
15132464312
15132470843
15132475909
15132482745
15132490496
15132496050
15132503497
15132508318
15132513384
15132518999
15132525225
15132532366
15132537859
15132543474
15132548784
15132553911
15132560564
15132568377
15132574541
15132580950
15132588030
15132593767
15132600359
15132607439
15132614214
15132620745
15132625567
15132631853
15132638689
15132644854
15132652727
15132659136
15132664507
15132671648
15132677202
15132684282
15132690081
15132697161
15132704668
15132711016
15132718706
15132724443
15132731218
15132736223
15132749895
15132760271
15132773088
15132784807
15132797441
15132809038
15132819902
15132830278
15132843034
15132853532
15132865617
15132878007
15132888505
15132900285
15132910783
15132922441
15132933854
15132945329
15132957353
15132965898
15132974748
15132982194
15132988236
15132994218
15133000382
15133006974
15133013017
15133018937
15133024613
15133030107
15133036027
15133042008
15133047685
15133053178
15133059403
15133063004
15133070268
15133076615
15133083512
15133089433
15133094071
15133101273
15133104752
15133113358
15133117814
15133123246
15133130143
15133134904
15133141678
15133147782
15133153031
15133158768
15133164750
15133170670
15133176224
15133182938
15133188187
15133194108
15133199540
15133206742
15133212052
15133217240
15133224259
15133228714
15133235367
15133239762
15133248246
15133255143
15133261002
15133265580
15133270401
15133276932
15133282364
15133289566
15133294449
15133300614
15133308426
15133315689
15133320877
15133330094
15133337906
15133343582
15133351517
15133357925
15133363602
15133369339
15133375992
15133383011
15133388626
15133394119
15133400284
15133406448
15133411819
15133419388
15133424820
15133432388
15133439407
15133446915
15133452408
15133458206
15133465347
15133473465
15133477981
15133485489
15133491165
15133496963
15133505630
15133511245
15133517044
15133522476
15133528823
15133534744
15133541458
15133545364
15133552688
15133558609
15133564712
15133570816
15133576675
15133582962
15133589126
15133595596
15133599014
15133606582
15133612808
15133619155
15133625015
15133631423
15133636489
15133643813
15133647903
15133654800
15133660049
15133668044
15133673476
15133679153
15133685012
15133691543
15133696609
15133702468
15133708083
15133714614
15133719131
15133726760
15133734817
15133740920
15133747573
15133754348
15133760268
15133766128
15133772048
15133779006
15133785048
15133791030
15133798781
15133803664
15133811355
15133816726
15133822585
15133831008
15133835830
15133842971
15133849562
15133856887
15133862563
15133870986
15133960158
15133967665
15133973769
15133979933
15133985304
15133991591
15133998671
15134003310
15134011854
15134020033
15134027479
15134034987
15134041701
15134046828
15134054274
15134059218
15134067091
15134073500
15134080519
15134086134
15134091871
15134098829
15134106581
15134112928
15134119032
15134125746
15134130812
15134136366
15134142714
15134147718
15134155104
15134162184
15134167066
15134173902
15134178541
15134184767
15134189283
15134197218
15134201307
15134210462
15134215956
15134220533
15134226209
15134233106
15134239149
15134244215
15134250562
15134256239
15134262098
15134268263
15134273634
15134279615
15134284986
15134290723
15134295606
15134303297
15134306592
15134314222
15134319959
15134326429
15134332471
15134339246
15134344861
15134349561
15134356336
15134362806
15134368909
15134375135
15134381666
15134387220
15134391980
15134398511
15134404676
15134411023
15134417127
15134423352
15134429883
15134433973
15134441236
15134446790
15134452832
15134461438
15134467054
15134472791
15134477063
15134483716
15134489820
15134494947
15134501233
15134508313
15134511426
15134520032
15134526929
15134530713
15134537610
15134543836
15134551282
15134557202
15134563001
15134566541
15134574231
15134580518
15134585095
15134592480
15134597546
15134604626
15134609204
15134615491
15134621777
15134629101
15134635510
15134641797
15134647473
15134651990
15134658337
15134664380
15134670788
15134678296
15134682934
15134689648
15134695813
15134701489
15134705883
15134714673
15134721081
15134727185
15134732800
15134738720
15134743847
15134750378
15134755322
15134762707
15134768811
15134774670
15134780651
15134786816
15134793164
15134798718
15134804333
15134810986
15134815807
15134822277
15134828320
15134833447
15134839367
15134845654
15134852123
15134858898
15134867199
15134870800
15134879833
15134885937
15134891003
15134898388
15134902965
15134910046
15134914867
15134921581
15134925060
15134932751
15134940197
15134946117
15134951061
15134956737
15134962353
15134969127
15134975963
15134980114
15134988659
15134994640
15135000072
15135006237
15135011364
15135016918
15135023510
15135029430
15135034557
15135042614
15135049083
15135053234
15135060314
15135066783
15135072765
15135078746
15135083873
15135090221
15135096263
15135102794
15135109447
15135116161
15135122386
15135127940
15135134410
15135140880
15135144908
15135151988
15135157726
15135163585
15135168712
15135175609
15135181041
15135187694
15135194408
15135201182
15135206615
15135211436
15135218333
15135223338
15135230418
15135236156
15135241527
15135248973
15135253734
15135260264
15135264903
15135271129
15135277781
15135283641
15135291636
15135297862
15135301463
15135308543
15135314891
15135320262
15135327403
15135333262
15135340464
15135345652
15135352977
15135358775
15135364390
15135371104
15135377268
15135384349
15135390452
15135396556
15135401805
15135408396
15135413462
15135420176
15135426035
15135434275
15135438303
15135446177
15135452036
15135458384
15135463389
15135469736
15135476450
15135481516
15135488047
15135494334
15135500681
15135505503
15135512827
15135518626
15135524546
15135531382
15135537791
15135543406
15135549753
15135555369
15135562754
15135568613
15135574167
15135579416
15135587351
15135591074
15135598154
15135603037
15135609995
15135616098
15135622202
15135628366
15135634043
15135639902
15135644297
15135650156
15135656443
15135662302
15135668222
15135674448
15135679209
15135685312
15135691599
15135697641
15135704904
15135710520
15135716562
15135722910
15135728037
15135735361
15135741159
15135747507
15135755136
15135759775
15135765756
15135771188
15135776926
15135782297
15135788034
15135794138
15135801706
15135806345
15135812021
15135818063
15135824838
15135830087
15135835885
15135843027
15135849191
15135854013
15135860299
15135864999
15135871652
15135878244
15135883981
15135890023
15135896005
15135902169
15135907846
15135913644
15135919259
15135925363
15135930246
15135937570
15135943978
15135949594
15135954599
15135960946
15135967477
15135973397
15135980783
15135986642
15135992501
15135998239
15136004220
15136010262
15136016122
15136021920
15136028146
15136034371
15136041024
15136045785
15136053231
15136057992
15136064706
15136072091
15136077828
15136084420
15136089242
15136094002
15136101144
15136106148
15136113717
15136120003
15136126107
15136132577
15136138619
15136144478
15136150277
15136155831
15136162484
15136169930
15136174569
15136180916
15136187325
15136193245
15136200081
15136205941
15136211251
15136218392
15136223030
15136229988
15136235787
15136241524
15136247261
15136253182
15136260079
15136266304
15136271919
15136278023
15136284371
15136290718
15136295357
15136301583
15136307503
15136313851
15136319893
15136324532
15136329964
15136336556
15136341682
15136346748
15136354073
15136360786
15136366951
15136372932
15136378670
15136384285
15136390449
15136396797
15136403450
15136409126
15136413643
15136421028
15136426948
15136432686
15136438057
15136446480
15136450386
15136460029
15136466133
15136472419
15136479683
15136484871
15136491890
15136498420
15136503242
15136509651
15136515937
15136521003
15136528266
15136534065
15136541572
15136547370
15136553413
15136559700
15136565864
15136571845
15136578437
15136586250
15136590766
15136597419
15136601631
15136608650
15136612983
15136619087
15136626045
15136632819
15136637702
15136643867
15136648933
15136657111
15136662910
15136669379
15136676215
15136682319
15136688056
15136693671
15136698371
15136703925
15136709601
15136715522
15136721992
15136728583
15136734138
15136740119
15136745185
15136751410
15136756720
15136763801
15136769416
15136774177
15136781073
15136785773
15136792060
15136796759
15136803656
15136810859
15136817084
15136822760
15136828559
15136833441
15136839057
15136845526
15136851569
15136857367
15136863898
15136868842
15136874823
15136881110
15136885810
15136891913
15136897772
15136904852
15136909735
15136916876
15136921637
15136928412
15136935126
15136941840
15136948920
15136953497
15136960333
15136964728
15136972052
15136976630
15136983832
15136991278
15136996649
15137001349
15137008185
15137012945
15137019598
15137024298
15137030829
15137038580
15137044684
15137050543
15137056585
15137062872
15137069037
15137075018
15137081549
15137087530
15137093512
15137098944
15137104986
15137111273
15137127264
15137133612
15137138678
15137145941
15137151251
15137158392
15137163641
15137171026
15137177801
15137183538
15137188665
15137194769
15137199468
15137205084
15137209966
15137216192
15137221624
15137227850
15137234258
15137240545
15137244634
15137252142
15137255926
15137264288
15137270147
15137274908
15137280889
15137287176
15137293951
15137301641
15137307806
15137314458
15137321966
15137328985
15137336065
15137341802
15137349126
15137356572
15137362981
15137369207
15137375066
15137381231
15137384710
15137393621
15137400335
15137406804
15137413579
15137419500
15137425420
15137429692
15137439763
15137444341
15137451299
15137456792
15137464604
15137469914
15137475835
15137482183
15137488225
15137494817
15137501286
15137508000
15137514348
15137520024
15137524602
15137530522
15137536504
15137541753
15137547429
15137554753
15137559880
15137566899
15137572942
15137579045
15137585210
15137591435
15137597722
15137603703
15137609379
15137615056
15137621220
15137625615
15137631718
15137638554
15137645939
15137651188
15137658268
15137663395
15137670170
15137675358
15137682133
15137689518
15137695622
15137701542
15137707341
15137713444
15137719426
15137725590
15137732853
15137739384
15137745365
15137751042
15137756657
15137762333
15137768376
15137773319
15137780277
15137786747
15137791508
15137797794
15137802616
15137808659
15137813358
15137821537
15137828617
15137833256
15137839176
15137844669
15137850163
15137855839
15137861698
15137868107
15137873966
15137880375
15137885380
15137891666
15137897282
15137903812
15137909305
15137915775
15137923221
15137926456
15137935673
15137938846
15137948734
15137952518
15137959171
15137965275
15137971622
15137977359
15137983341
15137990299
15137994632
15138000675
15138007267
15138014530
15138019657
15138026798
15138031986
15138038761
15138043949
15138051029
15138057682
15138063846
15138069583
15138075382
15138081607
15138087345
15138091434
15138098697
15138106326
15138111209
15138118717
15138123477
15138130069
15138136661
15138143008
15138149234
15138155582
15138160831
15138168216
15138173343
15138179690
15138184512
15138190982
15138199100
15138205569
15138211490
15138217410
15138223086
15138228885
15138235660
15138240359
15138246646
15138252566
15138258853
15138264834
15138270083
15138276004
15138281314
15138287234
15138294619
15138299807
15138306582
15138311648
15138318606
15138323550
15138330203
15138337527
15138343447
15138348818
15138354373
15138359805
15138365237
15138371157
15138375735
15138383792
15138389224
15138395632
15138402285
15138408144
15138413149
15138418826
15138423830
15138431094
15138435671
15138442934
15138449038
15138455019
15138460635
15138466555
15138472903
15138479250
15138485110
15138491091
15138497134
15138503359
15138508303
15138515078
15138521548
15138526430
15138533205
15138538271
15138545290
15138551149
15138557070
15138563479
15138570559
15138574221
15138581911
15138587770
15138593386
15138600283
15138605349
15138612123
15138618166
15138624636
15138629152
15138636598
15138641237
15138647890
15138654543
15138661867
15138665041
15138672304
15138677004
15138684572
15138687990
15138695741
15138702638
15138708864
15138714784
15138720888
15138727419
15138733339
15138739320
15138744081
15138751711
15138756960
15138763246
15138769655
15138774904
15138779542
15138785768
15138793581
15138798463
15138803590
15138811586
15138817872
15138823488
15138827577
15138834230
15138841127
15138846925
15138851564
15138857118
15138863099
15138868898
15138874452
15138880922
15138886232
15138892335
15138897828
15138903871
15138909242
15138913758
15138920655
15138926271
15138933229
15138938478
15138943788
15138948487
15138955812
15138961549
15138967408
15138973756
15138979737
15138985047
15138990785
15138996949
15139002992
15139009400
15139015138
15139023621
15139028626
15139034364
15139039063
15139045716
15139050477
15139057374
15139062867
15139071046
15139075562
15139083924
15139090516
15139096131
15139102051
15139106690
15139113221
15139119080
15139125245
15139131470
15139137513
15139142029
15139149354
15139157105
15139163086
15139166565
15139173279
15139178284
15139185486
15139189331
15139197205
15139203614
15139209534
15139213501
15139220337
15139226502
15139232361
15139238220
15139244568
15139251465
15139257935
15139263977
15139268738
15139275147
15139280396
15139286804
15139294434
15139299072
15139303833
15139310364
15139315003
15139321899
15139328064
15139334595
15139341553
15139347595
15139353027
15139358704
15139364197
15139369812
15139375183
15139383240
15139388489
15139393432
15139400268
15139405151
15139412353
15139417297
15139425232
15139430359
15139437805
15139445129
15139451294
15139457519
15139463623
15139469482
15139474365
15139481933
15139486694
15139493896
15139498474
15139505004
15139511108
15139516601
15139522033
15139529480
15139534667
15139542419
15139548522
15139554504
15139559997
15139565978
15139572265
15139578124
15139582885
15139588439
15139594543
15139600219
15139606445
15139612914
15139618896
15139624023
15139630004
15139636474
15139643310
15139648559
15139655029
15139662475
15139668578
15139671935
15139680419
15139686156
15139691833
15139697692
15139703612
15139709655
15139716064
15139721801
15139725890
15139731750
15139737853
15139743102
15139750365
15139757323
15139762572
15139770141
15139776000
15139781859
15139787474
15139793639
15139800292
15139806273
15139812255
15139817870
15139823607
15139829161
15139834838
15139840026
15139847411
15139853881
15139859252
15139863951
15139870116
15139874816
15139881835
15139888182
15139895934
15139899352
15139907042
15139912474
15139919249
15139924925
15139931212
15139937315
15139943724
15139948302
15139954344
15139960753
15139965697
15139972349
15139977904
15139985655
15139989439
15139997557
15140003355
15140009093
15140016234
15140022337
15140028441
15140034300
15140040159
15140045836
15140051512
15140057127
15140062925
15140067869
15140075010
15140079832
15140087400
15140092344
15140098753
15140105406
15140111509
15140117430
15140124815
15140130308
15140136656
15140141966
15140148313
15140153684
15140161192
15140167723
15140173338
15140178709
15140183225
15140188719
15140196348
15140202512
15140209531
15140215208
15140221189
15140226194
15140232114
15140237669
15140243345
15140249265
15140253721
15140259580
15140265806
15140272581
15140277219
15140285642
15140290220
15140295469
15140303098
15140309141
15140314817
15140321531
15140327146
15140334470
15140339963
15140346921
15140350583
15140358579
15140364499
15140370725
15140376828
15140382627
15140388181
15140394895
15140400876
15140407102
15140412229
15140418210
15140424558
15140429074
15140435300
15140441464
15140446530
15140451047
15140458249
15140462705
15140468259
15140474484
15140479611
15140486508
15140491269
15140496152
15140501950
15140506833
15140513486
15140518491
15140525632
15140532346
15140537534
15140541074
15140550107
15140556149
