15263188160
15263194812
15263201099
15263207508
15263213062
15263219959
15263227405
15263233386
15263240161
15263248767
15263254627
15263261157
15263269580
15263275684
15263283679
15263291248
15263298084
15263305713
15263312305
15263319995
15263326587
15263333606
15263341296
15263347400
15263354419
15263360767
15263367297
15263373401
15263382068
15263389880
15263395434
15263403491
15263409900
15263417163
15263423755
15263431201
15263438464
15263444445
15263452014
15263458667
15263465380
15263472033
15263477832
15263486377
15263492602
15263501513
15263507678
15263515002
15263521960
15263529284
15263539477
15263545458
15263553271
15263560351
15263568652
15263575976
15263581713
15263588915
15263597643
15263605273
15263611498
15263618273
15263626452
15263634631
15263641650
15263649096
15263657030
15263663195
15263670519
15263679552
15263686449
15263692675
15263702196
15263709459
15263716601
15263723131
15263730150
15263737108
15263745592
15263753099
15263759142
15263766405
15263774462
15263781481
15263786974
15263796984
15263804369
15263812914
15263818773
15263826830
15263834886
15263840441
15263847765
15263854173
15263863756
15263870409
15263876512
15263883165
15263890855
15263897447
15263903673
15263910997
15263919420
15263926988
15263932054
15263938951
15263946947
15263954393
15263960618
15263969224
15263976854
15263984422
15263991929
15263999254
15264005967
15264012132
15264021226
15264030198
15264036302
15264044297
15264051500
15264058885
15264066758
15264074388
15264081224
15264089524
15264096788
15264104478
15264111375
15264119554
15264126695
15264132554
15264139817
15264148423
15264155198
15264162766
15264169053
15264179978
15264190781
15264204209
15264212998
15264224229
15264231492
15264240281
15264248704
15264257554
15264265305
15264273789
15264281113
15264290085
15264297471
15264305771
15264313218
15264321274
15264328660
15264338120
15264346116
15264353074
15264358262
15264368943
15264376816
15264382614
15264390122
15264397324
15264405503
15264412277
15264420700
15264428147
15264435715
15264444626
15264450852
15264458542
15264467880
15264475998
15264483139
15264490219
15264498703
15264505905
15264515549
15264523972
15264530502
15264541183
15264548630
15264556808
15264565536
15264573532
15264581161
15264587631
15264596542
15264604782
15264611862
15264619491
15264626449
15264635605
15264642135
15264650253
15264658920
15264668075
15264675582
15264681930
15264689865
15264699569
15264707321
15264715194
15264724960
15264734970
15264742599
15264750350
15264757552
15264766342
15264774703
15264782638
15264791915
15264801498
15264811019
15264818404
15264828170
15264836288
15264843734
15264852767
15264860457
15264868209
15264876266
15264884994
15264891097
15264899825
15264907027
15264917830
15264925582
15264932174
15264939742
15264946700
15264953475
15264963118
15264971724
15264978133
15264986006
15264995528
15265004439
15265011763
15265020430
15265027693
15265039473
15265046919
15265056136
15265064131
15265071883
15265079817
15265087813
15265099471
15265106917
15265113020
15265123335
15265134505
15265143416
15265151289
15265160994
15265171370
15265180525
15265189070
15265198408
15265206709
15265215681
15265224165
15265235579
15265244490
15265254133
15265262007
15265272383
15265280989
15265288435
15265295820
15265304487
15265313825
15265322065
15265329878
15265336958
15265345564
15265352766
15265360334
15265368086
15265374738
15265381696
15265388837
15265397199
15265405561
15265413801
15265420393
15265428266
15265435407
15265442914
15265449689
15265459333
15265469648
15265478254
15265483991
15265493696
15265502363
15265511274
15265519758
15265529401
15265537885
15265546491
15265554853
15265563398
15265571088
15265578839
15265587201
15265595929
15265603437
15265611676
15265615949
15265628217
15265636151
15265643964
15265651593
15265660687
15265668561
15265675397
15265683270
15265691998
15265699384
15265708356
15265716107
15265723431
15265731366
15265740216
15265747113
15265757184
15265766095
15265774762
15265780255
15265788006
15265795880
15265801190
15265809002
15265814557
15265822491
15265827679
15265837811
15265843914
15265850628
15265858258
15265862957
15265870343
15265875409
15265881207
15265888714
15265892620
15265900799
15265907452
15265912274
15265918255
15265926434
15265932537
15265938275
15265944805
15265950726
15265955608
15265963848
15265968548
15265976727
15265982464
15265988628
15265994732
15266000713
15266007427
15266012554
15266020672
15266025616
15266032513
15266037517
15266044720
15266050274
15266056194
15266062298
15266068462
15266074993
15266081219
15266086956
15266093670
15266098858
15266106426
15266112468
15266118145
15266123943
15266130962
15266135357
15266141887
15266148662
15266155925
15266161663
15266167461
15266172954
15266178936
15266184246
15266191875
15266198406
15266203594
15266209453
15266216350
15266221233
15266228557
15266233867
15266239848
15266246257
15266253276
15266257549
15266264629
15266269634
15266276897
15266282329
15266290569
15266296184
15266302043
15266307353
15266313090
15266320476
15266324809
15266333781
15266338786
15266344707
15266351848
15266357402
15266363322
15266370219
15266376506
15266383159
15266388469
15266393596
15266400676
15266405375
15266413310
15266419841
15266425883
15266431559
15266437907
15266443766
15266450541
15266455729
15266462138
15266469950
15266475688
15266482218
15266488139
15266492472
15266498332
15266505961
15266512614
15266517314
15266523905
15266529765
15266536357
15266541789
15266547282
15266553629
15266560893
15266566752
15266573100
15266578959
15266584025
15266591044
15266598368
15266604105
15266610026
15266615336
15266622782
15266627238
15266633524
15266640299
15266648051
15266653544
15266659464
15266665079
15266670817
15266676310
15266682352
15266690043
15266694986
15266701578
15266709086
15266714151
15266721354
15266725992
15266732157
15266738932
15266745340
15266751383
15266758036
15266762735
15266770060
15266775614
15266782816
15266787088
15266793802
15266801126
15266805399
15266813211
15266818155
15266825784
15266832804
15266837808
15266843790
15266849893
15266855386
15266862344
15266868692
15266875894
15266882303
15266887674
15266893472
15266899026
15266905069
15266911295
15266918680
15266924722
15266930032
15266936807
15266941507
15266948160
15266954507
15266960916
15266966348
15266972330
15266978189
15266984475
15266988565
15266996438
15267003335
15267008706
15267014077
15267021463
15267027444
15267032876
15267038369
15267046365
15267052530
15267059121
15267064492
15267070596
15267076150
15267081582
15267087258
15267093789
15267099588
15267106790
15267112039
15267118569
15267124307
15267131631
15267137856
15267143777
15267150430
15267155923
15267161843
15267168008
15267174172
15267181374
15267186440
15267192727
15267198525
15267206033
15267211709
15267216653
15267222512
15267229958
15267236611
15267241311
15267248208
15267254250
15267260598
15267266213
15267272988
15267278664
15267284463
15267288613
15267296792
15267302956
15267307717
15267315468
15267322548
15267328103
15267333779
15267340859
15267345070
15267351052
15267358681
15267363991
15267370034
15267376870
15267382851
15267388222
15267393959
15267401528
15267405922
15267412758
15267419106
15267424416
15267430947
15267436501
15267441322
15267450050
15267455727
15267460915
15267466408
15267472694
15267478554
15267484657
15267490456
15267497658
15267503151
15267508644
15267514626
15267520485
15267526955
15267531715
15267539467
15267546547
15267551491
15267558082
15267565407
15267570717
15267577186
15267584389
15267588661
15267596534
15267602333
15267606727
15267612953
15267619178
15267627113
15267632728
15267638282
15267645240
15267651466
15267657020
15267661232
15267669166
15267675453
15267682167
15267687171
15267694007
15267699439
15267706092
15267711830
15267717811
15267723487
15267729591
15267736549
15267741371
15267748451
15267754310
15267761268
15267766944
15267772681
15267778297
15267784827
15267791541
15267796180
15267803748
15267810767
15267816627
15267822303
15267828529
15267833839
15267839637
15267847327
15267853797
15267860877
15267866797
15267872840
15267880042
15267885352
15267890967
15267896521
15267903724
15267909522
15267914893
15267920508
15267926917
15267933326
15267939551
15267944434
15267952063
15267957679
15267963965
15267969763
15267976233
15267982398
15267989051
15267995154
15267999365
15268007178
15268012061
15268019141
15268024817
15268031836
15268037573
15268043982
15268050208
15268055274
15268062537
15268066931
15268074561
15268081946
15268086951
15268092444
15268099463
15268105261
15268111609
15268117285
15268124792
15268130469
15268137671
15268143286
15268150915
15268156409
15268162512
15268169287
15268175024
15268180761
15268186194
15268191931
15268197485
15268206213
15268211462
15268216406
15268223303
15268230871
15268236731
15268240820
15268247595
15268254919
15268261511
15268268896
15268274145
15268281103
15268286413
15268292822
15268299597
15268306372
15268312414
15268317907
15268323583
15268331091
15268336096
15268345373
15268350622
15268357031
15268362951
15268370031
15268375341
15268383031
15268388158
15268395238
15268401464
15268407751
15268414465
15268420080
15268426061
15268434057
15268440526
15268445653
15268451391
15268456701
15268462987
15268472265
15268477025
15268484716
15268489843
15268495885
15268502355
15268506994
15268514074
15268520971
15268527684
15268531713
15268539281
15268545079
15268549535
15268557653
15268563268
15268568273
15268575597
15268582860
15268590062
15268594091
15268600926
15268607945
15268614781
15268621251
15268626805
15268632665
15268640477
15268647069
15268652379
15268657445
15268662755
15268670750
15268675511
15268683568
15268689000
15268695103
15268700230
15268706456
15268713414
15268720372
15268727452
15268732579
15268738438
15268745579
15268750157
15268756871
15268764805
15268771214
15268776341
15268783787
15268790745
15268795750
15268802769
15268809971
15268814732
15268821446
15268828038
15268834080
15268839573
15268845372
15268852391
15268859471
15268864720
15268871922
15268877537
15268883946
15268891880
15268896580
15268903721
15268908909
15268914768
15268922215
15268926914
15268934300
15268941197
15268946873
15268954746
15268959507
15268966099
15268971775
15268978428
15268985935
15268993320
15268999851
15269005344
15269011448
15269018650
15269024753
15269031589
15269037266
15269044285
15269050266
15269056431
15269063511
15269069431
15269075046
15269080600
15269087131
15269093296
15269097751
15269105381
15269111362
15269117405
15269124607
15269131137
15269136997
15269143283
15269151767
15269157016
15269164096
15269171115
15269176364
15269182468
15269188999
15269195713
15269201877
15269206821
15269212375
15269219699
15269225314
15269234042
15269239291
15269246066
15269251560
15269257358
15269262973
15269269931
15269276462
15269282382
15269288303
15269294833
15269300388
15269306430
15269312350
15269320407
15269325961
15269331393
15269338840
15269344821
15269351657
15269357028
15269362643
15269370090
15269376376
15269380710
15269387973
15269393405
15269399936
15269406039
15269413241
15269420321
15269425753
15269432040
15269439364
15269445529
15269451693
15269458407
15269463900
15269470309
15269476474
15269480746
15269489047
15269494967
15269500582
15269507113
15269512911
15269520419
15269526339
15269532931
15269541354
15269546664
15269553072
15269560824
15269566256
15269572665
15269578280
15269585238
15269590426
15269595980
15269603243
15269609896
15269615938
15269621676
15269628878
15269633944
15269640597
15269647921
15269655428
15269660006
15269666781
15269673250
15269679659
15269686434
15269693087
15269700777
15269706270
15269711824
15269719393
15269725374
15269731661
15269738741
15269745943
15269750215
15269755953
15269763582
15269770357
15269778231
15269784090
15269789705
15269796907
15269803987
15269809419
15269816683
15269822359
15269828584
15269834749
15269842745
15269847994
15269854524
15269861116
15269866060
15269872774
15269879610
15269885713
15269893831
15269900728
15269907686
15269913728
15269921602
15269928133
15269934175
15269940401
15269946626
15269953157
15269959749
15269966646
15269971834
15269977937
15269985139
15269992524
15269998384
15270005769
15270012239
15270019319
15270026582
15270034028
15270039033
15270046662
15270053071
15270058381
15270063325
15270069795
15270075715
15270081086
15270088838
15270095552
15270100739
15270108674
15270113557
15270120820
15270126069
15270132966
15270138276
15270145417
15270151338
15270158051
15270164277
15270170441
15270177338
15270184541
15270189545
15270196748
15270203278
15270209260
15270215668
15270221650
15270226960
15270233613
15270239350
15270246979
15270253388
15270259675
15270266144
15270271576
15270279206
15270283600
15270291474
15270299103
15270304535
15270311249
15270316803
15270323151
15270330353
15270335114
15270340912
15270347809
15270354279
15270360077
15270367279
15270373871
15270379975
15270386933
15270393707
15270400238
15270406586
15270412506
15270418854
15270423920
15270430817
15270437897
15270443634
15270451080
15270457306
15270464264
15270471283
15270478119
15270484039
15270492523
15270498505
15270504486
15270511322
15270517670
15270524567
15270531402
15270537140
15270543487
15270550018
15270556976
15270562713
15270569793
15270576935
15270582977
15270588287
15270594757
15270599334
15270605621
15270613311
15270619049
15270626861
15270633453
15270639740
15270645172
15270652496
15270658966
15270665130
15270672515
15270678924
15270685150
15270690765
15270696441
15270702361
15270709381
15270714385
15270720794
15270725860
15270733672
15270740691
15270745879
15270752837
15270757720
15270763274
15270771331
15270778411
15270783782
15270790984
15270794891
15270802520
15270808929
15270813689
15270821380
15270826629
15270832244
15270839019
15270843658
15270850554
15270856902
15270862700
15270868865
15270875213
15270882049
15270888823
15270895293
15270901885
15270907744
15270913115
15270919707
15270924285
15270931182
15270936797
15270943877
15270950469
15270955779
15270962737
15270969145
15270975493
15270982024
15270988799
15270995268
15271000273
15271007048
15271013396
15271019988
15271026213
15271032195
15271039641
15271045622
15271052275
15271057707
15271063872
15271072112
15271077238
15271083281
15271090300
15271096587
15271103239
15271109038
15271114958
15271122710
15271128996
15271136259
15271141691
15271148161
15271155363
15271161284
15271166899
15271173674
15271178862
15271184477
15271191862
15271198820
15271204252
15271211210
15271217314
15271223112
15271229582
15271235014
15271240934
15271246366
15271252958
15271259184
15271265104
15271271208
15271278105
15271284635
15271289823
15271296842
15271301542
15271308744
15271313688
15271321989
15271327665
15271334318
15271339750
15271346037
15271351469
15271359098
15271366056
15271372526
15271378629
15271384122
15271390104
15271395780
15271403409
15271408720
15271415067
15271420194
15271427030
15271433439
15271438566
15271444364
15271451261
15271457548
15271463285
15271469632
15271474088
15271482328
15271489469
15271495145
15271500333
15271506009
15271512967
15271517423
15271525174
15271533048
15271538846
15271544034
15271550382
15271556668
15271561978
15271569120
15271575467
15271579862
15271586820
15271592313
15271598721
15271606900
15271611112
15271618253
15271626248
15271631497
15271637357
15271643704
15271650601
15271656522
15271663419
15271671048
15271677274
15271685086
15271690945
15271696988
15271705044
15271709988
15271716702
15271722745
15271730435
15271735318
15271742154
15271747098
15271752530
15271758511
15271766873
15271773343
15271779324
15271784207
15271790066
15271797879
15271805325
15271809170
15271817898
15271823269
15271829495
15271837429
15271843594
15271849514
15271856289
15271862942
15271869351
15271874905
15271884243
15271889736
15271894741
15271901821
15271907314
15271913967
15271920498
15271927273
15271933804
15271939114
15271946438
15271953396
15271959682
15271966702
15271972927
15271978603
15271986233
15271991970
15271998318
15272003811
15272010769
15272016872
15272024135
15272030788
15272036281
15272042629
15272050258
15272057094
15272062465
15272070156
15272075222
15272082790
15272088710
15272095913
15272102138
15272108364
15272115261
15272121303
15272127224
15272135524
15272143337
15272148220
15272154811
15272161952
15272168727
15272175136
15272181850
15272188747
15272195583
15272202907
15272208766
15272214931
15272222560
15272229213
15272234279
15272241237
15272246547
15272252040
15272259059
15272264064
15272271205
15272277431
15272283290
15272289577
15272295558
15272302089
15272307704
15272315089
15272320399
15272327296
15272333827
15272339442
15272345729
15272353480
15272358851
15272363795
15272371241
15272378383
15272383571
15272390712
15272396571
15272402064
15272408351
15272415614
15272419642
15272427089
15272433863
15272439601
15272446559
15272453761
15272459315
15272466883
15272472438
15272479518
15272486720
15272495020
15272500514
15272506434
15272512843
15272517970
15272523158
15272530909
15272537257
15272543421
15272549159
15272556239
15272562159
15272567347
15272575159
15272580714
15272588404
15272595301
15272602259
15272608362
15272614344
15272621424
15272628626
15272634791
15272639979
15272645655
15272653345
15272658533
15272664942
15272670862
15272677515
15272684107
15272689966
15272695276
15272703028
15272708399
15272714869
15272721216
15272728662
15272735254
15272741175
15272748255
15272753809
15272758142
15272765589
15272773584
15272781214
15272785974
15272792749
15272798486
15272804895
15272813074
15272818689
15272825647
15272832178
15272836878
15272843591
15272849512
15272857324
15272863245
15272869470
15272875696
15272880823
15272887048
15272892786
15272898706
15272906091
15272911401
15272916589
15272922021
15272928613
15272935083
15272940271
15272947839
15272954309
15272961389
15272967981
15272973901
15272979883
15272986291
15272993554
15272998742
15273006494
15273010766
15273018029
15273023278
15273030175
15273037500
15273043359
15273050012
15273055871
15273064599
15273071801
15273078576
15273085961
15273093652
15273100854
15273108178
15273115502
15273121179
15273127343
15273132836
15273139855
15273147363
15273152917
15273160424
15273167199
15273172021
15273178307
15273185570
15273192589
15273198632
15273203576
15273208886
15273213891
15273220544
15273228783
15273235680
15273242699
15273249596
15273256615
15273261864
15273270043
15273275231
15273281762
15273287560
15273293969
15273300072
15273305199
15273312706
15273320092
15273325768
15273332299
15273337303
15273344200
15273352196
15273358910
15273364586
15273372643
15273378624
15273385094
15273391319
15273397911
15273404930
15273410851
15273417076
15273423241
15273429405
15273436913
15273443993
15273449181
15273455894
15273461754
15273468651
15273474937
15273480370
15273486900
15273494163
15273500023
15273504784
15273513206
15273519493
15273525841
15273533409
15273539146
15273544761
15273553306
15273558677
15273566368
15273573204
15273579796
15273584678
15273593650
15273600303
15273606529
15273613243
15273617393
15273624168
15273630394
15273638206
15273643577
15273650840
15273656761
15273662803
15273668785
15273675743
15273683067
15273690208
15273695884
15273702842
15273707847
15273713767
15273720725
15273727989
15273735435
15273739707
15273746116
15273753257
15273762046
15273767478
15273773643
15273780906
15273785972
15273791892
15273798911
15273804221
15273812156
15273818931
15273824485
15273831992
15273839133
15273844932
15273851218
15273859092
15273863730
15273870810
15273876365
15273883262
15273889670
15273897178
15273903281
15273909690
15273917197
15273922568
15273930320
15273935996
15273940268
15273946860
15273954306
15273960898
15273966757
15273973166
15273979636
15273985678
15273993247
15273998984
15274005942
15274011740
15274017416
15274024619
15274031760
15274037985
15274044577
15274050742
15274058249
15274063681
15274070151
15274078451
15274083639
15274089865
15274095785
15274102621
15274108298
15274116232
15274122641
15274129355
15274135641
15274141195
15274146811
15274152792
15274159079
15274164755
15274171530
15274176169
15274183798
15274187826
15274195578
15274200705
15274206930
15274214865
15274220846
15274226522
15274231954
15274237326
15274243490
15274250265
15274256735
15274264547
15274271566
15274277059
15274284200
15274290975
15274296957
15274302206
15274308798
15274315756
15274323019
15274328268
15274335226
15274342184
15274347982
15274352316
15274359274
15274366781
15274371664
15274378072
15274384786
15274391439
15274397054
15274402730
15274408529
15274415426
15274421468
15274427266
15274433248
15274437093
15274445821
15274451070
15274459310
15274464620
15274469686
15274476033
15274480916
15274486898
15274494588
15274500020
15274505269
15274511617
15274516683
15274522725
15274528890
15274536092
15274540120
15274547139
15274552327
15274557576
15274562764
15274569051
15274576314
15274580647
15274587972
15274592488
15274599141
15274605061
15274611226
15274620137
15274630025
15274638142
15274646016
15274655293
15274665669
15274674519
15274681782
15274692769
15274703389
15274713215
15274724202
15274734822
15274745076
15274754902
15274764363
15274773945
15274783528
15274791829
15274801960
15274810627
15274820515
15274828633
15274837300
15274846882
15274856953
15274864887
15274872883
15274883625
15274892658
15274900288
15274910297
15274919209
15274929279
15274938313
15274946980
15274955891
15274966206
15274973286
15274985554
15274993305
15275002949
15275010517
15275019367
15275029072
15275037494
15275046650
15275057270
15275067035
15275076069
15275083820
15275093036
15275102619
15275111835
15275120197
15275128192
15275136737
15275146991
15275159686
15275167560
15275176471
15275185993
15275194476
15275205158
15275214801
15275224384
15275234088
15275242938
15275251849
15275261859
15275269916
15275279010
15275289386
15275295001
15275300921
15275304095
15275311664
15275316669
15275324359
15275331012
15275340228
15275345843
15275350787
15275356646
15275363788
15275368365
15275375934
15275381915
15275386615
15275393695
15275398150
15275404620
15275410235
15275416461
15275422808
15275428240
15275433734
15275439654
15275444842
15275451495
15275458514
15275463458
15275469500
15275474810
15275481219
15275486712
15275492266
15275498492
15275502825
15275509844
15275515032
15275520953
15275528216
15275534380
15275541094
15275546770
15275552874
15275557391
15275563799
15275570879
15275576556
15275583025
15275587237
15275593828
15275599932
15275604937
15275610796
15275616472
15275623491
15275627764
15275634783
15275640032
15275645708
15275653032
15275659258
15275664019
15275670000
15275675493
15275681658
15275685869
15275694536
15275700396
15275707476
15275714617
15275721392
15275727861
15275734148
15275741777
15275747576
15275755022
15275761553
15275768328
15275772661
15275781084
15275786638
15275794023
15275802019
15275808672
15275815019
15275822405
15275827776
15275839800
15275846513
15275853899
15275861101
15275866838
15275875078
15275880510
15275887041
15275893632
15275900285
15275906145
15275912370
15275919206
15275926164
15275932817
15275940446
15275946245
15275953569
15275960099
15275966935
15275972978
15275980729
15275985124
15275993486
15275999223
15276006364
15276013749
15276019303
15276025468
15276033219
15276039018
15276046464
15276053605
15276058854
15276066300
15276072709
15276079301
15276086320
15276092118
15276097855
15276105363
15276111955
15276119096
15276125504
15276130509
15276138505
15276145951
15276150773
15276159318
15276165360
15276171403
15276178239
15276183549
15276190079
15276196793
15276202103
15276208573
15276215226
15276222184
15276227311
15276232316
15276239701
15276246598
15276251297
15276258072
15276263871
15276271317
15276278519
15276284195
15276292130
15276298905
15276304398
15276310868
15276317459
15276324539
15276329300
15276335953
15276342484
15276350357
15276354202
15276361283
15276368485
15276373734
15276380264
15276386368
15276390762
15276398209
15276404739
15276411270
15276418106
15276423660
15276430618
15276436722
15276442764
15276449966
15276455704
15276460770
15276468460
15276474502
15276481399
15276487869
15276495132
15276500076
15276505997
15276512039
15276517776
15276523636
15276530655
15276537002
15276543350
15276549514
15276556900
15276563430
15276569168
15276575515
15276581192
15276589492
15276594619
15276601333
15276608963
15276615066
15276620986
15276628005
15276633621
15276640823
15276647537
15276654678
15276661147
15276666091
15276672073
15276680740
15276687515
15276694473
15276701919
15276707351
15276714614
15276720535
15276727065
15276734573
15276740920
15276746474
15276753066
15276759963
15276766616
15276772842
15276779372
15276786391
15276793227
15276800674
15276806594
15276813613
15276820083
15276826613
15276832778
15276841567
15276848159
15276853835
15276861586
15276868483
15276874709
15276881301
15276887770
15276895034
15276900771
15276908034
15276913649
15276921401
15276928420
15276935317
15276941054
15276948317
15276954482
15276959487
15276968764
15276974562
15276980666
15276987258
15276994338
15276999281
15277007216
15277014357
15277020155
15277026930
15277031813
15277040358
15277047316
15277054640
15277060805
15277066481
15277073134
15277080153
15277085890
15277092238
15277097731
15277103224
15277109450
15277114821
15277121535
15277128431
15277134901
15277141615
15277147902
15277152418
15277158583
15277165968
15277172987
15277179823
15277185255
15277192457
15277197889
15277203810
15277211073
15277217848
15277224440
15277231398
15277236036
15277242811
15277249098
15277256849
15277261976
15277268812
15277275648
15277281263
15277288221
15277294447
15277301649
15277308485
15277315687
15277320325
15277326795
15277335401
15277341199
15277347059
15277354261
15277359083
15277366102
15277373365
15277379652
15277384962
15277391981
15277397535
15277404432
15277408826
15277415418
15277423169
15277428846
15277435132
15277440931
15277447400
15277452894
15277458997
15277466199
15277471143
15277477735
15277482740
15277490186
15277495984
15277501416
15277507581
15277514600
15277521863
15277526441
15277533216
15277539319
15277544629
15277549451
15277557874
15277563489
15277569715
15277575452
15277581555
15277587598
15277594006
15277601636
15277606885
15277613538
15277618848
15277624341
15277631299
15277637341
15277644727
15277649182
15277655591
15277662183
15277667615
15277674451
15277680615
15277686474
15277692639
15277698315
15277705151
15277711499
15277716382
15277723767
15277729138
15277736706
15277743664
15277749279
15277755139
15277760998
15277766613
15277773327
15277779736
15277785962
15277791699
15277796765
15277803540
15277810498
15277815808
15277822338
15277828442
15277835461
15277841809
15277848095
15277852978
15277859204
15277864758
15277871960
15277877575
15277884594
15277889111
15277895825
15277901989
15277908154
15277915051
15277920116
15277928234
15277933849
15277939648
15277945202
15277951855
15277958691
15277965038
15277970531
15277977306
15277982921
15277987804
15277994945
15278001049
15278007946
15278013622
15278019298
15278025036
15278031444
15278037121
15278044262
15278050426
15278057506
15278063671
15278069408
15278074413
15278079967
15278086681
15278093212
15278099559
15278106151
15278110546
15278117259
15278123302
15278129955
15278136791
15278144176
15278150707
15278155589
15278161571
15278166515
15278174205
15278179942
15278186046
15278192149
15278198680
15278204173
15278210460
15278217113
15278221873
15278229015
15278234203
15278240794
15278247630
15278253551
15278259044
15278265391
15278271190
15278277415
15278283641
15278290111
15278296275
15278301158
15278308543
15278314342
15278321666
15278327525
15278334910
15278341075
15278346263
15278353953
15278359324
15278366465
15278374156
15278379405
15278389720
15278396678
15278401805
15278408946
15278416758
15278423411
15278428782
15278435618
15278442088
15278447337
15278454905
15278459910
15278466075
15278473094
15278478831
15278484019
15278490305
15278495188
15278502146
15278507090
15278515086
15278520640
15278527048
15278532664
15278538462
15278543772
15278549509
15278554514
15278561106
15278567637
15278573496
15278578440
15278584238
15278589915
15278595896
15278601267
15278608530
15278613596
15278618540
15278625986
15278630564
15278637034
15278642649
15278649546
15278655405
15278661875
15278667429
15278673655
15278679209
15278684519
15278690500
15278698496
15278705942
15278710459
15278718027
15278724741
15278730173
15278734995
15278743418
15278749033
15278754953
15278760080
15278765817
15278770944
15278775766
15278781259
15278788034
15278793832
15278800180
15278804208
15278810617
15278815683
15278821542
15278827036
15278832468
15278838083
15278845041
15278850839
15278855112
15278860788
15278866830
15278874338
15278879526
15278886056
15278890634
15278896982
15278901681
15278908029
15278913095
15278920419
15278926339
15278932748
15278938669
15278944284
15278950021
15278955636
15278961862
15278969918
15278975656
15278981454
15278986642
15278991525
15278996652
15279002633
15279006967
15279013620
15279019235
15279026132
15279031381
15279037789
15279041635
15279049142
15279055734
15279061593
15279066232
15279072213
15279077706
15279082284
15279087899
15279094003
15279099252
15279106210
15279110604
15279117135
15279121957
15279127145
15279134469
15279139779
15279146859
15279152474
15279157845
15279163094
15279168954
15279174203
15279180062
15279185677
15279191414
15279196663
15279201424
15279206673
15279212960
15279218209
15279224373
15279229805
15279236214
15279240548
15279247139
15279252877
15279259713
15279264046
15279271187
15279277779
15279285897
15279289742
15279295845
15279302376
15279308296
15279313484
15279317696
15279324044
15279331002
15279334664
15279342476
15279347359
15279353462
15279356819
15279364510
15279373177
15279378731
15279383858
15279389046
15279393807
15279400276
15279404793
15279409615
15279417244
15279422859
15279428658
15279434334
15279440254
15279446052
15279452583
15279458687
15279465034
15279470589
15279476326
15279481758
15279487251
15279492866
15279497139
15279502876
15279510628
15279516426
15279520637
15279526558
15279532478
15279537605
15279543464
15279550178
15279555000
15279560676
15279565376
15279572212
15279576850
15279581916
15279588203
15279594429
15279600471
15279605659
15279613044
15279618782
15279624153
15279629707
15279635810
15279641426
15279647590
15279653755
15279659614
15279665901
15279671699
15279676948
15279684882
15279689338
15279695808
15279700263
15279704292
15279711799
15279718452
15279724189
15279731025
15279736762
15279740668
15279749030
15279755561
15279760932
15279766730
15279773444
15279779548
15279784797
15279790961
15279796027
15279802924
15279807990
15279813239
15279819831
15279826545
15279832709
15279838324
15279843390
15279849433
15279854377
15279860907
15279866828
15279871833
15279877387
15279883124
15279888739
15279893927
15279899359
15279904608
15279910712
15279916632
15279923041
15279929267
15279935675
15279941901
15279947882
15279952582
15279959906
15279966071
15279972479
15279978583
15279984992
15279990973
15279997321
15280004279
15280009344
15280016730
15280023077
15280028509
15280033820
15280039374
15280043524
15280050055
15280054388
15280060370
15280064398
15280071051
15280075323
15280082220
15280099859
15280106573
15280110724
15280116888
15280124395
15280129461
15280136114
15280140875
15280145697
15280153997
15280157965
15280165167
15280171087
15280176031
15280181341
15280185797
15280192511
15280198675
15280202459
15280209478
15280213262
15280220587
15280227300
15280234808
15280240240
15280245733
15280253179
15280259649
15280265264
15280270330
15280277410
15280283514
15280289068
15280295416
15280301946
15280305669
15280312322
15280317998
15280324529
15280330877
15280336065
15280341497
15280348394
15280352422
15280357976
15280363409
15280369512
15280374212
15280381231
15280385869
15280392522
15280398687
15280404790
15280410955
15280416570
15280422857
15280429082
15280433355
15280439763
15280443975
15280450322
15280455816
15280461370
15280467534
15280472112
15280478460
15280482976
15280488530
15280494634
15280500615
15280504949
15280511907
15280516423
15280522038
15280528935
15280532781
15280540532
15280545049
15280553227
15280559514
15280565862
15280571050
15280576421
15280583623
15280589116
15280595769
15280601506
15280608708
15280614384
15280621037
15280626714
15280632390
15280637212
15280643803
15280648930
15280656193
15280661748
15280666630
15280671391
15280676823
15280681828
15280688542
15280696293
15280701481
15280708012
15280715519
15280721684
15280726872
15280733036
15280738224
15280744572
15280751713
15280757817
15280763981
15280770329
15280776554
15280783390
15280791447
15280795597
15280803227
15280807743
15280816166
15280820011
15280828800
15280832646
15280839237
15280845951
15280850834
15280856815
15280863346
15280869084
15280874638
15280880375
15280887394
15280893009
15280899967
15280905338
15280912418
15280916264
15280922916
15280930424
15280935245
15280943973
15280948734
15280954716
15280959476
15280963138
15280970646
15280976627
15280982181
15280987858
15280994510
15280999943
15281005253
15281011539
15281016849
15281024051
15281029911
15281036930
15281043277
15281049808
15281054752
15281063053
15281068851
15281074283
15281080631
15281087101
15281094730
15281099735
15281105472
15281112247
15281118167
15281124454
15281130618
15281136600
15281142093
15281147525
15281152591
15281160098
15281166263
15281171695
15281179324
15281184818
15281190189
15281197574
15281203616
15281207950
15281213931
15281220889
15281227298
15281232730
15281237796
15281244937
15281250186
15281256839
15281263736
15281270267
15281274600
15281281863
15281286502
15281294497
15281300296
15281305301
15281312808
15281318789
15281324649
15281330081
15281337039
15281341250
15281348330
15281355655
15281360659
15281368045
15281373477
15281379885
15281385562
15281391665
15281398257
15281405337
15281411685
15281417971
15281423342
15281428469
15281435305
15281440310
15281448000
15281453616
15281460940
15281465090
15281472659
15281476931
15281483767
15281491152
15281497805
15281503786
15281508974
15281516299
15281521792
15281527773
15281533816
15281541567
15281547304
15281553774
15281559389
15281566653
15281571230
15281576235
15281584841
15281590456
15281595644
15281601442
15281607851
15281614992
15281619387
15281627504
15281633608
15281638430
15281643801
15281651247
15281657289
15281664186
15281668398
15281675539
15281679628
15281688173
15281691957
15281699770
15281706545
15281712343
15281718141
15281723879
15281730776
15281737612
15281741945
15281747988
15281755312
15281762087
15281767030
15281773683
15281779726
15281785768
15281791139
15281798036
15281805360
15281809938
15281816957
15281821901
15281828493
15281835817
15281840517
15281845521
15281853212
15281860292
15281865480
15281871278
15281877565
15281883790
15281890016
15281897584
15281902650
15281909852
15281915468
15281921388
15281927003
15281933229
15281941041
15281946290
15281952882
15281959779
15281965455
15281970948
15281977540
15281983399
15281989869
15281996583
15282002687
15282007752
15282013795
15282020753
15282026917
15282032350
15282037965
15282044007
15282049684
15282056886
15282063111
15282067872
15282074891
15282080079
15282087647
15282093018
15282098939
15282104493
15282110902
15282117554
15282123475
15282130067
15282136414
15282142640
15282147523
15282154664
15282161805
15282167542
15282173279
15282179993
15282183594
15282192139
15282197205
15282204651
15282210267
15282217774
15282222901
15282228333
15282234681
15282239808
15282245240
15282252930
15282259217
15282265869
15282271424
15282277527
15282283264
15282289246
15282295166
15282301819
15282307862
15282313904
15282320496
15282325684
15282332764
15282339295
15282345764
15282353150
15282357910
15282365051
15282369385
15282376709
15282381958
15282389954
15282395630
15282401916
15282407654
15282415527
15282419617
15282426086
15282433288
15282438293
15282445190
15282452270
15282458069
15282463440
15282468750
15282476806
15282481262
15282488830
15282493469
15282500732
15282505554
15282512573
15282518310
15282525024
15282530761
15282536499
15282543579
15282547973
15282554992
15282559875
15282567627
15282572631
15282579223
15282584350
15282591979
15282597412
15282603881
15282610107
15282615844
15282622985
15282627685
15282634643
15282639770
15282646423
15282654296
15282660217
15282666137
15282672485
15282679137
15282683471
15282690124
15282696899
15282703612
15282710693
15282716552
15282722228
15282728515
15282734496
15282739318
15282746581
15282753295
15282759215
15282764464
15282772338
15282777953
15282783935
15282790221
15282796019
15282801513
15282807189
15282814635
15282820678
15282826720
15282831969
15282839782
15282845702
15282851439
15282856993
15282863646
15282870116
15282876647
15282882262
15282888488
15282894042
15282901122
15282907530
15282912963
15282918761
15282926207
15282932555
15282938170
15282944335
15282950133
15282954894
15282961730
15282966979
15282973937
15282980101
15282986754
15282992125
15282999144
15283005614
15283010619
15283019163
15283024229
15283030211
15283036986
15283043333
15283047545
15283054808
15283061705
15283068114
15283074949
15283080137
15283086851
15283092589
15283098570
15283105284
15283111387
15283117064
15283123411
15283129881
15283136168
15283143492
15283148375
15283156126
15283161924
15283168272
15283173887
15283179624
15283185362
15283192259
15283199949
15283205076
15283212034
15283217466
15283223570
15283229307
15283235716
15283242185
15283248594
15283253965
15283260313
15283265928
15283273313
15283278196
15283283079
15283290281
15283296262
15283302976
15283310117
15283314390
15283320615
15283326658
15283333494
15283338621
15283345640
15283350583
15283358335
15283363767
15283369871
15283376523
15283382932
15283388364
15283395078
15283402036
15283406614
15283412839
15283418821
15283425107
15283432431
15283437925
15283443479
15283449582
15283455503
15283461789
15283468320
15283475522
15283480832
15283486386
15283492185
15283499509
15283504392
15283511838
15283516355
15283524228
15283528562
15283536008
15283541013
15283547666
15283555783
15283561337
15283567380
15283574521
15283581845
15283587033
15283594723
15283600400
15283606808
15283612302
15283620053
15283625790
15283632260
15283638058
15283643551
15283649350
15283655636
15283663205
15283668027
15283675168
15283680172
15283686337
15283693417
15283699215
15283705014
15283711056
15283717709
15283723996
15283729733
15283734921
15283742550
15283748227
15283754452
15283760311
15283767086
15283773312
15283778134
15283786190
15283791378
15283798092
15283802975
15283809506
15283815548
15283822018
15283827877
15283833492
15283839230
15283846371
15283853085
15283857845
15283864925
15283871212
15283878475
15283884884
15283889889
15283897640
15283902340
15283908199
15283914974
15283922787
15283928097
15283935177
15283941036
15283947506
15283952816
15283958797
15283965572
15283971920
15283977230
15283983516
15283990291
15283995601
15284002315
15284008602
15284015072
15284020992
15284026912
15284032711
15284039119
15284044735
15284049800
15284057857
15284063411
15284069759
15284075557
15284082210
15284087642
15284093074
15284101680
15284106624
15284113155
15284118465
15284124874
15284130367
15284136470
15284142696
15284148860
15284155818
15284160640
15284167903
15284172908
15284179744
15284184810
15284192195
15284197810
15284205257
15284209590
15284216426
15284223811
15284228145
15284236323
15284241328
15284248714
15284254756
15284260432
15284267268
15284273494
15284280024
15284286372
15284291499
15284297786
15284303889
15284311030
15284316829
15284322627
15284329219
15284334956
15284342036
15284348323
15284352717
15284360408
15284365535
15284373591
15284379206
15284385188
15284391169
15284397395
15284402827
15284408869
15284415095
15284422541
15284427973
15284434504
15284440791
15284445490
15284453059
15284459040
15284465754
15284471430
15284476618
15284483515
15284490046
15284495783
15284500605
15284508662
15284514765
15284520685
15284526301
15284532160
15284537592
15284542719
15284550532
15284556940
15284562250
15284567438
15284574335
15284579706
15284586359
15284592096
15284600519
15284604426
15284612055
15284618341
15284623407
15284630304
15284635981
15284643671
15284649347
15284654901
15284660883
15284666864
15284673212
15284679560
15284686457
15284691461
15284698480
15284704218
15284710199
15284716242
15284722345
15284729059
15284735407
15284742487
15284747247
15284754388
15284759149
15284765863
15284772211
15284778741
15284784418
15284790765
15284797296
15284803278
15284809930
15284815057
15284822443
15284828302
15284834527
15284839960
15284845758
15284852838
15284857660
15284866144
15284871148
15284878534
15284884515
15284890191
15284895623
15284901483
15284907403
15284914666
15284921197
15284925958
15284932733
15284938958
15284944696
15284950128
15284957208
15284962762
15284969293
15284976190
15284980462
15284987969
15284993035
15285000176
15285007379
15285012994
15285018487
15285024529
15285030145
15285036248
15285044000
15285050286
15285055413
15285062066
15285068780
15285073479
15285079949
15285086419
15285093194
15285098870
15285105218
15285112420
15285117120
15285123894
15285131035
15285137261
15285143059
15285150017
15285155388
15285161553
15285166924
15285173638
15285181084
15285186089
15285192864
15285197686
15285204400
15285210076
15285215996
15285222405
15285228264
15285235283
15285241509
15285247551
15285252556
15285260430
15285266167
15285272209
15285284050
15285290276
15285296684
15285301567
15285309807
15285314934
15285322380
15285327873
15285334160
15285339287
15285346184
15285354973
15285361076
15285366814
15285372856
15285378716
15285385185
15285390923
15285396965
15285403130
15285408989
15285416069
15285421379
15285427544
15285434624
15285440605
15285446647
15285452568
15285458488
15285464470
15285471061
15285476921
15285483818
15285488090
15285494377
15285500786
15285507194
15285512931
15285518852
15285524589
15285531242
15285537223
15285542472
15285548881
15285556205
15285562309
15285568595
15285572990
15285579887
15285585563
15285592033
15285598564
15285604545
15285610282
15285615714
15285621452
15285627433
15285633170
15285640250
15285647331
15285652580
15285658927
15285665397
15285671806
15285678642
15285683097
15285689628
15285695975
15285701102
15285707389
15285713370
15285719657
15285727408
15285733878
15285738578
15285747184
15285752311
15285756095
15285763602
15285769156
15285774039
15285779288
15285783622
15285790702
15285795524
15285800712
15285806754
15285812308
15285817191
15285822135
15285828604
15285835074
15285841239
15285847342
15285851798
15285859122
15285864798
15285872306
15285876395
15285884085
15285889762
15285897452
15285903861
15285909720
15285915701
15285920340
15285925223
15285932791
15285937857
15285944754
15285950369
15285955924
15285962271
15285968924
15285976675
15285982352
15285989676
15285995291
15286001456
15286008353
15286013785
15286019400
15286025137
15286031790
15286039358
15286043997
15286051504
15286056509
15286062491
15286068777
15286077078
15286081473
15286087881
15286093496
15286101553
15286106619
15286112967
15286118032
15286124319
15286131033
15286137014
15286142630
15286148245
15286155203
15286159658
15286166677
15286174185
15286180593
15286185720
15286190603
15286198416
15286204275
15286210256
15286217458
15286224355
15286228384
15286234914
15286241323
15286245779
15286254995
15286260061
15286267385
15286272756
15286279409
15286284902
15286290700
15286298330
15286302969
15286309988
15286316701
15286322195
15286329153
15286334768
15286341237
15286348623
15286352956
15286358938
15286365835
15286370290
15286377553
15286382863
15286391897
15286397634
15286403920
15286409963
15286416127
15286422902
15286429250
15286435781
15286441030
15286447927
15286452932
15286458608
15286465505
15286473012
15286478749
15286487050
15286494313
15286501149
15286506459
15286513600
15286519826
15286524159
15286531361
15286539418
15286544423
15286551503
15286558278
15286564748
15286570241
15286576466
15286583668
15286589772
15286595631
15286600209
15286607106
15286611928
15286619557
15286625600
15286631642
15286638417
15286644276
15286650746
15286655629
15286663136
15286668751
15286676198
15286682484
15286689991
15286696217
15286700795
15286707997
15286713368
15286719288
15286724659
15286731678
15286737294
15286743275
15286750050
15286754505
15286761280
15286767567
15286773426
15286778431
15286784962
15286791737
15286796131
15286802113
15286808216
15286814198
15286820728
15286825794
15286832569
15286837269
15286842640
15286848682
15286855824
15286860706
15286867420
15286874561
15286879932
15286885303
15286891224
15286898426
15286902637
15286909290
15286916065
15286921070
15286927479
15286932606
15286940174
15286945606
15286951038
15286957142
15286965259
15286970325
15286976246
15286982471
15286988453
15286993091
15286998829
15287003528
15287011341
15287017200
15287023304
15287029041
15287035205
15287041004
15287046497
15287052112
15287057727
15287063587
15287069812
15287075550
15287082141
15287087634
15287093799
15287098560
15287105152
15287110828
15287116687
15287122608
15287126941
15287132312
15287138721
15287146228
15287150989
15287158008
15287164417
15287169604
15287175586
15287180713
15287187122
15287194568
15287200244
15287205249
15287211963
15287216601
15287221179
15287227222
15287231982
15287239062
15287246325
15287251086
15287256274
15287261828
15287267016
15287272754
15287278918
15287285022
15287291003
15287296496
15287303943
15287308337
15287315661
15287320117
15287327929
15287332873
15287338794
15287343554
15287350634
15287355761
15287361743
15287366931
15287375720
15287381335
15287386462
15287391650
15287397387
15287402514
15287407824
15287413256
15287419787
15287425646
15287431262
15287436816
15287443835
15287449023
15287454821
15287461047
15287465563
15287470751
15287477221
15287481188
15287487841
15287493517
15287499193
15287506151
15287512926
15287518969
15287524096
15287531054
15287536181
15287542223
15287548510
15287554064
15287559191
15287566088
15287571093
15287577929
15287583605
15287589525
15287595812
15287603075
15287608751
15287613573
15287619921
15287624437
15287629564
15287635363
15287640917
15287646898
15287653917
15287658129
15287665209
15287669420
15287675218
15287681139
15287689012
15287694200
15287699816
15287706896
15287712023
15287716905
15287724168
15287729418
15287736375
15287742235
15287749132
15287754747
15287759813
15287766893
15287772874
15287779344
15287786363
15287790575
15287796800
15287802110
15287807970
15287813219
15287818834
15287825853
15287830369
15287836961
15287843065
15287848009
15287853868
15287858201
15287863939
15287871019
15287876146
15287883165
15287888841
15287895433
15287901231
15287907212
15287913438
15287919419
15287924974
15287931504
15287936875
15287942674
15287948045
15287953843
15287959642
15287965501
15287971238
15287976426
15287981675
15287987962
15287993638
15287999070
15288006577
15288011521
15288017869
15288022447
15288027757
15288033738
15288039231
15288043809
15288051865
15288057053
15288064500
15288069993
15288074998
15288079697
15288086655
15288092332
15288098069
15288104050
15288110520
15288116074
15288121812
15288127427
15288132981
15288138718
15288145371
15288152024
15288156235
15288162705
15288167099
15288173752
15288177903
15288185837
15288190842
15288196701
15288201462
15288208359
15288212998
15288219040
15288223679
15288230576
15288236618
15288242600
15288247910
15288253830
15288259201
15288264084
15288269577
15288276840
15288282822
15288288254
15288294174
15288300278
15288306076
15288312851
15288319992
15288324570
15288329758
15288336777
15288341965
15288348129
15288354111
15288358566
15288365707
15288372116
15288377670
15288382248
15288388657
15288393234
15288398605
15288405563
15288411911
15288417648
15288423874
15288429428
15288434799
15288439865
15288445297
15288451462
15288457626
15288463302
15288469772
15288475021
15288480819
15288486007
15288490890
15288496750
15288502487
15288510971
15288516342
15288524337
15288530075
15288536239
15288543685
15288549118
15288555038
15288560592
15288567611
15288573532
15288577743
15288584762
15288591232
15288596969
15288602523
15288606613
15288613815
15288617904
15288623092
15288628341
15288635909
15288640426
15288647201
15288651351
15288658248
15288663192
15288668685
15288674911
15288681991
15288687911
15288693282
15288698409
15288704879
15288709823
15288716842
15288722945
15288729781
15288735457
15288741805
15288747542
15288754195
15288759810
15288766036
15288770675
15288777205
15288784713
15288788924
15288794051
15288800093
15288805892
15288809981
15288818831
15288823897
15288829756
15288836104
15288841597
15288846236
15288852095
15288856673
15288865218
15288870711
15288875411
15288880049
15288886214
15288890791
15288897627
15288903243
15288908858
15288916243
15288921675
15288927474
15288933760
15288938765
15288944746
15288951033
15288957137
15288964156
15288968245
15288973433
15288980269
15288985884
15288990340
15288998396
15289003462
15289009382
15289014082
15289020308
15289025007
15289031599
15289036665
15289044111
15289049116
15289055342
15289060042
15289066084
15289070784
15289077498
15289083052
15289089399
15289095015
15289100080
15289105391
15289111677
15289116987
15289122358
15289128401
15289134809
15289140608
15289146772
15289152449
15289156599
15289161909
15289168257
15289175642
15289180280
15289186994
15289193159
15289198469
15289204633
15289209455
15289215681
15289222700
15289227888
15289234541
15289239240
15289245283
15289250227
15289256391
15289261274
15289270002
15289275861
15289280622
15289287763
15289293378
15289298994
15289304548
15289310590
15289317792
15289323469
15289329023
15289334150
15289339887
15289345136
15289350690
15289357465
15289363385
15289369184
15289375654
15289379743
15289387738
15289394330
15289399030
15289407148
15289412213
15289417524
15289423444
15289428754
15289434674
15289440106
15289446698
15289451947
15289458783
15289463727
15289468671
15289475263
15289482465
15289488263
15289493878
15289500897
15289506696
15289513287
15289517499
15289524457
15289530194
15289536176
15289541730
15289547528
15289551495
15289557965
15289563275
15289569134
15289574383
15289579816
15289587262
15289593915
15289598981
15289605511
15289611554
15289616742
15289623761
15289628766
15289637005
15289642865
15289648297
15289655438
15289661053
15289666729
15289672589
15289678997
15289684857
15289691937
15289697003
15289702313
15289708172
15289713421
15289719403
15289727459
15289732464
15289739727
15289744976
15289750469
15289756939
15289763043
15289767864
15289776104
15289782330
15289787090
15289793926
15289798321
15289804913
15289811627
15289817852
15289822186
15289829022
15289836285
15289840801
15289847393
15289852398
15289859966
15289865459
15289871868
15289876873
15289882976
15289889263
15289893841
15289901104
15289908184
15289913982
15289917888
15289924114
15289929546
15289936748
15289943950
15289949505
15289955425
15289960674
15289965984
15289972576
15289977276
15289985393
15289991436
15289997234
15290004619
15290009197
15290015728
15290020732
15290028728
15290032695
15290040142
15290046184
15290050456
15290056011
15290063701
15290069377
15290074687
15290081401
15290089275
15290094463
15290100932
15290107829
15290114177
15290121074
15290127666
15290134502
15290140727
15290147258
15290153789
15290159709
15290164592
15290171489
15290177409
15290183208
15290189860
15290195964
15290203410
15290209270
15290216289
15290222331
15290228984
15290235942
15290242900
15290249736
15290256389
15290263530
15290269084
15290277079
15290283244
15290290080
15290295451
15290303202
15290308757
15290316142
15290321452
15290326701
15290333049
15290338420
15290344340
15290350627
15290356852
15290362406
15290367900
15290374003
15290380290
15290385539
15290391825
15290398905
15290404215
15290409708
15290413554
15290420634
15290425517
15290434061
15290439616
15290446574
15290450541
15290457194
15290462260
15290469950
15290475993
15290481913
15290487589
15290492106
15290498575
15290505656
15290512858
15290518656
15290525065
15290530924
15290537821
15290544413
15290550638
15290556681
15290562845
15290570108
15290576944
15290582315
15290589518
15290596598
15290602518
15290610514
15290617289
15290623880
15290629129
15290636392
15290640848
15290648111
15290653360
15290659525
15290664347
15290669840
15290674539
15290682108
15290689310
15290695169
15290701212
15290706339
15290712991
15290721292
15290727029
15290734232
15290740457
15290745157
15290752237
15290758157
15290763711
15290770364
15290776956
15290782510
15290787210
15290792215
15290801797
15290806619
15290814004
15290819192
15290825845
15290831643
15290837747
15290844095
15290850198
15290856180
15290862405
15290866861
15290872110
15290879007
15290886331
15290892862
15290897256
15290902932
15290909341
15290916299
15290923196
15290930337
15290936441
15290942117
15290948342
15290954690
15290959939
15290966409
15290971414
15290978738
15290984048
15290988625
15290995156
15291001748
15291007546
15291013711
15291019997
15291026345
15291033364
15291039834
15291045632
15291051186
15291057961
15291064553
15291071206
15291076760
15291082497
15291089760
15291095437
15291102578
15291108620
15291115883
15291121621
15291129921
15291137185
15291143288
15291150368
15291157814
15291163430
15291169594
15291176491
15291183327
15291188149
15291195839
15291200539
15291207802
15291213112
15291219338
15291226662
15291231789
15291237404
15291245644
15291252541
15291258949
15291264626
15291271340
15291276405
15291282753
15291289894
15291295387
15291301735
15291308388
15291315346
15291320412
15291325966
15291332985
15291340797
15291348183
15291355385
15291360939
15291365883
15291373451
15291378883
15291385414
15291390053
15291395546
15291401649
15291406471
15291413917
15291420509
15291426613
15291432777
15291439186
15291444008
15291451942
15291458351
15291464821
15291470558
15291476600
15291480323
15291487220
15291494484
15291499366
15291505714
15291511573
15291516273
15291521949
15291527931
15291536659
15291541542
15291548622
15291555335
15291561378
15291567603
15291574012
15291581031
15291586768
15291594642
15291601112
15291607520
15291614661
15291621009
15291625404
15291632484
15291638953
15291646094
15291650123
15291659339
15291665931
15291671607
15291678687
15291684730
15291689307
15291696631
15291702491
15291709632
15291716468
15291721412
15291728492
15291734778
15291740577
15291746680
15291753943
15291760108
15291765601
15291772132
15291778785
15291784400
15291790747
15291796973
15291803687
15291809607
15291815345
15291823096
15291829016
15291835974
15291842627
15291847876
15291854834
15291861548
15291867591
15291874426
15291881690
15291888281
15291892798
15291901221
15291907813
15291912878
15291920142
15291926855
15291933752
15291940894
15291947546
15291953955
15291959143
15291966162
15291971899
15291978308
15291982275
15291988623
15291995032
15291999609
15292006140
15292012243
15292018042
15292022192
15292029272
15292035620
15292041723
15292047217
15292052099
15292059240
15292063879
15292069311
15292075720
15292083044
15292088720
15292093481
15292099951
15292106054
15292111853
15292117285
15292124487
15292129431
15292135229
15292141149
15292147070
15292152380
15292158361
15292164404
15292170690
15292176306
15292181005
15292188146
15292192724
15292199926
15292204870
15292214636
15292220495
15292226293
15292231542
15292237157
15292243017
15292248815
15292255285
15292261632
15292267065
15292273839
15292278661
15292283666
15292290807
15292297277
15292304235
15292311620
15292315954
15292322545
15292327733
15292333837
15292339147
15292346837
15292352453
15292358678
15292363988
15292369909
15292376195
15292380712
15292387365
15292394750
15292399511
15292406346
15292411290
15292416051
15292422826
15292431005
15292436498
15292443028
15292447728
15292453893
15292458837
15292464635
15292470006
15292478002
15292482396
15292488194
15292493504
15292499547
15292505040
15292511510
15292517125
15292523900
15292529149
15292535741
15292540746
15292546666
15292554173
15292559300
15292567113
15292574986
15292580113
15292586583
15292592137
15292597264
15292604649
15292611790
15292616673
15292624302
15292630284
15292635655
15292641636
15292648045
15292654026
15292659764
15292665257
15292671605
15292677891
15292681675
15292689488
15292695835
15292701878
15292707920
15292713963
15292719334
15292724766
15292732273
15292738682
15292744786
15292751255
15292757908
15292764256
15292770786
15292777317
15292783909
15292790440
15292795384
15292800999
15292807224
15292813206
15292818760
15292824863
15292832676
15292837925
15292844273
15292850620
15292857822
15292862461
15292870457
15292876865
15292881809
15292888523
15292895237
15292902439
15292907322
15292915317
15292919712
15292926365
15292930881
15292937046
15292943332
15292948703
15292953525
15292959934
15292964878
15292970371
15292977695
15292983677
15292990146
15292996616
15293002964
15293009250
15293015598
15293020664
15293026523
15293031589
15293037082
15293043003
15293048435
15293053867
15293059360
15293065280
15293071384
15293076755
15293082370
15293088413
15293093906
15293098911
15293104465
15293109287
15293114902
15293121188
15293127170
15293133762
15293138644
15293145053
15293151157
15293157138
15293165439
15293170077
15293176913
15293181613
15293189853
15293195407
15293201510
15293207065
15293214999
15293220736
15293226230
15293231112
15293238192
15293243747
15293248996
15293256442
15293261996
15293267917
15293273593
15293279513
15293286288
15293291903
15293296786
15293302462
15293308383
15293313632
15293318392
15293324740
15293331942
15293336886
15293344393
15293350619
15293356783
15293362216
15293367159
15293373080
15293378146
15293386263
15293390170
15293398470
15293403902
15293411044
15293418795
15293424654
15293429842
15293434786
15293441744
15293447543
15293454073
15293460970
15293467318
15293472750
15293479159
15293486178
15293492769
15293499727
15293504671
15293511751
15293518526
15293523409
15293529390
15293534578
15293543184
15293548922
15293556124
15293561556
15293567842
15293573092
15293579317
15293584261
15293590914
15293595797
15293602205
15293607027
15293612398
15293619173
15293623506
15293630403
15293636385
15293641939
15293647981
15293653414
15293658418
15293663667
15293668855
15293674165
15293680391
15293686006
15293691805
15293696016
15293702791
15293708406
15293712923
15293720064
15293725069
15293732393
15293736909
15293743013
15293747469
15293754610
15293759492
15293765596
15293770662
15293776643
15293781770
15293789277
15293794465
15293800630
15293806367
15293812715
15293818269
15293826265
15293832856
15293837556
15293842256
15293848359
15293855623
15293861848
15293868257
15293873994
15293880586
15293887910
15293894136
15293900666
15293908052
15293912629
15293920442
15293925019
15293929170
15293937470
15293941194
15293950532
15293956086
15293962739
15293968293
15293975068
15293980378
15293986970
15293993012
15293998444
15294005586
15294010957
15294016816
15294022126
15294029755
15294035554
15294040742
15294045991
15294053559
15294059724
15294065034
15294070222
15294077790
15294083649
15294089692
15294095612
15294101410
15294107575
15294113923
15294119965
15294126191
15294132416
15294137909
15294143891
15294149872
15294155854
15294162018
15294167572
15294172638
15294178131
15294183930
15294189545
15294195221
15294200653
15294206391
15294212250
15294217865
15294222016
15294228241
15294233002
15294238861
15294244354
15294249664
15294255768
15294262055
15294268097
15294275482
15294281159
15294287628
15294293305
15294298187
15294305206
15294310516
15294317596
15294323151
15294330048
15294335480
15294342255
15294347626
15294354034
15294358673
15294365021
15294370331
15294376617
15294381683
15294387909
15294392975
15294400177
15294405731
15294410797
15294416046
15294423736
15294429657
15294435272
15294441131
15294447235
15294453094
15294458038
15294465606
15294469940
15294475372
15294480865
15294486419
15294492218
15294497833
15294503448
15294509307
15294515899
15294521575
15294526824
15294532562
15294538909
15294543182
15294549346
15294555145
15294561187
15294567046
15294573211
15294579192
15294585479
15294590118
15294596709
15294602630
15294607085
15294612579
15294618011
15294623443
15294629607
15294633758
15294640655
15294649078
15294654632
15294661162
15294665557
15294672515
15294677459
15294683562
15294688323
15294694243
15294699004
15294704192
15294710296
15294716216
15294721038
15294727446
