15456484357
15456491131
15456498456
15456504193
15456509625
15456516827
15456525006
15456531659
15456538006
15456545636
15456549298
15456558148
15456565228
15456572064
15456579632
15456588482
15456595684
15456603009
15456610272
15456618512
15456627362
15456635174
15456640545
15456649700
15456656780
15456664471
15456673443
15456679547
15456686932
15456695965
15456701946
15456708477
15456715984
15456720379
15456728985
15456736736
15456745647
15456753399
15456760784
15456769878
15456777569
15456783855
15456793133
15456797466
15456807842
15456816692
15456826702
15456833111
15456841289
15456848552
15456858867
15456865093
15456871502
15456880352
15456888347
15456896038
15456904399
15456911968
15456919841
15456928447
15456934368
15456943462
15456950420
15456957744
15456963909
15456970744
15456976604
15456985393
15456991191
15456997600
15457008159
15457016094
15457022258
15457031291
15457040691
15457048564
15457056621
15457062968
15457070659
15457078410
15457086406
15457095683
15457103313
15457110271
15457117961
15457123515
15457131633
15457138286
15457147990
15457155803
15457163493
15457172282
15457179728
15457186198
15457192729
15457200785
15457208232
15457215007
15457222392
15457230570
15457237162
15457247599
15457254923
15457262187
15457269755
15457277384
15457284648
15457292582
15457299662
15457309367
15457317423
15457324442
15457333842
15457342692
15457350932
15457358744
15457364481
15457374064
15457380595
15457388651
15457396036
15457403849
15457411173
15457419047
15457427042
15457435648
15457444803
15457451761
15457462259
15457474588
15457483622
15457491068
15457500101
15457507425
15457517313
15457524759
15457533792
15457541239
15457550821
15457556131
15457566568
15457573953
15457583841
15457589151
15457599283
15457606668
15457618082
15457623575
15457634500
15457643411
15457652261
15457659708
15457668741
15457678201
15457685220
15457695291
15457703836
15457712198
15457718240
15457727273
15457736062
15457745523
15457752481
15457762002
15457771707
15457777993
15457787149
15457794595
15457804666
15457813272
15457821023
15457829934
15457837503
15457845864
15457853982
15457866250
15457875771
15457884988
15457893411
15457903298
15457911355
15457920388
15457928262
15457939065
15457947427
15457957680
15457964883
15457975442
15457985696
15457992531
15458002297
15458011513
15458019265
15458028603
15458037575
15458046303
15458054604
15458062661
15458071938
15458080117
15458089821
15458097390
15458108132
15458115273
15458124184
15458134377
15458144142
15458151406
15458160805
15458170876
15458176613
15458188881
15458194435
15458206093
15458214821
15458223427
15458231178
15458241371
15458249062
15458260292
15458266334
15458277199
15458284889
15458294594
15458301979
15458310707
15458319984
15458327980
15458336952
15458344581
15458354164
15458360695
15458370216
15458379005
15458388160
15458393714
15458405433
15458413795
15458421363
15458428565
15458439857
15458447303
15458456947
15458464027
15458474342
15458481788
15458492225
15458499244
15458504920
15458516944
15458522620
15458535072
15458544044
15458552711
15458561195
15458568946
15458579200
15458586463
15458597388
15458606544
15458614051
15458623267
15458632422
15458641761
15458649268
15458654883
15458668250
15458678016
15458687659
15458697364
15458703955
15458713477
15458720313
15458728308
15458735816
15458743384
15458751441
15458758704
15458764990
15458773230
15458779822
15458788672
15458795996
15458803198
15458810828
15458818518
15458825476
15458833716
15458841833
15458849951
15458858008
15458866370
15458873999
15458882361
15458885657
15458897803
15458906531
15458913794
15458923071
15458928991
15458938086
15458943884
15458952185
15458958166
15458965551
15458972082
15458981604
15458988928
15458996252
15459004003
15459009741
15459015356
15459027197
15459034155
15459043859
15459051550
15459057592
15459064916
15459071264
15459078405
15459086889
15459095251
15459102880
15459109533
15459117712
15459126623
15459135290
15459142126
15459148901
15459157934
15459166479
15459173498
15459182775
15459191259
15459196142
15459204259
15459210302
15459217870
15459221776
15459229772
15459233678
15459240880
15459244787
15459253148
15459257116
15459265111
15459269017
15459276159
15459281774
15459287572
15459293553
15459297887
15459303563
15459309056
15459314061
15459319676
15459325170
15459330846
15459336461
15459340978
15459348180
15459353795
15459360631
15459367650
15459372655
15459380406
15459386205
15459392796
15459399449
15459404210
15459409642
15459415807
15459420873
15459425694
15459432286
15459437230
15459442662
15459447728
15459454259
15459459996
15459468236
15459472508
15459480504
15459486485
15459492406
15459498326
15459506566
15459510594
15459518895
15459522740
15459531529
15459538243
15459545018
15459549839
15459556675
15459563267
15459567784
15459573582
15459579319
15459584202
15459590000
15459595555
15459601353
15459606358
15459612217
15459618199
15459622654
15459628514
15459634312
15459641697
15459647007
15459653782
15459660618
15459665928
15459670262
15459678135
15459683689
15459689671
15459695164
15459702244
15459707615
15459713596
15459718723
15459726475
15459730320
15459737827
15459741672
15459748936
15459754978
15459761082
15459766758
15459772983
15459777134
15459784702
15459792026
15459797336
15459803989
15459810459
15459817417
15459823093
15459830051
15459836399
15459841892
15459848484
15459855381
15459860325
15459866855
15459873996
15459880771
15459887729
15459893894
15459899570
15459905551
15459912448
15459918430
15459924594
15459931491
15459936801
15459943698
15459948947
15459954196
15459959140
15459965976
15459970859
15459976840
15459981784
15459988376
15459993930
15460001437
15460005588
15460013705
15460020419
15460027133
15460031345
15460038974
15460046542
15460052035
15460059054
15460065829
15460072604
15460077365
15460085483
15460090365
15460095736
15460102084
15460107516
15460112216
15460118014
15460124301
15460129733
15460134677
15460140902
15460145785
15460150973
15460156344
15460163974
15460169345
15460175570
15460180819
15460187289
15460192294
15460199313
15460204928
15460210971
15460216769
15460222689
15460226351
15460234042
15460237521
15460246798
15460253146
15460260165
15460265353
15460272372
15460279513
15460284945
15460292086
15460297518
15460305148
15460311434
15460318453
15460322420
15460330477
15460336581
15460342989
15460346651
15460355257
15460358858
15460367281
15460370882
15460379061
15460385103
15460391573
15460398165
15460404268
15460409945
15460416353
15460422335
15460428743
15460435701
15460440645
15460448092
15460452730
15460459261
15460465670
15460471651
15460476290
15460482759
15460489351
15460495089
15460501680
15460507418
15460512545
15460519564
15460525179
15460532564
15460538118
15460543855
15460547334
15460554537
15460558626
15460565950
15460569551
15460577547
15460583589
15460589937
15460596407
15460602449
15460607881
15460614107
15460620149
15460626253
15460632906
15460637422
15460643831
15460649873
15460656404
15460662935
15460668184
15460675081
15460681550
15460688630
15460694429
15460701448
15460707124
15460714082
15460720247
15460727876
15460732881
15460739961
15460745515
15460750520
15460756623
15460761567
15460769624
15460776399
15460782136
15460786714
15460792146
15460798432
15460802949
15460809236
15460815278
15460821870
15460827912
15460835114
15460839021
15460844697
15460850617
15460856416
15460862824
15460868379
15460873322
15460880219
15460885224
15460892121
15460897126
15460904450
15460910859
15460916840
15460922578
15460928010
15460933625
15460938996
15460942414
15460949982
15460957368
15460961823
15460968476
15460972748
15460978547
15460984101
15460989899
15460996003
15461002717
15461006867
15461012970
15461018830
15461023652
15461029938
15461035431
15461041779
15461047760
15461052399
15461058869
15461064118
15461068756
15461075226
15461081452
15461084992
15461093293
15461096710
15461105561
15461111298
15461116791
15461122711
15461128388
15461134491
15461138947
15461145905
15461151337
15461157013
15461162933
15461167328
15461173859
15461180145
15461184662
15461191010
15461195709
15461201202
15461207367
15461213898
15461218964
15461226227
15461229523
15461235992
15461240692
15461247955
15461251251
15461259796
15461266327
15461271759
15461276337
15461281769
15461288238
15461293731
15461298431
15461307159
15461312530
15461317230
15461323333
15461329254
15461335052
15461339630
15461346222
15461351532
15461358245
15461362823
15461369659
15461373077
15461380340
15461386627
15461391387
15461398407
15461404144
15461409820
15461415557
15461421112
15461426544
15461431854
15461438568
15461445770
15461450164
15461457000
15461461395
15461468231
15461472381
15461479217
15461485687
15461491241
15461496307
15461503753
15461508758
15461514739
15461519927
15461528350
15461534331
15461540557
15461546599
15461552093
15461557403
15461562774
15461566680
15461573577
15461579436
15461585235
15461590972
15461597564
15461603301
15461609588
15461614409
15461621123
15461627593
15461632354
15461638945
15461643889
15461649321
15461655303
15461660735
15461666106
15461673003
15461678130
15461685759
15461691558
15461697600
15461703337
15461709746
15461716399
15461722380
15461728240
15461734160
15461740508
15461746367
15461752226
15461756865
15461763091
15461768584
15461774321
15461780302
15461785857
15461790068
15461796538
15461803069
15461808257
15461814665
15461821196
15461826445
15461832793
15461838103
15461845427
15461851103
15461858671
15461863432
15461868925
15461872038
15461879851
15461883513
15461890654
15461897123
15461903166
15461907988
15461913847
15461920195
15461926603
15461931547
15461938139
15461943937
15461949797
15461954679
15461960905
15461966154
15461972074
15461977568
15461984465
15461990385
15461996122
15462001737
15462005155
15462011991
15462017301
15462024015
15462030058
15462036100
15462042326
15462048429
15462054228
15462059416
15462065336
15462069975
15462077421
15462083891
15462089445
15462094267
15462101835
15462106535
15462114530
15462119718
15462126798
15462132230
15462139371
15462143034
15462150297
15462157438
15462162015
15462168302
15462174589
15462180875
15462186857
15462193570
15462199613
15462205777
15462211454
15462218900
15462223111
15462229032
15462234952
15462239835
15462245633
15462251004
15462257413
15462262540
15462268521
15462273770
15462278592
15462285672
15462290372
15462295743
15462300748
15462308011
15462312589
15462319730
15462322904
15462331326
15462337735
15462342313
15462349637
15462355496
15462360440
15462365933
15462371732
15462377469
15462383023
15462390775
15462397183
15462402371
15462408841
15462413907
15462421414
15462427151
15462433072
15462440945
15462446744
15462452359
15462457913
15462463223
15462468716
15462473172
15462480618
15462486905
15462492764
15462497769
15462503262
15462508938
15462514370
15462520474
15462527859
15462533474
15462537808
15462545071
15462549954
15462556851
15462561978
15462569546
15462576138
15462581875
15462587918
15462593960
15462599514
15462605435
15462612149
15462617153
15462624661
15462628994
15462635403
15462641262
15462646633
15462650784
15462656948
15462663418
15462670681
15462673794
15462680569
15462685207
15462691128
15462695766
15462703152
15462706692
15462715542
15462722378
15462728054
15462734096
15462738552
15462746181
15462751980
15462759426
15462764858
15462772182
15462775478
15462783535
15462790127
15462796535
15462803127
15462807949
15462815151
15462819606
15462826015
15462832546
15462838039
15462845302
15462852016
15462855434
15462862270
15462869228
15462874843
15462880764
15462886745
15462892543
15462898769
15462905300
15462909938
15462915676
15462920986
15462928798
15462934841
15462940700
15462946864
15462952419
15462958888
15462963405
15462969875
15462975246
15462981899
15462986781
15462993251
15462998378
15463005031
15463011439
15463016505
15463023646
15463027980
15463034633
15463039332
15463045497
15463050441
15463056850
15463064235
15463070338
15463076381
15463080836
15463087794
15463092372
15463098353
15463104701
15463111415
15463116298
15463122462
15463127894
15463133632
15463140040
15463146571
15463153529
15463157985
15463165370
15463169581
15463176417
15463181727
15463187953
15463193812
15463199549
15463205226
15463210841
15463216517
15463222621
15463227931
15463236048
15463242030
15463245387
15463252833
15463256007
15463265040
15463270411
15463275477
15463282374
15463286829
15463293970
15463298670
15463305445
15463311427
15463317591
15463324244
15463330225
15463337916
15463343043
15463349268
15463352686
15463362696
15463369410
15463376917
15463382837
15463389490
15463398157
15463404505
15463411036
15463417811
15463425257
15463429102
15463436976
15463443628
15463450891
15463456873
15463462366
15463469934
15463474085
15463482325
15463488977
15463495508
15463499353
15463508081
15463513635
15463519922
15463525598
15463531824
15463537805
15463543848
15463548975
15463554773
15463561060
15463565454
15463571741
15463578455
15463584802
15463591943
15463598352
15463603723
15463611169
15463619043
15463625513
15463629297
15463640588
15463644495
15463653100
15463657495
15463665979
15463672449
15463679162
15463685327
15463691003
15463699243
15463706262
15463711877
15463718957
15463725915
15463731714
15463738610
15463744348
15463750879
15463756738
15463762963
15463769982
15463776452
15463782312
15463788476
15463793847
15463800622
15463805993
15463812829
15463816735
15463825158
15463831017
15463837426
15463842553
15463850121
15463855248
15463861840
15463868188
15463874841
15463881249
15463887841
15463893578
15463898034
15463904076
15463910729
15463917565
15463922936
15463929589
15463936791
15463942834
15463947838
15463953698
15463959862
15463964928
15463969689
15463977074
15463983544
15463988183
15463993310
15463999901
15464005089
15464011986
15464016930
15464024376
15464027855
15464034813
15464040917
15464046654
15464051293
15464057030
15464062950
15464068749
15464074547
15464081444
15464087975
15464093102
15464099816
15464106285
15464112816
15464120690
15464127159
15464133080
15464139244
15464144127
15464150780
15464156578
15464164269
15464169212
15464177391
15464180870
15464188316
15464191673
15464198936
15464204308
15464210045
15464215721
15464222252
15464228722
15464234032
15464240990
15464248070
15464253868
15464258995
15464264915
15464271629
15464277550
15464282554
15464289818
15464294334
15464302452
15464307701
15464313438
15464318565
15464325340
15464330345
15464335838
15464340782
15464347435
15464352134
15464358543
15464362144
15464369285
15464376243
15464381065
15464386924
15464392662
15464398338
15464404014
15464408653
15464414390
15464420371
15464426597
15464431724
15464438377
15464445396
15464450279
15464457237
15464462058
15464468345
15464474143
15464479514
15464484519
15464490440
15464496421
15464502097
15464506431
15464512778
15464517112
15464522605
15464530662
15464537009
15464542686
15464548850
15464555808
15464562217
15464567527
15464574546
15464580222
15464585166
15464590110
15464597312
15464603110
15464608970
15464612449
15464621848
15464628562
15464635154
15464639731
15464645591
15464651206
15464657004
15464661948
15464669089
15464675803
15464682090
15464688010
15464693259
15464699423
15464704306
15464710288
15464717307
15464722434
15464727255
15464733969
15464739523
15464745261
15464750632
15464758627
15464764609
15464770468
15464776205
15464784018
15464789023
15464795309
15464798666
15464807089
15464811179
15464819113
15464825827
15464830893
15464837118
15464841574
15464848959
15464854635
15464861838
15464867209
15464874167
15464880697
15464886862
15464892172
15464899069
15464905844
15464911764
15464918295
15464925375
15464931479
15464937948
15464942648
15464949240
15464955709
15464962606
15464967550
15464974142
15464978536
15464984579
15464990743
15464995199
15465001669
15465006857
15465011373
15465018209
15465023031
15465028524
15465033224
15465039083
15465044210
15465050192
15465055135
15465061178
15465067770
15465072897
15465079244
15465085714
15465092062
15465097921
15465103719
15465110189
15465115682
15465122823
15465127950
15465135274
15465141073
15465147726
15465152975
15465160360
15465164022
15465171590
15465177938
15465184469
15465190999
15465197652
15465201864
15465209920
15465213887
15465222005
15465227620
15465234945
15465241414
15465246663
15465251912
15465259603
15465266011
15465270772
15465275960
15465283467
15465289571
15465295369
15465300862
15465306417
15465310506
15465316121
15465319539
15465326680
15465330098
15465337361
15465343282
15465349019
15465353658
15465359761
15465363179
15465371297
15465377339
15465383504
15465387898
15465394368
15465400044
15465405843
15465410725
15465416707
15465422444
15465428242
15465433064
15465438618
15465443074
15465448750
15465453694
15465460652
15465466511
15465472798
15465477253
15465483662
15465490071
15465495381
15465503132
15465509541
15465515461
15465522419
15465527974
15465534932
15465540303
15465547383
15465553364
15465559162
15465565571
15465572834
15465579121
15465584614
15465591084
15465596150
15465602558
15465608051
15465613484
15465620014
15465625935
15465631672
15465637714
15465644734
15465652363
15465656025
15465662922
15465668049
15465675922
15465682636
15465689106
15465695759
15465700153
15465703632
15465711079
15465717121
15465721455
15465727497
15465733173
15465738483
15465742817
15465748493
15465754108
15465759601
15465765339
15465769916
15465776569
15465783222
15465790180
15465796711
15465801838
15465810260
15465816730
15465822284
15465830036
15465836872
15465842975
15465849872
15465855976
15465861774
15465866474
15465873798
15465879230
15465886127
15465892169
15465897785
15465904437
15465909870
15465914997
15465923602
15465929096
15465933612
15465940143
15465944965
15465951862
15465957904
15465963947
15465971393
15465977557
15465982623
15465988544
15465993854
15465999591
15466005633
15466011371
15466018939
15466022174
15466030231
15466036700
15466042621
15466048907
15466055743
15466062152
15466067157
15466074237
15466078937
15466086627
15466089862
15466099505
15466106036
15466112201
15466117694
15466123980
15466129657
15466134356
15466141680
15466148455
15466154071
15466160479
15466164691
15466172015
15466178240
15466184283
15466189837
15466197650
15466203082
15466209307
15466215472
15466221270
15466227007
15466233172
15466239581
15466245867
15466251788
15466256426
15466262530
15466269244
15466275530
15466281878
15466287859
15466293780
15466299639
15466306231
15466312273
15466317339
15466325030
15466331377
15466336260
15466344378
15466347796
15466354693
15466359881
15466366717
15466373797
15466380083
15466385576
15466391619
15466397478
15466402361
15466409502
15466415361
15466422014
15466427446
15466433123
15466439287
15466444963
15466451067
15466457354
15466464128
15466469011
15466475908
15466480608
15466487810
15466491167
15466499346
15466506731
15466513078
15466518633
15466522783
15466528642
15466534868
15466541216
15466548967
15466554826
15466558366
15466565874
15466572404
15466577959
15466583879
15466591142
15466597612
15466602190
15466608171
15466612810
15466619951
15466625261
15466632890
15466639360
15466645219
15466651689
15466656083
15466662614
15466668840
15466674394
15466681962
15466688798
15466692155
15466699662
15466706315
15466711992
15466717057
15466725663
15466731767
15466736406
15466742692
15466747392
15466753923
15466759416
15466766313
15466773576
15466779679
15466785111
15466790849
15466796891
15466802751
15466808915
15466813737
15466820817
15466825578
15466833146
15466838639
15466844254
15466850236
15466856583
15466862931
15466869584
15466874528
15466880692
15466887101
15466891862
15466898942
15466906510
15466912553
15466918656
15466923112
15466929459
15466935441
15466941422
15466948746
15466954178
15466958939
15466966141
15466969559
15466978043
15466982743
15466991776
15466997757
15467002030
15467009720
15467014542
15467020890
15467025711
15467033280
15467040604
15467046463
15467052079
15467057511
15467064225
15467070389
15467077469
15467083023
15467089127
15467095230
15467100662
15467106705
15467112320
15467117935
15467126663
15467132095
15467136673
15467142838
15467147476
15467154556
15467159317
15467167068
15467174026
15467179947
15467186233
15467192093
15467197220
15467203140
15467209305
15467214493
15467222183
15467228775
15467234329
15467240005
15467245560
15467251968
15467258743
15467264419
15467270401
15467275406
15467282303
15467288040
15467293411
15467299698
15467307327
15467313308
15467318924
15467324783
15467330398
15467336135
15467342056
15467348831
15467356094
15467359451
15467366531
15467373184
15467378677
15467384719
15467391006
15467397537
15467403945
15467408706
15467414871
15467420669
15467426711
15467433303
15467438247
15467446243
15467452529
15467458266
15467464370
15467470168
15467476028
15467482742
15467488723
15467493484
15467500136
15467504775
15467512649
15467516067
15467524734
15467530959
15467536635
15467542434
15467549209
15467555739
15467560683
15467567702
15467573195
15467580398
15467584548
15467591323
15467597243
15467602797
15467609084
15467616713
15467623977
15467628615
15467634536
15467639357
15467647353
15467650710
15467658156
15467665785
15467670424
15467676650
15467682387
15467688857
15467694838
15467700575
15467706008
15467713820
15467720046
15467725722
15467730483
15467735854
15467742812
15467750441
15467756483
15467761183
15467767836
15467772841
15467779616
15467785048
15467790968
15467798109
15467804213
15467810072
15467816115
15467821303
15467827528
15467832411
15467839613
15467847120
15467850477
15467858290
15467864821
15467870314
15467875319
15467881666
15467888868
15467894850
15467900160
15467906263
15467911390
15467918226
15467923536
15467928907
15467936476
15467942457
15467948011
15467954481
15467960157
15467966322
15467972853
15467979078
15467983900
15467991468
15467995497
15468002943
15468006727
15468016371
15468022718
15468029005
15468034071
15468040052
15468045240
15468051466
15468057691
15468065443
15468071363
15468075574
15468082532
15468089063
15468094617
15468100172
15468107313
15468113477
15468119581
15468125074
15468130140
15468137464
15468142957
15468149427
15468157239
15468161573
15468167615
15468173169
15468180188
15468184461
15468191053
15468197461
15468204786
15468208265
15468216443
15468219617
15468227674
15468233899
15468240613
15468247388
15468253675
15468259351
15468264112
15468270581
15468275159
15468281995
15468289624
15468295423
15468300855
15468306531
15468312940
15468319043
15468323987
15468331128
15468337842
15468342419
15468348218
15468355115
15468360913
15468364270
15468372632
15468378979
15468385083
15468391492
15468397717
15468403332
15468407971
15468415234
15468423230
15468429150
15468434826
15468440381
15468446972
15468454236
15468461133
15468466382
15468473584
15468476880
15468484021
15468490063
15468495800
15468501660
15468508374
15468514904
15468519421
15468526013
15468530468
15468538098
15468543896
15468550915
15468556835
15468562695
15468567394
15468573559
15468578442
15468585095
15468589916
15468595104
15468600170
15468606640
15468611523
15468617993
15468621533
15468628918
15468632458
15468640514
15468647350
15468652172
15468657848
15468664013
15468670238
15468676464
15468680859
15468686779
15468692455
15468698070
15468703503
15468709301
15468714428
15468720043
15468725536
15468730968
15468737377
15468743969
15468751171
15468756603
15468764171
15468769664
15468776439
15468783092
15468788707
15468793529
15468798656
15468804760
15468809887
15468814769
15468820812
15468826122
15468831981
15468836864
15468844188
15468850048
15468857311
15468863658
15468869701
15468875011
15468882213
15468885875
15468892589
15468898021
15468904552
15468908092
15468915050
15468918468
15468925487
15468931041
15468936900
15468943065
15468948375
15468955089
15468961803
15468968089
15468972972
15468979137
15468985423
15468990977
15468996898
15469002635
15469008800
15469014598
15469020396
15469026744
15469032298
15469037120
15469041881
15469049998
15469053904
15469061595
15469068004
15469073924
15469078929
15469084666
15469090037
15469095897
15469101146
15469106883
15469112071
15469117747
15469123301
15469128123
15469135142
15469140635
15469146067
15469152537
15469159129
15469164195
15469169566
15469175669
15469181590
15469187510
15469193675
15469199046
15469207102
15469211070
15469219309
15469224558
15469232493
15469236155
15469244456
15469250254
15469257029
15469262339
15469267954
15469273508
15469277903
15469283823
15469289500
15469295481
15469299937
15469307810
15469314524
15469320139
15469327280
15469333933
15469338450
15469344492
15469350779
15469356333
15469362192
15469367685
15469374643
15469380503
15469385508
15469391489
15469396372
15469403147
15469406809
15469414621
15469418344
15469426584
15469434336
15469440988
15469447824
15469452707
15469459055
15469464792
15469471994
15469477915
15469485788
15469491159
15469497385
15469502451
15469508676
15469513803
15469520090
15469524851
15469531931
15469535532
15469542490
15469546030
15469553598
15469559213
15469565073
15469571054
15469576974
15469581918
15469587961
15469593088
15469599924
15469605539
15469612253
15469618112
15469625131
15469630380
15469637521
15469643136
15469650583
15469656198
15469663278
15469669565
15469674264
15469680185
15469685128
15469691842
15469697213
15469703378
15469708810
15469715951
15469721994
15469728219
15469731881
15469739938
15469746652
15469753366
15469758309
15469765206
15469772347
15469777413
15469783029
15469788827
15469795419
15469799935
15469805612
15469811532
15469817941
15469822579
15469828194
15469835519
15469842599
15469851022
15469855965
15469863045
15469868478
15469873360
15469880318
15469885384
15469892342
15469897774
15469905099
15469908822
15469916634
15469920296
15469929146
15469936287
15469944039
15469950081
15469957039
15469963875
15469969857
15469976265
15469982796
15469987618
15469993599
15469999886
15470006173
15470013253
15470018257
15470026192
15470031319
15470039437
15470044991
15470052193
15470057747
15470065254
15470070931
15470077889
15470083565
15470090706
15470095833
15470102608
15470107674
15470114510
15470119881
15470127083
15470133125
15470140816
15470147469
15470153938
15470161018
15470167488
15470173103
15470181160
15470187080
15470193123
15470199104
15470205208
15470211006
15470217048
15470223335
15470229866
15470236641
15470241707
15470249824
15470254951
15470261726
15470268257
15470275215
15470282417
15470288337
15470295051
15470300911
15470307380
15470312568
15470317756
15470325141
15470330268
15470336799
15470341804
15470349189
15470356941
15470363532
15470369453
15470375678
15470382331
15470390510
15470395515
15470401801
15470409004
15470415534
15470422004
15470428901
15470435065
15470441413
15470447578
15470454597
15470461250
15470466987
15470474067
15470480353
15470485602
15470492988
15470500251
15470506110
15470511420
15470517097
15470524604
15470529120
15470534980
15470540961
15470546760
15470552802
15470558722
15470566474
15470572211
15470576056
15470582465
15470589423
15470595038
15470601264
15470608100
15470613349
15470619391
15470625861
15470630561
15470637885
15470643134
15470650519
15470656439
15470662177
15470667792
15470673773
15470679389
15470685553
15470692145
15470697394
15470704840
15470710639
15470717658
15470723090
15470728644
15470734137
15470740607
15470747687
15470752509
15470760260
15470765814
15470772040
15470777411
15470784308
15470790900
15470796637
15470803046
15470807257
15470814215
15470820440
15470826544
15470831488
15470839056
15470844427
15470850470
15470856024
15470861761
15470867987
15470874945
15470882452
15470886847
15470894354
15470899115
15470905584
15470910162
15470916815
15470924017
15470929754
15470934942
15470940435
15470947637
15470953253
15470958441
15470965093
15470972051
15470977606
15470983404
15470990240
15470995794
15471001226
15471008367
15471014532
15471020818
15471026067
15471032110
15471037969
15471043340
15471051519
15471057989
15471063787
15471069707
15471075445
15471080572
15471086736
15471093511
15471101079
15471107000
15471124395
15471130498
15471136602
15471142583
15471147832
15471155645
15471161687
15471167547
15471174321
15471180547
15471186223
15471191594
15471198186
15471202703
15471210454
15471217351
15471222661
15471227605
15471234502
15471239812
15471247808
15471251287
15471259282
15471265630
15471272283
15471278935
15471284734
15471291020
15471298161
15471303777
15471308782
15471315923
15471321355
15471327031
15471332402
15471341008
15471346013
15471351872
15471355351
15471363286
15471368901
15471374821
15471380742
15471387150
15471393193
15471400151
15471405949
15471410954
15471417729
15471422795
15471429509
15471435551
15471443547
15471449345
15471453923
15471460881
15471467595
15471474675
15471479680
15471486149
15471493657
15471499394
15471505070
15471512028
15471518803
15471524601
15471530522
15471534916
15471541325
15471547611
15471554203
15471559147
15471565800
15471571171
15471578007
15471583744
15471589481
15471595097
15471602970
15471609501
15471614506
15471622196
15471625980
15471633671
15471639957
15471646122
15471651493
15471657413
15471663944
15471668766
15471674503
15471679325
15471686771
15471693851
15471699833
15471704716
15471710453
15471716556
15471722416
15471729252
15471734257
15471740299
15471746464
15471751713
15471757999
15471764530
15471769291
15471775455
15471780460
15471787723
15471793705
15471799686
15471806095
15471811710
15471817752
15471823185
15471829776
15471836063
15471842288
15471847171
15471853214
15471858097
15471865726
15471871707
15471877445
15471881046
15471889469
15471893497
15471902103
15471908084
15471913272
15471920108
15471926578
15471932437
15471937564
15471945193
15471951053
15471958194
15471963992
15471970035
15471975894
15471982181
15471987430
15471992129
15471999454
15472005374
15472011233
15472017337
15472023013
15472028018
15472034427
15472041812
15472046512
15472052371
15472058352
15472063846
15472070132
15472075137
15472081729
15472087161
15472092837
15472100222
15472106509
15472112246
15472117800
15472123416
15472129397
15472134768
15472141543
15472147769
15472153018
15472159060
15472165530
15472170901
15472177432
15472182559
15472190737
15472197634
15472203494
15472209048
15472214663
15472220339
15472227847
15472233279
15472238161
15472244509
15472249575
15472256350
15472261721
15472268862
15472274782
15472281496
15472288088
15472294008
15472300234
15472304507
15472310183
15472316408
15472323672
15472330385
15472335879
15472340822
15472346743
15472351503
15472359804
15472365786
15472371462
15472375856
15472381655
15472387453
15472392946
15472399050
15472406191
15472412355
15472418886
15472424745
15472429567
15472435854
15472441408
15472447145
15472453615
15472459474
15472466005
15472471681
15472476808
15472482607
15472488222
15472494508
15472500429
15472507204
15472513185
15472520143
15472525941
15472529359
15472537111
15472544069
15472549989
15472556154
15472561952
15472567689
15472572328
15472579286
15472586000
15472592775
15472597780
15472605348
15472611024
15472617494
15472622377
15472629213
15472635133
15472641542
15472647950
15472654115
15472659791
15472665468
15472672487
15472678285
15472684205
15472689271
15472697389
15472703553
15472709596
15472715150
15472721009
15472726625
15472732423
15472737611
15472744264
15472750550
15472756288
15472762025
15472768311
15472773438
15472780274
15472786805
15472791505
15472798341
15472804017
15472811585
15472817262
15472823121
15472828614
15472834168
15472840333
15472846131
15472852540
15472859254
15472864564
15472869508
15472876343
15472881837
15472889771
15472895386
15472901612
15472908021
15472914185
15472920167
15472925721
15472931153
15472936829
15472942872
15472949036
15472955811
15472962098
15472967774
15472973877
15472979432
15472984253
15472992676
15472996827
15473004883
15473010926
15473016724
15473022461
15473028076
15473033692
15473041748
15473048218
15473053284
15473059387
15473064270
15473070435
15473075256
15473082031
15473087219
15473094971
15473101379
15473107849
15473113525
15473119324
15473125183
15473131531
15473137756
15473143494
15473150879
15473156250
15473162048
15473166931
15473174621
15473178284
15473186645
15473192322
15473198120
15473204346
15473210266
15473216308
15473222656
15473229919
15473234863
15473241638
15473245300
15473252380
15473260132
15473266662
15473272339
15473276916
15473284912
15473289856
15473296753
15473302978
15473309509
15473314514
15473320800
15473325744
15473332153
15473337524
15473343933
15473350830
15473357665
15473363891
15473368408
15473376159
15473381530
15473387389
15473394347
15473400939
15473404540
15473412780
15473419433
15473425170
15473430602
15473434936
15473440917
15473448119
15473455321
15473460265
15473465942
15473472594
15473477294
15473482299
15473490356
15473493835
15473502624
15473507934
15473514525
15473520812
15473526671
15473532531
15473537291
15473544188
15473551207
15473557006
15473561828
15473568358
15473575133
15473581237
15473584899
15473592894
15473599791
15473605651
15473611510
15473618102
15473625792
15473632018
15473638182
15473643187
15473651000
15473656615
15473662901
15473669859
15473675658
15473683470
15473690733
15473696715
15473703124
15473707457
15473713927
15473720519
15473725890
15473731139
15473738768
15473744688
15473750304
15473755797
15473762694
15473768553
15473775145
15473781309
15473787108
15473792174
15473797789
15473803587
15473811949
15473817564
15473822325
15473829039
15473834715
15473842161
15473845762
15473853392
15473859434
15473865294
15473871153
15473877317
15473884153
15473888609
15473895811
15473900694
15473907286
15473912901
15473920591
15473926084
15473931394
15473937071
15473945310
15473948850
15473956480
15473962339
15473968138
15473973631
15473980161
15473985960
15473993040
15473998472
15474004636
15474010069
15474015195
15474022459
15474027525
15474036130
15474041441
15474047117
15474052549
15474058774
15474065855
15474072507
15474078062
15474084958
15474090818
15474096128
15474103086
15474108274
15474115171
15474121274
15474127378
15474133481
15474137754
15474144101
15474150510
15474157773
15474162351
15474170041
15474175046
15474181333
15474186948
15474193418
15474199338
15474205197
15474211362
15474217160
15474223569
15474230100
15474236936
15474243283
15474249448
15474255368
15474261350
15474267819
15474274655
15474281003
15474285886
15474292111
15474297116
15474304013
15474310483
15474317136
15474320615
15474328610
15474335324
15474341611
15474347897
15474352475
15474358517
15474364682
15474371518
15474377255
15474383237
15474388119
15474395749
15474401791
15474407590
15474412411
15474419125
15474425717
15474431576
15474438229
15474443844
15474450375
15474456601
15474462277
15474467099
15474473324
15474478695
15474487057
15474493039
15474498715
15474504086
15474509823
15474516598
15474523251
15474528195
15474534786
15474540890
15474547238
15474554318
15474561276
15474567135
15474573483
15474579220
15474585445
15474590389
15474597042
15474601925
15474608700
15474613949
15474621212
15474627438
15474632992
15474638973
15474644772
15474650570
15474656612
15474662105
15474669124
15474675350
15474680782
15474685726
15474690609
15474698177
15474704281
15474712093
15474718502
15474723385
15474731685
15474738704
15474746273
15474751278
15474757930
15474764461
15474770809
15474776912
15474784053
15474790096
15474795101
15474802364
15474806209
15474814205
15474819637
15474826412
15474831722
15474840328
15474844234
15474855159
15474860164
15474865779
15474871456
15474877071
15474882503
15474886836
15474892268
15474898128
15474904048
15474908321
15474914241
15474918697
15474924922
15474931209
15474936946
15474941707
15474948054
15474954707
15474959651
15474966670
15474973140
15474978816
15474985469
15474991145
15474997127
15475004024
15475010188
15475016169
15475025203
15475031001
15475036616
15475042231
15475048030
15475052974
15475059260
15475065059
15475071650
15475077266
15475084040
15475090571
15475095820
15475102412
15475109065
15475116145
15475121455
15475128230
15475135188
15475141596
15475146784
15475153132
15475159846
15475163142
15475172602
15475177668
15475184077
15475189753
15475195246
15475200922
15475207148
15475211909
15475218317
15475224970
15475231501
15475237543
15475242365
15475248957
15475254084
15475261042
15475267573
15475273432
15475279780
15475286616
15475293635
15475299799
15475305536
15475312189
15475317499
15475324823
15475330683
15475337275
15475342157
15475350153
15475355585
15475364740
15475368341
15475377558
15475385065
15475391718
15475397455
15475402399
15475409235
15475415521
15475422418
15475427851
15475434870
15475439935
15475446527
15475452020
15475458368
15475464960
15475471918
15475477594
15475483331
15475489618
15475495416
15475501703
15475507928
15475515436
15475520135
15475526056
15475532037
15475538751
15475544488
15475552179
15475558282
15475564264
15475570001
15475576349
15475582574
15475588006
15475596673
15475601678
15475608087
15475614129
15475620233
15475626581
15475633172
15475639764
15475645807
15475651971
15475657464
15475663934
15475669671
15475676629
15475682855
15475687188
15475694512
15475701776
15475706292
15475713922
15475718926
15475724908
15475730828
15475738763
15475742303
15475752068
15475757562
15475762139
15475769586
15475776605
15475782464
15475789483
15475795831
15475802483
15475808648
15475814446
15475820977
15475827935
15475832879
15475839043
15475846307
15475851556
15475856988
15475864922
15475871392
15475877251
15475884637
15475890008
15475896233
15475901665
15475908867
15475915154
15475921380
15475928460
15475932793
15475940178
15475947075
15475952752
15475958428
15475966362
15475972588
15475978447
15475983879
15475990044
15475997673
15476005669
15476011528
15476018059
15476024285
15476032585
15476037468
15476043938
15476049126
15476058281
15476063774
15476069756
15476075188
15476081474
15476088432
15476093681
15476100945
15476105766
15476113274
15476119499
15476125175
15476130913
15476137627
15476143547
15476149834
15476155998
15476163933
15476169792
15476175407
15476182304
15476188713
15476194633
15476202080
15476206962
15476213676
15476218925
15476226066
15476233207
15476239250
15476244865
15476250847
15476256767
15476263664
15476269340
15476275199
15476282829
15476289543
15476295280
15476301383
15476307365
15476313774
15476321037
15476327629
15476332572
15476338920
15476344352
15476351188
15476357658
15476363944
15476370231
15476376457
15476382011
15476387504
15476394523
15476400077
15476406669
15476412833
15476419120
15476425956
15476430595
15476437736
15476443107
15476450248
15476453727
15476462211
15476468375
15476475455
15476484488
15476493522
15476502921
15476513053
15476520377
15476527579
15476535514
15476544974
15476552909
15476560843
15476571585
15476583915
15476592887
15476601859
15476611441
15476622061
15476631522
15476641165
15476649527
15476659232
15476668997
15476677664
15476688162
15476698904
15476708304
15476719046
15476728140
15476738516
15476747061
15476755545
15476764883
15476774954
15476784476
15476792654
15476803824
15476812552
15476821341
15476830069
15476838980
15476848379
15476858877
15476866446
15476875479
15476887075
15476895986
15476904714
15476913259
15476924612
15476931875
15476944265
15476952261
15476961782
15476971426
15476978017
15476988027
15476995840
15477004202
15477011160
15477023061
15477033742
15477042043
15477050954
15477059926
15477068532
15477077444
15477087087
15477096486
15477104909
15477114126
15477123281
15477131459
15477141225
15477149831
15477159414
15477168264
15477177663
15477183644
15477189626
15477195790
15477201650
15477207265
15477213491
15477221547
15477226186
15477233144
15477237599
15477245839
15477250905
15477257070
15477264577
15477270009
15477275258
15477281667
15477286671
15477294240
15477299977
15477306020
15477313161
15477319081
15477323109
15477329884
15477335927
15477341542
15477347157
15477353566
15477360219
15477364491
15477371205
15477375416
15477381703
15477387562
15477393361
15477400258
15477406483
15477411549
15477417592
15477424000
15477429554
15477434376
15477441090
15477448475
15477454457
15477457692
15477465077
15477470570
15477476429
15477481861
15477488270
15477495716
15477501515
15477506031
15477511585
15477517628
15477523304
15477528797
15477535572
15477542225
15477546436
15477553150
15477559071
15477564564
15477569019
15477575245
15477581959
15477587452
15477593311
15477598682
15477603443
15477610645
15477615345
15477620899
15477628651
15477634754
15477640613
15477646656
15477650013
15477657947
15477665211
15477672169
15477679066
15477684864
15477690174
15477695728
15477702076
15477706287
15477711780
15477717945
15477724415
15477730701
15477737110
15477742176
15477749134
15477754200
15477760913
15477767932
15477773792
15477777271
15477784778
15477790210
15477795948
15477799304
15477807422
15477813343
15477819202
15477824512
15477830066
15477836109
15477841663
15477847766
15477855090
15477861194
15477866382
15477873035
15477877734
15477883350
15477889392
15477894946
15477902026
15477907275
15477912463
15477919055
15477923999
15477930835
15477935718
15477943225
15477949634
15477955676
15477962146
15477967639
15477973315
15477978930
15477984241
15477991015
15477997668
15478004260
15478010058
15478016894
15478023913
15478027819
15478036242
15478039843
15478048449
15478054675
15478060717
15478067431
15478073474
15478078234
15478084948
15478092028
15478098132
15478103442
15478109362
15478116320
15478122851
15478128832
15478133715
15478140368
15478146227
15478150805
15478156847
15478162768
15478169177
15478174670
15478179919
15478187548
15478192675
15478199877
15478205798
15478211962
15478219225
15478224291
15478232287
15478238146
15478242907
15478248400
15478254137
15478259752
15478266344
15478273241
15478278979
15478285570
15478291735
15478296618
15478302965
15478307726
15478314684
15478322496
15478328295
15478333849
15478339525
15478342882
15478350145
15478355516
15478362230
15478368395
15478374742
15478381578
15478386339
15478392870
15478398363
15478403856
15478410204
15478417772
15478422533
15478430162
15478435228
15478440965
15478447191
15478453417
15478458543
15478466051
15478469408
15478477464
15478483812
15478489732
15478492967
15478501512
15478508653
15478514574
15478519762
15478525560
15478531847
15478537645
15478543565
15478550462
15478555345
15478561265
15478566148
15478572069
15478577989
15478584154
15478590501
15478595689
15478602037
15478606614
15478613328
15478618150
15478624864
15478629686
15478636705
15478643113
15478649339
15478653550
15478660752
15478664842
15478672044
15478677720
15478686631
15478692674
15478697251
15478705003
15478709580
15478716111
15478720811
15478727952
15478732957
15478740403
15478746324
15478752244
15478755723
15478763108
15478768906
15478775132
15478780930
15478787278
15478793931
15478800156
15478806504
15478812791
15478818894
15478824448
15478832566
15478837815
15478844895
15478850022
15478855881
15478862046
15478867905
15478872849
15478880112
15478885605
15478891221
15478897202
15478903000
15478906174
15478915879
15478921982
15478928330
15478933823
15478939988
15478946274
15478951889
15478957627
15478964096
15478969529
15478975449
15478980393
15478986618
15478992722
15478997666
15479005600
15479009384
15479017563
15479021164
15479029831
15479035813
15479042038
15479049362
15479054489
15479062302
15479068100
15479072800
15479078415
15479085190
15479089584
15479095932
15479103867
15479110397
15479115097
15479122116
15479126938
15479134018
15479139206
15479146896
15479153122
15479159103
15479165024
15479170700
15479176193
15479181747
15479187362
15479194320
15479200424
15479206039
15479212448
15479216781
15479222885
15479228500
15479236251
15479242111
15479248886
15479253646
15479260299
15479265060
15479271652
15479276412
15479282943
15479288803
15479295639
15479301681
15479307357
15479313033
15479318649
15479324264
15479330856
15479336288
15479342452
15479347823
15479353866
15479360030
15479364730
15479371566
15479376815
15479383834
15479388534
15479395553
15479401168
15479406722
15479412093
15479418746
15479424483
15479430892
15479437179
15479442855
15479448592
15479454268
15479461043
15479468368
15479473739
15479479903
15479486251
15479491073
15479497542
15479502303
15479507674
15479515731
15479521712
15479527266
15479532882
15479538558
15479544295
15479550338
15479557051
15479563155
15479568770
15479574385
15479580001
15479585677
15479591109
15479597335
15479604109
15479609908
15479616500
15479622237
15479627364
15479634444
15479639632
15479647505
15479652266
15479659529
15479665877
15479671614
15479674971
15479682173
15479688460
15479694624
15479702010
15479706587
15479712935
15479719099
15479724226
15479730574
15479735884
15479742537
15479747481
15479753767
15479759749
15479766340
15479772993
15479778303
15479785933
15479791182
15479796736
15479799971
15479807417
15479813154
15479818770
15479824568
15479831282
15479834700
15479842146
15479845564
15479853376
15479856794
15479865644
15479872480
15479879377
15479885115
15479890669
15479896284
15479901777
15479906965
15479912519
15479919294
15479923811
15479930097
15479936445
15479942793
15479947981
15479954389
15479960493
15479966840
15479971967
15479978498
15479983381
15479990461
15479995527
15480002302
15480007246
15480014875
15480018293
15480027387
15480030927
15480039167
15480045453
15480051679
15480057660
15480064008
15480070417
15480076032
15480081159
15480086774
15480092695
15480098798
15480103864
15480110395
15480116071
15480122174
15480127301
15480133527
15480139447
15480144269
15480152448
15480156049
15480164167
15480170087
15480175763
15480179120
15480186200
15480191754
15480199445
15480204572
15480210614
15480216718
15480222760
15480226056
15480234601
15480241864
15480248883
15480254437
15480259076
15480264752
15480270490
15480276898
15480284161
15480289899
15480298077
15480303632
15480310467
15480315716
15480322491
15480328839
15480334210
15480340375
15480345502
15480351849
15480356976
15480363446
15480368512
15480375287
15480380963
15480387433
15480391217
15480398541
15480402325
15480410199
15480414959
15480420697
15480426617
15480432537
15480438214
15480442974
15480449871
15480455975
15480461895
15480466778
15480474041
15480479595
15480485943
15480490582
15480497051
15480501629
15480507611
15480513836
15480519879
15480524700
15480530987
15480535442
15480541912
15480548260
15480552960
15480559246
15480564861
15480570904
15480577984
15480582989
15480588848
15480594036
15480600506
15480605755
15480613140
15480618572
15480624370
15480628216
15480635052
15480641338
15480645916
15480651958
15480658001
15480665630
15480672466
15480678325
15480685039
15480692058
15480696697
15480703350
15480709392
15480716350
15480721294
15480729168
15480734111
15480740581
15480747722
15480753093
15480760662
15480767437
15480773418
15480780071
15480785869
15480793498
15480799297
15480806133
15480810405
15480818462
15480825298
15480830180
15480837077
15480842815
15480847698
15480853618
15480859660
15480864299
15480870769
15480876628
15480881206
15480887187
15480893901
15480899089
15480904765
15480911113
15480917400
15480922465
15480929729
15480934794
15480941997
15480947307
15480953776
15480960002
15480964519
15480970805
15480975627
15480983256
15480990642
15480995097
15481004496
15481010539
15481016642
15481020427
15481028788
15481032450
15481041606
15481045207
15481053202
15481056681
15481065104
15481072245
15481078349
15481084452
15481090739
15481097453
15481101908
15481109233
15481114054
15481120951
15481125834
15481134806
15481141154
15481147013
15481153605
15481157999
15481164347
15481170817
15481178141
15481184000
15481190592
15481194071
15481202433
15481209208
15481214945
15481221659
15481228251
15481234171
15481239603
15481245768
15481250712
15481257670
15481263346
15481271280
15481277018
15481282877
15481290140
15481294840
15481301310
15481307657
15481313639
15481321878
15481327860
15481333353
15481339273
15481345499
15481352213
15481357462
15481364298
15481370890
15481375894
15481383768
15481389505
15481396585
15481404642
15481411356
15481418009
15481424295
15481430521
15481435831
15481442972
15481449136
15481455972
15481462564
15481468485
15481474588
15481480753
15481487039
15481492410
15481499551
15481506570
15481512491
15481518045
15481524087
15481530191
15481536905
15481543558
15481549234
15481556802
15481560586
15481569253
15481575601
15481581521
15481588296
15481594705
15481601419
15481606485
15481614602
15481619302
15481626016
15481632180
15481639260
15481642739
15481651101
15481658059
15481663613
15481668801
15481674478
15481682839
15481687905
15481695230
15481701272
15481706826
15481713540
15481719521
15481725930
15481732522
15481738137
15481744363
15481750161
15481755349
15481762978
15481768777
15481774819
15481781960
15481788247
15481793923
15481799782
15481805703
15481812478
15481819741
15481825783
15481831704
15481838906
15481844521
15481849709
15481855630
15481862649
15481869973
15481875771
15481880593
15481887734
15481893227
15481900612
15481905068
15481912453
15481919289
15481926125
15481931801
15481938027
15481943764
15481949013
15481957314
15481963723
15481969765
15481976662
15481982338
15481989907
15481996926
15482003578
15482009804
15482016091
15482023415
15482028359
15482035927
15482040566
15482048683
15482054115
15482061195
15482064858
15482071815
15482076942
15482084084
15482089149
15482096657
15482102455
15482108498
15482114601
15482120582
15482126686
15482132667
15482138832
15482145485
15482151588
15482157020
15482162636
15482168983
15482175941
15482181007
15482188148
15482193519
15482200294
15482205177
15482212440
15482215736
15482222938
15482228492
15482234413
15482240150
15482245704
15482252357
15482257789
15482262794
15482268348
15482274330
15482279884
15482287147
15482291480
15482298438
15482302955
15482310645
15482315833
15482322303
15482329994
15482335853
15482339210
15482346046
15482352027
15482357581
15482363807
15482369849
15482375770
15482381202
15482387855
15482392188
15482398658
15482404761
15482409156
15482415870
15482422706
15482427894
15482435218
15482440406
15482447669
15482453834
15482458960
15482464454
15482472388
15482475928
15482483802
15482487220
15482495154
15482501014
15482507666
15482514136
15482520301
15482525855
15482532141
15482537329
15482543799
15482550635
15482555701
15482562232
15482566809
15482573218
15482577735
15482584876
15482590491
15482596778
15482603247
15482608985
15482614356
15482620337
15482627173
15482633276
15482638587
15482644507
15482651770
15482656470
15482662756
15482667395
15482673254
15482679724
15482686804
15482693518
15482699683
15482704443
15482710547
15482718115
15482724341
15482730322
15482737036
15482743323
15482748816
15482754614
15482761938
15482767614
15482772925
15482779944
15482786413
15482792395
15482799475
15482805761
15482811682
15482818518
15482823645
15482830908
15482837011
15482842321
15482850256
15482856420
15482863317
15482866796
15482876745
15482882665
15482887487
15482894567
15482901159
15482906469
15482914282
15482919775
15482927343
15482933447
15482940099
15482946386
15482952917
15482959020
15482965368
15482972387
15482978063
15482984045
15482990881
15482997289
15483004125
15483009862
15483016454
15483022497
15483028966
15483035680
15483040807
15483047399
15483052465
15483059362
15483066930
15483072728
15483078161
15483084996
15483090551
15483096715
15483103856
15483110265
15483116491
15483122045
15483127721
15483133641
15483139684
15483145543
15483152379
15483158544
15483163976
15483171727
15483177526
15483183690
15483189610
15483195775
15483202123
15483208287
15483214879
15483219640
15483227330
15483230809
15483238744
15483244908
15483251256
15483257237
15483263097
15483270421
15483275548
15483282201
15483287633
15483296544
15483302464
15483308201
15483313023
15483318822
15483324620
15483332677
15483339757
15483345372
15483352269
15483355992
15483363316
15483368748
15483374913
15483382115
15483388279
15483393650
15483399876
15483405796
15483410801
15483418858
15483425084
15483431187
15483437962
15483444187
15483450413
15483454808
15483462803
15483468357
15483475559
15483479527
15483487583
15483494969
15483499302
15483506504
15483512913
15483518284
15483523533
15483530857
15483536533
15483543552
15483550266
15483557102
15483562534
15483568394
15483574924
15483581150
15483586887
15483591892
15483600986
15483607090
15483613010
15483619053
15483625278
15483631077
15483637424
15483643162
15483648960
15483656467
15483661289
15483668003
15483674534
15483680271
15483686741
15483692722
15483699131
15483705478
15483712619
15483718296
15483724887
15483730808
15483736972
15483743930
15483750400
15483755954
15483760227
15483768100
15483773166
15483780429
15483786228
15483792331
15483798618
15483804477
15483810397
15483816745
15483822910
15483828281
15483835178
15483842014
15483848300
15483853976
15483859775
15483865390
15483871555
15483878757
15483884921
15483890048
15483895114
15483902682
15483908115
15483916537
15483922275
15483927951
15483933566
15483939914
15483946628
15483952853
15483958774
15483964572
15483971652
15483977145
15483982943
15483989657
15483995639
15484003207
15484008578
15484016024
15484021395
15484028170
15484034274
15484040194
15484045932
15484052706
15484059786
15484064181
15484070407
15484077242
15484084017
15484089511
15484095614
15484101718
15484107699
15484114718
15484119479
15484127047
15484133578
15484139498
15484145480
15484151888
15484157931
15484163729
15484169588
15484175509
15484181856
15484188570
15484195711
15484200594
15484207308
15484212801
15484219515
15484224886
15484231417
15484238192
15484244661
15484250094
15484256502
15484262179
15484267611
15484274386
15484279574
15484287081
15484294405
15484299898
15484305391
15484311861
15484318514
15484324434
15484331209
15484336092
15484343355
15484350984
15484357088
15484361849
15484368074
15484374849
15484380892
15484388033
15484391390
15484399202
15484404268
15484413423
15484418916
15484424776
15484431490
15484438020
15484443941
15484449007
15484456392
15484462740
15484468904
15484475374
15484481660
15484488069
15484494356
15484500154
15484505647
15484512727
15484517610
15484524629
15484531892
15484537874
15484543550
15484549592
15484556978
15484562349
15484569185
15484574067
15484581025
15484587678
15484594148
15484600190
15484606172
15484613252
15484618074
15484625093
15484630159
15484636750
15484643586
15484649568
15484655793
15484661531
15484667878
15484674165
15484681489
15484687592
15484693940
15484699861
15484705781
15484711884
15484717622
15484725129
15484730256
15484737031
15484742585
15484749482
15484755219
15484760896
15484767609
15484773896
15484780366
15484786835
15484792939
15484797761
15484804475
15484809418
15484816743
15484823151
15484829377
15484836335
15484840973
15484848786
15484854096
15484861664
15484867829
15484873993
15484880524
15484886689
15484893952
15484899750
15484906403
15484913666
15484919587
15484925141
15484931061
15484937104
15484943146
15484948639
15484956513
15484961579
15484969208
15484975311
15484981293
15484987030
15484993012
15485000092
15485005646
15485011932
15485019257
15485025055
15485030853
15485036652
15485042694
15485050079
15485054962
15485061981
15485066803
15485073395
15485078827
15485087189
15485093353
15485099701
15485106232
15485110748
15485117645
15485124298
15485130157
15485135345
15485142303
15485147186
15485154205
15485160675
15485166534
15485172943
15485180389
15485187286
15485192108
15485198211
15485203094
15485210235
15485217559
15485223602
15485230011
15485236969
15485242279
15485248565
15485254058
15485259063
15485265899
15485272979
15485278716
15485284698
15485290435
15485297149
15485303253
15485310333
15485316558
15485322479
15485326080
15485333709
15485341399
15485345672
15485352447
15485359222
15485365997
15485371184
15485378387
15485383697
15485389495
15485396148
15485403045
15485409331
15485416167
15485421233
15485427459
15485433257
15485437896
15485445586
15485452422
15485458281
15485463714
15485469512
15485475921
15485482756
15485488799
15485494963
15485503203
15485506987
15485514312
15485520415
15485526213
15485533171
15485539641
15485546477
15485551787
15485558379
15485563811
15485570403
15485576445
15485582549
15485589324
15485595000
15485602019
15485607024
15485613249
15485620085
15485625823
15485632475
15485638762
15485644560
15485650542
15485656279
15485662566
15485669401
15485674589
15485681486
15485687346
15485693754
15485699431
15485705290
15485710783
15485717558
15485724699
15485730742
15485736601
15485741728
15485748991
15485754789
15485762663
15485768217
15485774260
15485780363
15485786589
15485791960
15485798307
15485805815
15485811552
15485817167
15485822905
15485829252
15485836515
15485840849
15485847563
15485854582
15485861296
15485866667
15485872953
15485878507
15485884977
15485890714
15485897306
15485904325
15485910612
15485916837
15485922147
15485929044
15485934599
15485941129
15485948148
15485954008
15485959379
15485964689
15485970548
15485976835
15485982938
15485989591
15485995756
15486000638
15486008207
15486013944
15486019803
15486026395
15486033170
15486039213
15486044156
15486051236
15486056424
15486062772
15486068815
15486077115
15486082120
15486088346
15486095548
15486099942
15486107083
15486112149
15486121366
15486127286
15486133573
15486139310
15486145108
15486151517
15486157743
15486164029
15486171353
15486177213
15486182767
15486188870
15486195340
15486201688
15486206876
15486213223
15486220487
15486227261
15486232571
15486237515
15486245206
15486251370
15486257474
15486263516
15486269620
15486276089
15486282376
15486289029
15486294034
15486301114
15486307095
15486313382
15486319974
15486325772
15486331387
15486337246
15486343411
15486350247
15486444607
15486452236
15486457607
15486463833
15486469265
15486477749
15486483242
15486487515
15486493435
15486500515
15486506680
15486511318
15486517605
15486524014
15486530666
15486534451
15486541714
15486546230
15486554592
15486562954
15486569485
15486575954
15486582973
15486589077
15486595547
15486602749
15486608791
15486614651
15486620754
15486626980
15486633327
15486640712
15486647304
15486654079
15486659267
15486666347
15486671108
15486676906
15486683925
15486689052
15486695156
15486700588
15486707241
15486713405
15486718166
15486725063
15486731594
15486736476
15486743251
15486749599
15486756252
15486760829
15486767055
15486772792
15486779689
15486785549
15486792018
15486797328
15486803310
15486809779
15486816249
15486821437
15486828090
15486834743
15486840724
15486846461
15486851405
15486865382
15486873866
15486880946
15486885036
15486893214
15486899928
15486904811
15486910609
15486915919
15486923305
15486927943
15486934779
15486939418
15486945704
15486952418
15486958766
15486964137
15486970485
15486975612
15486982997
15486986232
15486993434
15487000270
15487006251
15487012782
15487017604
15487023646
15487029628
15487036524
15487042079
15487049342
15487054835
15487061549
15487065333
15487074000
15487080164
15487085475
15487090968
15487097254
15487106104
15487112818
15487119105
15487125758
15487130457
15487137110
15487144556
15487152186
15487155726
15487164271
15487171351
15487177454
15487182642
15487189112
15487194849
15487199671
15487205103
15487210413
15487217920
15487223047
15487230921
15487234827
15487243555
15487249476
15487254541
15487261561
15487269068
15487274805
15487279932
15487287134
15487290735
15487297693
15487301722
15487310755
15487317469
15487323999
15487328699
15487335291
15487341638
15487346948
15487352747
15487360376
15487365991
15487370508
15487376917
15487384180
15487388635
15487396204
15487400781
15487408045
15487412073
15487420007
15487425745
15487431848
15487438013
15487444238
15487450586
15487457117
15487464075
15487469751
15487476099
15487481592
15487486963
15487491662
15487500268
15487506494
15487512048
15487517724
15487522546
15487529504
15487535425
15487542077
15487549585
15487555444
15487560693
15487566919
15487572412
15487580224
15487583703
15487590844
15487594934
15487603295
15487609765
15487615136
15487620690
15487627404
15487633935
15487639611
15487644128
15487649804
15487656274
15487660241
15487668542
15487675561
15487680810
15487689050
15487695458
15487700158
15487707482
15487714318
15487721093
15487726708
15487733544
15487739281
15487744836
15487749841
15487756982
15487763268
15487768395
15487774926
15487780724
15487785973
15487792504
15487797997
15487801476
15487809716
15487815697
15487821190
15487826806
15487833031
15487838952
15487844506
15487850426
15487857445
15487862755
15487869225
15487875328
15487880639
