15056706205
15056712065
15056718473
15056723173
15056729582
15056735136
15056740934
15056746183
15056753507
15056759367
15056765348
15056771452
15056777433
15056784757
15056788969
15056796842
15056802946
15056808927
15056815153
15056820646
15056827299
15056835416
15056841764
15056848783
15056855619
15056863676
15056869291
15056876920
15056884733
15056889860
15056898710
15056903959
15056911527
15056918363
15056924772
15056932401
15056937650
15056945829
15056952481
15056960294
15056966703
15056973111
15056979581
15056985196
15056993497
15056999051
15057006925
15057012723
15057019620
15057026578
15057033597
15057040311
15057047818
15057054471
15057060086
15057067044
15057073514
15057082364
15057090054
15057097684
15057106351
15057112759
15057121426
15057127896
15057136258
15057144437
15057151822
15057158719
15057166409
15057172452
15057180020
15057188870
15057195157
15057205777
15057213772
15057219449
15057227871
15057233792
15057244107
15057251553
15057258999
15057267117
15057275479
15057283535
15057291897
15057299587
15057308071
15057315579
15057322170
15057328457
15057338162
15057345059
15057351956
15057360073
15057367642
15057375271
15057381863
15057389126
15057394375
15057403591
15057410488
15057418178
15057425381
15057433376
15057439663
15057446743
15057455532
15057463894
15057469692
15057478115
15057485378
15057492580
15057498317
15057507595
15057516750
15057521999
15057530361
15057536281
15057548183
15057555019
15057562099
15057567226
15057579677
15057587306
15057595119
15057601283
15057607814
15057616847
15057625026
15057632228
15057641445
15057647670
15057656032
15057660610
15057671657
15057678249
15057686183
15057693141
15057700954
15057707667
15057713466
15057722194
15057730189
15057737819
15057744716
15057752162
15057759913
15057766383
15057774745
15057782680
15057790736
15057799037
15057804896
15057812709
15057819117
15057827906
15057834742
15057842006
15057850245
15057858729
15057865748
15057875270
15057882411
15057890223
15057899928
15057906275
15057915736
15057923487
15057930750
15057939295
15057945521
15057954798
15057962916
15057970545
15057979884
15057987574
15057994837
15058002772
15058009974
15058018702
15058028590
15058040125
15058045862
15058058008
15058064478
15058073755
15058082178
15058089136
15058099390
15058108057
15058116175
15058123865
15058131678
15058139429
15058150537
15058160242
15058167078
15058174463
15058184351
15058193018
15058200403
15058210352
15058217188
15058226526
15058232752
15058241419
15058248010
15058256799
15058263269
15058273035
15058281091
15058288721
15058298608
15058305627
15058315271
15058322473
15058329370
15058339136
15058348779
15058357080
15058364099
15058372766
15058380090
15058388757
15058396081
15058405420
15058413903
15058420312
15058428674
15058435205
15058445703
15058453088
15058461572
15058468347
15058478723
15058485742
15058493859
15058503320
15058509789
15058516870
15058526330
15058533471
15058542993
15058550866
15058558068
15058568261
15058575524
15058586083
15058595483
15058604394
15058612939
15058619713
15058629662
15058636681
15058646630
15058653893
15058662377
15058670861
15058677575
15058686547
15058694481
15058702233
15058711449
15058720055
15058728478
15058736901
15058747643
15058755089
15058764489
15058769615
15058781700
15058790550
15058797386
15058806053
15058813133
15058820702
15058827599
15058834801
15058843102
15058850426
15058859154
15058866661
15058875328
15058884300
15058893639
15058904198
15058911949
15058921837
15058931297
15058940697
15058947166
15058955284
15058963951
15058973778
15058981956
15058988609
15058997703
15059004783
15059011375
15059019188
15059027366
15059034935
15059040977
15059050804
15059057151
15059067039
15059074913
15059082115
15059090476
15059099327
15059107505
15059114402
15059123741
15059130332
15059140281
15059148704
15059157249
15059164573
15059172813
15059179465
15059187705
15059194297
15059201987
15059208762
15059217734
15059225669
15059232932
15059239829
15059248984
15059255454
15059261435
15059268393
15059275474
15059279319
15059288169
15059292258
15059300620
15059304282
15059311728
15059316184
15059323935
15059329551
15059335532
15059342063
15059348044
15059354270
15059358725
15059367758
15059374106
15059379599
15059384238
15059390036
15059395774
15059401145
15059406211
15059413596
15059417136
15059424277
15059430258
15059437521
15059443625
15059449240
15059454916
15059460898
15059467123
15059472311
15059478354
15059482443
15059489035
15059493307
15059500998
15059507529
15059512656
15059518881
15059525473
15059530417
15059537009
15059542135
15059549399
15059555197
15059560995
15059567160
15059572775
15059576315
15059583883
15059590109
15059596029
15059601950
15059607443
15059613424
15059617697
15059624655
15059628805
15059636862
15059642233
15059648275
15059654684
15059660360
15059666586
15059671652
15059676596
15059683370
15059688803
15059695638
15059701193
15059706625
15059712057
15059717367
15059724142
15059730184
15059736776
15059742819
15059748495
15059754537
15059761312
15059765951
15059773580
15059778341
15059785909
15059790609
15059798116
15059803365
15059810689
15059816305
15059823263
15059828878
15059834432
15059839742
15059845357
15059849996
15059856466
15059862569
15059868306
15059874166
15059879659
15059885213
15059892049
15059897298
15059903035
15059910726
15059917196
15059922994
15059927571
15059932820
15059938619
15059944966
15059949971
15059956380
15059961873
15059968892
15059972127
15059979207
15059983968
15059991292
15059998311
15060004170
15060009114
15060016011
15060021565
15060025716
15060032369
15060036519
15060044454
15060049214
15060056722
15060061787
15060067097
15060072957
15060078206
15060084920
15060092488
15060096150
15060103169
15060108479
15060114461
15060120198
15060125752
15060133198
15060139119
15060144917
15060149006
15060156087
15060160298
15060167378
15060171711
15060178669
15060183186
15060189473
15060195515
15060201252
15060205891
15060212971
15060218464
15060225300
15060228779
15060236836
15060242390
15060248188
15060254475
15060260395
15060268025
15060273884
15060279377
15060284748
15060291218
15060295429
15060301838
15060308491
15060314411
15060319721
15060326679
15060331806
15060339008
15060344074
15060351460
15060357746
15060363911
15060369831
15060375324
15060380634
15060386188
15060391621
15060397175
15060403889
15060410541
15060415790
15060422138
15060427936
15060434223
15060440449
15060445820
15060453022
15060458149
15060464618
15060469623
15060476032
15060481098
15060487568
15060495075
15060501423
15060507221
15060512653
15060518268
15060523761
15060529193
15060534687
15060541950
15060546527
15060552875
15060559467
15060566120
15060571125
15060577411
15060582721
15060589740
15060595416
15060601642
15060607684
15060613178
15060619586
15060625751
15060631915
15060638141
15060644489
15060650409
15060656940
15060661517
15060668231
15060672504
15060679645
15060686359
15060692889
15060697894
15060703570
15060709857
15060715777
15060721026
15060729877
15060733417
15060741046
15060744220
15060752704
15060759112
15060765094
15060772357
15060776812
15060783526
15060787860
15060794513
15060800372
15060805194
15060811541
15060817157
15060823504
15060829730
15060834552
15060840106
15060846881
15060852557
15060856097
15060864154
15060870379
15060875811
15060879046
15060885577
15060890093
15060896685
15060904437
15060910235
15060916155
15060921710
15060926714
15060932208
15060938189
15060942400
15060950579
15060955767
15060961871
15060967730
15060973833
15060978472
15060984026
15060988909
15060996050
15061001482
15061008135
15061013079
15061020891
15061027239
15061033037
15061040301
15061046099
15061051714
15061057207
15061062578
15061068194
15061074114
15061080462
15061086565
15061092913
15061098467
15061103045
15061110125
15061115435
15061121050
15061127031
15061133013
15061139421
15061145464
15061151506
15061157427
15061162493
15061169878
15061176287
15061182268
15061188921
15061196733
15061201860
15061208330
15061214617
15061220049
15061226885
15061232011
15061239336
15061242815
15061249651
15061254961
15061261369
15061270219
15061274736
15061280534
15061286027
15061292924
15061297624
15061302812
15061309038
15061314958
15061320024
15061327104
15061332109
15061339250
15061344377
15061351579
15061358110
15061364091
15061370744
15061376725
15061381547
15061387468
15061393632
15061399797
15061407548
15061412065
15061418718
15061424699
15061429704
15061435685
15061440873
15061447587
15061455339
15061460404
15061466447
15061471513
15061478959
15061484208
15061491899
15061498795
15061504655
15061510087
15061515702
15061521195
15061526688
15061532182
15061537980
15061544999
15061550980
15061556535
15061562516
15061568620
15061573197
15061579850
15061587357
15061594315
15061599259
15061605729
15061610978
15061616593
15061621903
15061627518
15061633683
15061639664
15061646561
15061652848
15061659989
15061666581
15061673539
15061678971
15061685196
15061690323
15061697403
15061702469
15061709183
15061714127
15061721573
15061725235
15061733353
15061736710
15061745865
15061753250
15061759659
15061765152
15061771561
15061779679
15061786087
15061790909
15061796951
15061802200
15061806839
15061813004
15061818070
15061826004
15061832047
15061838150
15061843887
15061849930
15061853409
15061861099
15061868546
15061874649
15061880020
15061885879
15061891739
15061897415
15061902786
15061908462
15061916275
15061920730
15061927200
15061931534
15061938614
15061942825
15061948990
15061955520
15061963211
15061967117
15061975296
15061978958
15061986343
15061991287
15061998550
15062005447
15062011489
15062017349
15062022964
15062028640
15062034133
15062039505
15062045242
15062051162
15062057327
15062063796
15062068008
15062074600
15062080581
15062085464
15062091995
15062098892
15062104080
15062109878
15062114883
15062121841
15062126540
15062133193
15062136672
15062144058
15062150405
15062155898
15062162002
15062167800
15062172805
15062178725
15062185683
15062191604
15062197280
15062201614
15062208144
15062214187
15062221145
15062227859
15062233108
15062239699
15062245070
15062249892
15062255813
15062260207
15062266250
15062273818
15062279860
15062286330
15062291823
15062296950
15062302382
15062308425
15062312697
15062321181
15062326125
15062331679
15062337599
15062343276
15062347548
15062353835
15062360243
15062366408
15062371413
15062377150
15062381728
15062387953
15062392531
15062399245
15062407362
15062413832
15062419997
15062425490
15062431166
15062436659
15062442152
15062446364
15062453749
15062458327
15062465590
15062469740
15062475600
15062481520
15062486342
15062492689
15062499098
15062504408
15062510634
15062517042
15062522475
15062528883
15062534804
15062540053
15062547072
15062552260
15062559157
15062562513
15062570631
15062576063
15062582655
15062589552
15062595350
15062600355
15062606031
15062611647
15062617201
15062622938
15062628736
15062634718
15062639295
15062645643
15062651441
15062657789
15062663832
15062669752
15062674879
15062682569
15062688795
15062694288
15062697401
15062703993
15062709486
15062714979
15062721510
15062727918
15062734571
15062740614
15062746839
15062752088
15062758436
15062762708
15062771375
15062776441
15062782545
15062787122
15062793409
15062798658
15062806165
15062812879
15062820142
15062823865
15062831067
15062837232
15062842847
15062847425
15062853223
15062860608
15062866529
15062872327
15062878248
15062883924
15062888196
15062894910
15062899305
15062907849
15062913099
15062919141
15062926282
15062931043
15062937451
15062944165
15062950208
15062956494
15062963391
15062969678
15062976880
15062983533
15062990369
15062995984
15063002759
15063007947
15063014905
15063019849
15063027539
15063031018
15063039319
15063043042
15063051404
15063055859
15063063245
15063069287
15063075452
15063082043
15063087964
15063093518
15063099438
15063105298
15063110974
15063116406
15063122204
15063128735
15063135083
15063142163
15063147290
15063153332
15063158398
15063165295
15063170300
15063177502
15063183423
15063189770
15063195446
15063202282
15063206250
15063213086
15063218701
15063224133
15063230236
15063236279
15063242688
15063248791
15063254772
15063259960
15063265393
15063271130
15063277600
15063284252
15063290783
15063295849
15063302502
15063307629
15063314343
15063319836
15063328625
15063332104
15063339733
15063345959
15063351940
15063357677
15063363171
15063370800
15063376720
15063382702
15063388683
15063393566
15063399547
15063406811
15063411449
15063419262
15063425670
15063430980
15063435558
15063441234
15063447094
15063452404
15063457836
15063464611
15063469494
15063476207
15063482250
15063486644
15063491466
15063497936
15063505260
15063511547
15063518261
15063523326
15063530162
15063536632
15063542858
15063549266
15063555797
15063560741
15063567027
15063572582
15063578197
15063582408
15063588207
15063594127
15063600292
15063604808
15063611095
15063617320
15063622508
15063628734
15063634654
15063639964
15063646983
15063652232
15063657970
15063664561
15063671214
15063676219
15063682750
15063689097
15063695628
15063701060
15063707774
15063714549
15063719249
15063725108
15063731212
15063735057
15063743052
15063749034
15063755015
15063760875
15063767039
15063772471
15063778575
15063786815
15063794505
15063799815
15063805857
15063811961
15063818370
15063824107
15063828562
15063834605
15063838938
15063845164
15063851267
15063855601
15063861582
15063867625
15063872996
15063880320
15063883921
15063890513
15063895396
15063901988
15063907481
15063913096
15063919260
15063924326
15063931651
15063938059
15063944285
15063950388
15063956614
15063961619
15063968211
15063973948
15063979868
15063984263
15063989817
15063995493
15064001658
15064008921
15064015146
15064020090
15064028452
15064034861
15064039560
15064044626
15064052744
15064061167
15064067209
15064073374
15064079355
15064084909
15064090647
15064096506
15064102549
15064109262
15064113840
15064120188
15064126169
15064132639
15064139536
15064145334
15064152658
15064158640
15064163889
15064169687
15064174387
15064180551
15064185312
15064191232
15064196420
15064203867
15064209726
15064216196
15064219797
15064227853
15064231271
15064239755
15064247446
15064253183
15064258371
15064263803
15064269174
15064275033
15064282053
15064286630
15064294137
15064300424
15064305124
15064310983
15064316537
15064322397
15064327218
15064333444
15064340036
15064345102
15064351388
15064356637
15064363046
15064368539
15064373971
15064380136
15064385751
15064391305
15064396737
15064402536
15064407907
15064412118
15064417611
15064425119
15064429513
15064435433
15064441293
15064446054
15064451974
15064457650
15064461984
15064469064
15064473886
15064479501
15064485421
15064490609
15064497079
15064502755
15064506661
15064516000
15064522103
15064528146
15064535470
15064541879
15064548653
15064553597
15064561776
15064565865
15064573434
15064579293
15064585946
15064591744
15064597848
15064605233
15064611092
15064616829
15064622750
15064628853
15064634774
15064640450
15064646431
15064652108
15064658272
15064664498
15064668648
15064675118
15064680916
15064686409
15064691292
15064698922
15064704171
15064709847
15064714913
15064721566
15064728646
15064734017
15064738777
15064746651
15064752632
15064758248
15064763680
15064769173
15064775032
15064780647
15064786812
15064793099
15064798653
15064802925
15064809700
15064813973
15064820992
15064826057
15064832893
15064837837
15064844307
15064849007
15064855537
15064860786
15064865852
15064870857
15064877022
15064882515
15064887886
15064893318
15064899361
15064904793
15064910469
15064916511
15064922615
15064928962
15064935371
15064941475
15064946357
15064953010
15064959297
15064965156
15064969551
15064975044
15064980781
15064986274
15064991829
15064997261
15065001716
15065009285
15065014167
15065019050
15065025215
15065030403
15065036506
15065041755
15065046821
15065053413
15065058235
15065063484
15065068366
15065074958
15065079719
15065085395
15065090339
15065096870
15065102363
15065107551
15065112556
15065119758
15065125373
15065131110
15065135017
15065142646
15065148444
15065154182
15065159980
15065164497
15065170600
15065176643
15065183784
15065190253
15065196235
15065201545
15065207892
15065212958
15065220405
15065226264
15065232306
15065237983
15065244269
15065250495
15065256354
15065262458
15065268744
15065274848
15065281379
15065287665
15065293097
15065299201
15065304633
15065312506
15065319281
15065325324
15065331855
15065337897
15065343573
15065350409
15065356635
15065363288
15065369086
15065374091
15065381903
15065385748
15065394049
15065399298
15065405707
15065413275
15065419562
15065426459
15065431097
15065438300
15065444037
15065451849
15065458563
15065464484
15065471564
15065477240
15065483282
15065489508
15065495489
15065502875
15065508917
15065515265
15065521795
15065527838
15065532965
15065539496
15065546576
15065552374
15065560247
15065565313
15065572027
15065575567
15065584295
15065590704
15065596624
15065602423
15065608953
15065615179
15065621405
15065626837
15065632330
15065640325
15065646063
15065652410
15065657659
15065663275
15065669561
15065676336
15065682684
15065687566
15065693731
15065698858
15065705938
15065711675
15065717413
15065724371
15065730474
15065736028
15065742803
15065749639
15065754400
15065760808
15065767095
15065773992
15065780035
15065785772
15065791143
15065797368
15065803716
15065810613
15065817754
15065823125
15065829595
15065834417
15065841253
15065847783
15065853338
15065861089
15065867376
15065872197
15065878789
15065885076
15065889836
15065896672
15065904180
15065909978
15065915654
15065922246
15065928777
15065933354
15065940190
15065945622
15065952336
15065958196
15065964665
15065971623
15065977483
15065983037
15065990056
15065996282
15066001164
15066007817
15066012822
15066020268
15066026006
15066031682
15066038823
15066044499
15066049931
15066056645
15066062505
15066067387
15066073247
15066078435
15066087773
15066092839
15066099492
15066106328
15066112919
15066118901
15066123478
15066130192
15066136906
15066144352
15066148930
15066155888
15066160771
15066167302
15066174199
15066180119
15066186467
15066192387
15066197392
15066204594
15066209721
15066216008
15066221257
15066229740
15066233341
15066241215
15066244877
15066252690
15066256291
15066264530
15066270634
15066276493
15066283634
15066289616
15066294499
15066300480
15066304020
15066312260
15066319279
15066325260
15066331120
15066337101
15066343388
15066348026
15066355289
15066360050
15066367252
15066373234
15066379215
15066385624
15066390873
15066397220
15066403141
15066409611
15066416446
15066421818
15066428715
15066434147
15066441105
15066446537
15066453006
15066458133
15066465702
15066472721
15066478580
15066484012
15066489750
15066495548
15066502506
15066509464
15066514896
15066522098
15066527835
15066533634
15066540042
15066546756
15066552555
15066559024
15066564762
15066569827
15066576663
15066582095
15066589237
15066598514
15066604312
15066609927
15066616031
15066621524
15066626834
15066633182
15066638431
15066646732
15066650943
15066658694
15066663760
15066669681
15066676822
15066682193
15066690188
15066695254
15066701236
15066706607
15066713077
15066719546
15066725284
15066732425
15066738894
15066745303
15066749881
15066755984
15066761050
15066768374
15066774722
15066782229
15066788028
15066793154
15066800174
15066806338
15066811465
15066816470
15066824404
15066830630
15066836611
15066840762
15066848208
15066854312
15066860842
15066867312
15066873660
15066879092
15066884524
15066892275
15066898135
15066903872
15066910708
15066916506
15066922793
15066929202
15066935488
15066940310
15066947878
15066952944
15066959719
15066966677
15066973269
15066978457
15066984377
15066990603
15066998720
15067005007
15067010805
15067017397
15067023867
15067029909
15067035158
15067041689
15067046694
15067054384
15067059694
15067065981
15067071474
15067079592
15067085817
15067092836
15067096682
15067104738
15067110964
15067118166
15067121828
15067131410
15067138002
15067144350
15067151186
15067157472
15067163454
15067169740
15067175844
15067182192
15067188112
15067194399
15067200868
15067207338
15067212648
15067219179
15067224611
15067231142
15067237001
15067241701
15067249513
15067254640
15067261171
15067266725
15067273317
15067280214
15067286989
15067292360
15067298890
15067304017
15067310914
15067316041
15067322145
15067327272
15067334352
15067339418
15067346864
15067350465
15067358583
15067365236
15067371766
15067375673
15067384584
15067391420
15067397767
15067403138
15067409425
15067416200
15067422181
15067427369
15067433351
15067440919
15067445436
15067452455
15067457032
15067464295
15067468873
15067475587
15067483277
15067488831
15067494019
15067499879
15067505860
15067511109
15067515809
15067521180
15067527345
15067532410
15067537293
15067544068
15067549622
15067554871
15067560364
15067565186
15067571229
15067577576
15067583130
15067588624
15067594056
15067599671
15067604798
15067610596
15067615662
15067621399
15067627137
15067632874
15067638611
15067643006
15067648499
15067654419
15067661133
15067665406
15067671265
15067675537
15067682129
15067686585
15067693421
15067698548
15067703797
15067710144
15067716309
15067721497
15067727417
15067732300
15067738342
15067743469
15067751160
15067756653
15067763245
15067768921
15067774780
15067778442
15067786194
15067792725
15067799072
15067805725
15067811951
15067817688
15067823303
15067830749
15067838196
15067844299
15067852173
15067858215
15067866333
15067872742
15067879455
15067886230
15067891846
15067898437
15067904785
15067910705
15067916565
15067922119
15067929992
15067936584
15067942993
15067950134
15067955810
15067964477
15067974670
15067980896
15067991027
15067997619
15068008972
15068013427
15068024719
15068036010
15068045104
15068054870
15068066406
15068074889
15068084289
15068093078
15068104430
15068112609
15068120605
15068133178
15068142577
15068150207
15068158935
15068166747
15068174621
15068183349
15068191466
15068198913
15068208068
15068216735
15068223510
15068232970
15068241637
15068249999
15068257872
15068263732
15068271910
15068279845
15068289611
15068296324
15068304869
15068311644
15068320983
15068325621
15068336485
15068344603
15068352294
15068359374
15068367064
15068374815
15068383543
15068391234
15068399596
15068406981
15068413695
15068423460
15068432616
15068438536
15068448790
15068456419
15068463255
15068471434
15068480955
15068487486
15068496214
15068502928
15068511229
15068517027
15068525999
15068533690
15068540648
15068549498
15068555845
15068565184
15068573423
15068584043
15068594541
15068604307
15068613768
15068622618
15068632994
15068642332
15068655332
15068662840
15068672117
15068683103
15068691465
15068700742
15068708860
15068719175
15068728391
15068736997
15068745115
15068753049
15068758298
15068766782
15068770566
15068778562
15068785642
15068792051
15068796750
15068804380
15068811094
15068817441
15068823179
15068829282
15068835508
15068841489
15068846494
15068852475
15068859311
15068865232
15068870359
15068876340
15068880918
15068888486
15068894834
15068901425
15068908444
15068913571
15068920407
15068926816
15068932920
15068939267
15068946225
15068952756
15068958859
15068965207
15068970639
15068976621
15068983090
15068987485
15068994565
15068998959
15069006772
15069011288
15069018002
15069024350
15069029538
15069035947
15069041562
15069046139
15069052121
15069058224
15069063656
15069068173
15069074643
15069081723
15069089047
15069094662
15069100705
15069105832
15069113522
15069118527
15069125302
15069128903
15069136776
15069140439
15069148434
15069154171
15069161007
15069164669
15069172421
15069178463
15069184567
15069190731
15069196835
15069200436
15069208432
15069215023
15069221066
15069227047
15069233273
15069241574
15069246639
15069252560
15069257565
15069264767
15069269955
15069277340
15069284542
15069291012
15069297176
15069303158
15069309017
15069313961
15069321346
15069327877
15069333614
15069339535
15069345455
15069352291
15069357601
15069364193
15069369320
15069376217
15069383114
15069388973
15069394771
15069400448
15069406917
15069412533
15069419674
15069426815
15069432552
15069438533
15069444088
15069448299
15069455379
15069462642
15069468990
15069475032
15069479793
15069486141
15069491085
15069498104
15069504573
15069511226
15069517635
15069524166
15069530757
15069537776
15069545101
15069553401
15069561153
15069566524
15069575008
15069581294
15069590022
15069596248
15069606563
15069613826
15069620479
15069629695
15069636653
15069642634
15069648311
15069656062
15069663081
15069669673
15069677363
15069682185
15069690974
15069696345
15069702754
15069710627
15069716304
15069727595
15069736628
15069746333
15069752986
15069758601
15069763972
15069771601
15069776850
15069784602
15069790950
15069796992
15069803523
15069809931
15069817011
15069821528
15069829341
15069835200
15069843134
15069848628
15069856135
15069863459
15069869868
15069875117
15069881342
15069888178
15069894709
15069900385
15069906123
15069911616
15069918330
15069924555
15069929682
15069937006
15069942683
15069948359
15069954218
15069961176
15069967219
15069972529
15069979548
15069984308
15069990107
15069996454
15070003046
15070008783
15070015680
15070021113
15070029291
15070034296
15070043757
15070050898
15070057795
15070064875
15070071527
15070078669
15070083795
15070091120
15070098261
15070106134
15070111933
15070119013
15070125055
15070133478
15070140436
15070147882
15070151666
15070161798
15070169061
15070175836
15070181390
15070188654
15070197443
15070203058
15070210443
15070216486
15070223810
15070230218
15070237604
15070243524
15070249078
15070255670
15070262079
15070268365
15070273553
15070281549
15070289178
15070295526
15070302179
15070309259
15070316156
15070321405
15070328546
15070335260
15070343255
15070348626
15070354974
15070361749
15070368646
15070375177
15070381158
15070390130
15070394097
15070402703
15070409234
15070415338
15070421807
15070427667
15070435113
15070438958
15070448846
15070454339
15070460076
15070466790
15070474236
15070480462
15070485406
15070493829
15070500481
15070507012
15070513177
15070519280
15070526177
15070532159
15070539788
15070546502
15070553704
15070560967
15070567925
15070576653
15070582573
15070590386
15070596001
15070604119
15070610711
15070617058
15070625542
15070633416
15070639214
15070645745
15070652337
15070659478
15070666863
15070675042
15070680596
15070687920
15070696160
15070702751
15070709587
15070716362
15070723381
15070732842
15070737663
15070744682
15070751701
15070757683
15070765373
15070771050
15070777275
15070784721
15070791924
15070798271
15070804436
15070810661
15070817558
15070825371
15070832207
15070837517
15070844231
15070850456
15070856132
15070863151
15070868217
15070877006
15070882622
15070890007
15070895744
15070903129
15070909599
15070915886
15070924614
15070931877
15070939018
15070945182
15070951286
15070958305
15070964469
15070970085
15070976188
15070983757
15070988090
15070995658
15071000846
15071006828
15071014335
15071020133
15071026481
15071032890
15071038810
15071044975
15071051872
15071059440
15071065421
15071070609
15071076774
15071083488
15071089591
15071096061
15071101249
15071109061
15071113334
15071120353
15071127128
15071133353
15071138724
15071144157
15071152030
15071159110
15071164847
15071171500
15071178031
15071183463
15071191092
15071197135
15071203483
15071209281
15071216300
15071220572
15071227958
15071235587
15071242057
15071247733
15071253470
15071259696
15071265311
15071271292
15071278678
15071285697
15071289237
15071298148
15071303824
15071309622
15071316641
15071321707
15071328482
15071333548
15071341361
15071347769
15071353323
15071358817
15071365347
15071372794
15071378348
15071384085
15071390128
15071397086
15071403738
15071410330
15071416800
15071422781
15071430167
15071436941
15071443533
15071450857
15071456412
15071464163
15071470267
15071475821
15071482046
15071487723
15071494009
15071500662
15071508230
15071512564
15071519827
15071525625
15071531668
15071538870
15071544424
15071552053
15071557913
15071565969
15071571157
15071577261
15071583486
15071590505
15071597036
15071603445
15071610952
15071616018
15071622244
15071628103
15071635366
15071642080
15071647573
15071654592
15071659231
15071665151
15071671987
15071677297
15071686269
15071690298
15071698110
15071703237
15071709096
15071716360
15071721853
15071728872
15071734609
15071741445
15071746694
15071752431
15071759389
15071766225
15071773183
15071776784
15071785879
15071791250
15071797353
15071803273
15071809682
15071817128
15071822500
15071828237
15071834462
15071840139
15071847463
15071853566
15071859243
15071864370
15071872243
15071879140
15071884694
15071891103
15071897512
15071903310
15071910634
15071916127
15071922292
15071927968
15071933827
15071940602
15071947316
15071952138
15071959462
15071965993
15071971669
15071977956
15071985463
15071992116
15071997182
15072003529
15072009572
15072015492
15072022267
15072028981
15072036305
15072041432
15072048085
15072054005
15072059987
15072066823
15072074208
15072080983
15072085927
15072092518
15072099171
15072104847
15072110707
15072117054
15072123951
15072130970
15072137074
15072140553
15072149403
15072155079
15072161610
15072168629
15072173451
15072180348
15072184132
15072193226
15072198780
15072205677
15072212330
15072217335
15072223927
15072229481
15072236805
15072242115
15072248707
15072254994
15072261463
15072268177
15072271717
15072280689
15072285938
15072291981
15072299610
15072305836
15072311695
15072316578
15072324329
15072330128
15072337086
15072343311
15072348438
15072355152
15072362598
15072368274
15072373646
15072379322
15072387439
15072393543
15072399524
15072404651
15072412464
15072418079
15072424305
15072432117
15072437183
15072444690
15072450489
15072456165
15072461902
15072467639
15072476001
15072482471
15072488147
15072493091
15072500110
15072506519
15072512439
15072520435
15072525257
15072532031
15072537464
15072544605
15072549976
15072556018
15072562183
15072568469
15072576038
15072581470
15072587634
15072593433
15072599109
15072605823
15072612109
15072618091
15072622913
15072630298
15072637195
15072642932
15072649524
15072655932
15072662280
15072667285
15072675342
15072681323
15072687182
15072694995
15072701342
15072706347
15072713183
15072718127
15072723254
15072731128
15072739001
15072743396
15072750659
15072755969
15072763110
15072768908
15072775012
15072783374
15072787951
15072795581
15072800402
15072807543
15072812792
15072819018
15072826220
15072832202
15072838488
15072844653
15072850390
15072855395
15072862536
15072869982
15072875719
15072881884
15072888354
15072895251
15072900622
15072906847
15072915087
15072919421
15072926684
15072932909
15072939379
15072944750
15072951464
15072957140
15072963061
15072969958
15072976122
15072982958
15072987902
15072994249
15073002001
15073008043
15073014269
15073020617
15073026476
15073032640
15073038561
15073046007
15073051622
15073057177
15073062914
15073069689
15073075975
15073082689
15073088854
15073094774
15073100633
15073106737
15073114244
15073119066
15073126085
15073132005
15073138414
15073145006
15073150804
15073157884
15073164171
15073169847
15073175584
15073182909
15073189684
15073195482
15073201952
15073208116
15073213121
15073220628
15073226549
15073232530
15073240037
15073245592
15073251695
15073258470
15073263841
15073271654
15073278123
15073284105
15073290147
15073296312
15073303209
15073309190
15073316453
15073320726
15073327928
15073333970
15073339647
15073347520
15073352647
15073359605
15073365708
15073371385
15073378404
15073384629
15073390245
15073396409
15073404588
15073410203
15073417466
15073422593
15073428452
15073435166
15073440537
15073448655
15073454514
15073460313
15073466233
15073472092
15073479050
15073485703
15073491746
15073496934
15073505234
15073510972
15073516465
15073521897
15073528306
15073535325
15073540208
15073548752
15073554185
15073559922
15073566453
15073573472
15073579575
15073586838
15073592515
15073598191
15073603745
15073609787
15073616501
15073625107
15073630967
15073636765
15073642563
15073648178
15073655686
15073660874
15073667832
15073673020
15073680161
15073686569
15073692246
15073699814
15073705490
15073713242
15073718979
15073725205
15073731552
15073737290
15073744003
15073749252
15073756027
15073761093
15073769943
15073775070
15073780869
15073787643
15073795273
15073801010
15073808151
15073813888
15073820053
15073825607
15073831406
15073837875
15073844650
15073849655
15073856064
15073863388
15073869125
15073875168
15073881759
15073889084
15073894027
15073901046
15073906784
15073912643
15073918625
15073924911
15073931198
15073937667
15073944442
15073949874
15073955856
15073963058
15073969711
15073977218
15073982162
15073988265
15073993148
15074001876
15074007858
15074012130
15074020126
15074026412
15074033126
15074038619
15074044662
15074050155
15074056075
15074064193
15074070663
15074077560
15074082504
15074090255
15074095626
15074101546
15074110641
15074115890
15074122054
15074127242
15074134505
15074141768
15074147750
15074154952
15074160079
15074166915
15074172042
15074179061
15074185531
15074191695
15074198592
15074205001
15074210494
15074215255
15074223250
15074229781
15074235640
15074243026
15074249617
15074255660
15074260482
15074267134
15074273421
15074279097
15074286605
15074293013
15074298140
15074305037
15074310713
15074316756
15074322615
15074329878
15074336531
15074342268
15074348311
15074355086
15074360640
15074366560
15074373640
15074379500
15074386336
15074391219
15074397932
15074405867
15074411848
15074418501
15074424361
15074431990
15074436751
15074442854
15074447859
15074456709
15074462935
15074468977
15074476423
15074483137
15074491011
15074495039
15074504377
15074511274
15074515791
15074523481
15074527876
15074534712
15074539595
15074546736
15074552412
15074559553
15074565046
15074571577
15074578901
15074585127
15074591719
15074598615
15074604231
15074610334
15074616316
15074622236
15074628401
15074634931
15074640058
15074648115
15074653608
15074659162
15074666242
15074670698
15074677961
15074683210
15074691083
15074697431
15074703107
15074708784
15074714582
15074721418
15074726667
15074734662
15074741437
15074747114
15074752180
15074758039
15074764448
15074770856
15074777265
15074782880
15074790143
15074796125
15074801862
15074807843
15074814985
15074822065
15074829023
15074834882
15074841657
15074845807
15074852521
15074858991
15074865094
15074870099
15074877484
15074884381
15074890302
15074896039
15074902875
15074909406
15074914288
15074922223
15074927533
15074933331
15074939252
15074945355
15074952191
15074959332
15074966107
15074970136
15074977521
15074983502
15074989362
15074997662
15075003339
15075009442
15075015362
15075022443
15075028302
15075034711
15075041058
15075046124
15075053753
15075070477
15075078106
15075085797
15075092206
15075099408
15075104474
15075111432
15075119000
15075125164
15075131939
15075138409
15075144146
15075150433
15075156048
15075161297
15075169476
15075176617
15075182965
15075188397
15075193157
15075200237
15075205181
15075212322
15075220440
15075226299
15075232220
15075238995
15075246868
15075251690
15075259808
15075266827
15075272869
15075279461
15075285076
15075291790
15075296612
15075304424
15075311138
15075316936
15075324077
15075329143
15075335613
15075340740
15075347820
15075355572
15075361431
15075368633
15075374981
15075381328
15075386699
15075392009
15075399028
15075405010
15075411846
15075418071
15075424236
15075429058
15075436138
15075442974
15075448894
15075456157
15075460552
15075468242
15075472820
15075479534
15075485759
15075493022
15075498882
15075505168
15075512004
15075516948
15075523784
15075531413
15075537334
15075544109
15075550700
15075555949
15075562785
15075568584
15075574504
15075580608
15075587627
15075593852
15075600322
15075605022
15075611857
15075619670
15075625651
15075632609
15075637797
15075644572
15075649333
15075656474
15075663554
15075669597
15075677104
15075681804
15075688640
15075693522
15075701335
15075708049
15075713725
15075720256
15075726420
15075732707
15075737651
15075745097
15075752177
15075758280
15075764811
15075771159
15075776957
15075782084
15075789347
15075798075
15075805155
15075811137
15075816874
15075826029
15075832926
15075839030
15075845683
15075852274
15075859965
15075866190
15075872111
15075875712
15075884989
15075891398
15075898112
15075904215
15075910746
15075917032
15075922159
15075929117
15075934611
15075942118
15075948710
15075954447
15075960550
15075966715
15075973002
15075978190
15075985331
15075991495
15075997355
15076003580
15076009745
15076016947
15076022440
15076030252
15076036844
15076042704
15076048441
15076054483
15076060709
15076067057
15076074076
15076079569
15076085733
15076091959
15076097757
15076104288
15076111429
15076118387
15076123453
15076130167
15076137003
15076142740
15076148904
15076153848
15076162027
15076167215
15076175272
15076179239
15076186563
15076192789
15076199197
15076206155
15076212930
15076219095
15076225137
15076231119
15076236429
15076242471
15076250528
15076255716
15076262735
15076270059
15076275674
15076282205
15076286599
15076295083
15076299966
15076306314
15076313699
15076319375
15076325296
15076331338
15076339761
15076344583
15076351541
15076357583
15076363992
15076371072
15076375833
15076383279
15076390603
15076395730
15076401223
15076408059
15076414102
15076420083
15076426980
15076433511
15076439309
15076446267
15076452309
15076457925
15076463540
15076471291
15076476418
15076483437
15076488381
15076495522
15076501626
15076507607
15076515786
15076522195
15076528725
15076535927
15076541421
15076547463
15076553383
15076561013
15076565651
15076572487
15076577431
15076585610
15076591225
15076596901
15076604775
15076609353
15076616494
15076621498
15076628334
15076633828
15076639870
15076648415
15076654579
15076660012
15076666420
15076672096
15076676979
15076684059
15076691445
15076695900
15076703835
15076710060
15076714882
15076721718
15076727577
15076734474
15076740456
15076748879
15076754066
15076761635
15076768532
15076774574
15076781105
15076787880
15076793739
15076800148
15076805702
15076810768
15076817421
15076825050
15076830665
15076836525
15076842323
15076849098
15076853920
15076860756
15076868385
15076875099
15076880165
15076886207
15076893470
15076900673
15076906776
15076912574
15076919288
15076924354
15076931861
15076935524
15076942970
15076949378
15076955299
15076962074
15076968177
15076971839
15076979713
15076987037
15076993080
15076999305
15077005409
15077011573
15077017677
15077022559
15077028480
15077034827
15077040626
15077047096
15077051612
15077059486
15077064063
15077071265
15077075904
15077083228
15077089698
15077094520
15077101111
15077107215
15077112281
15077119300
15077124549
15077130958
15077136451
15077144019
15077149573
15077155677
15077162635
15077169166
15077174842
15077181434
15077189185
15077195411
15077201087
15077207007
15077212378
15077219703
15077224646
15077231787
15077236853
15077243445
15077248572
15077254920
15077260047
15077267554
15077273413
15077279517
15077285437
15077291602
15077297949
15077303870
15077310339
15077314917
15077320715
15077326697
15077333167
15077339392
15077345618
15077351843
15077358374
15077364783
15077370886
15077377295
15077383887
15077390234
15077395361
15077401770
15077407934
15077414343
15077421667
15077426672
15077433813
15077440649
15077446081
15077452734
15077458105
15077464575
15077469885
15077476294
15077481848
15077488562
15077494116
15077501074
15077507544
15077512976
15077520239
15077525671
15077532263
15077539160
15077544470
15077551062
15077556433
15077562963
15077568701
15077573767
15077580663
15077585790
15077591650
15077598791
15077604223
15077609350
15077616003
15077621313
15077627599
15077632726
15077640112
15077645849
15077652441
15077656042
15077663244
15077668310
15077674963
15077680395
15077688329
15077694982
15077701452
15077704992
15077714208
15077717626
15077728124
15077734105
15077740087
15077745946
15077751989
15077757665
15077764013
15077771215
15077776525
15077783788
15077790807
15077796910
15077801854
15077809911
15077814794
15077822667
15077827611
15077835912
15077841466
15077847936
15077854955
15077860936
15077866002
15077873143
15077878697
15077884496
15077891026
15077897191
15077902562
15077909276
15077914342
15077921361
15077926488
15077932408
15077939671
15077944981
15077950108
15077957188
15077962254
15077968724
15077974828
15077982823
15077989232
15077995763
15077999486
15078008458
15078012242
15078021641
15078025181
15078032994
15078039769
15078045750
15078051121
15078057103
15078063084
15078069066
15078074070
15078080235
15078086338
15078092259
15078097752
15078103611
15078109837
15078115818
15078120884
15078126866
15078133946
15078138706
15078145237
15078151158
15078156895
15078162876
15078169468
15078175999
15078181919
15078186802
15078193394
15078199680
15078207249
15078214024
15078219700
15078224949
15078231663
15078236790
15078243748
15078248753
15078255711
15078261143
15078266819
15078274082
15078279636
15078285313
15078291782
15078297520
15078304844
15078312961
15078319248
15078322971
15078330540
15078336887
15078342808
15078346470
15078353916
15078360141
15078366245
15078369907
15078378391
15078385349
15078391147
15078395542
15078402927
15078409336
15078414096
15078420688
15078426853
15078433139
15078439121
15078445224
15078451206
15078456211
15078462314
15078469028
15078475070
15078481357
15078487460
15078493320
15078498447
15078506137
15078510776
15078517673
15078523776
15078530002
15078534885
15078541843
15078548251
15078554355
15078560825
15078567355
15078574557
15078580539
15078587436
15078593417
15078598239
15078606418
15078610995
15078617404
15078623874
15078630099
15078635043
15078641147
15078647677
15078654513
15078659823
15078665561
15078670627
15078677401
15078682345
15078690158
15078696139
15078701449
15078706454
15078714083
15078720065
15078725741
15078731234
15078739047
15078743197
15078751315
15078756625
15078763156
15078768344
15078775729
15078782443
15078787448
15078792513
15078800997
15078805880
15078811984
15078815524
15078824801
15078831820
15078838290
15078844698
15078851168
15078856905
15078863192
15078868746
15078874972
15078879183
15078887484
15078894869
15078899874
15078907015
15078913485
15078919954
15078924532
15078931795
15078936678
15078943209
15078949129
15078955172
15078961702
15078966524
15078972811
15078979891
15078986605
15078993135
15078998384
15079004793
15079009920
15079017000
15079022066
15079028841
15079034395
15079041658
15079047274
15079054231
15079059786
15079066866
15079072298
15079079927
15079085542
15079093233
15079098970
15079105318
15079110567
15079118562
15079123872
15079131441
15079137178
15079143159
15079148836
15079155672
15079159334
15079166902
15079173555
15079179842
15079183992
15079191621
15079197786
15079203828
15079209932
15079215913
15079222078
15079228181
15079235078
15079241792
15079247835
15079252534
15079259187
15079265229
15079271699
15079276277
15079285066
15079289705
15079296235
15079302766
15079307893
15079314424
15079320039
15079326631
15079331697
15079338349
15079344453
15079349519
15079356416
15079363557
15079370210
15079375154
15079382356
15079389314
15079395661
15079401215
15079407624
15079414582
15079420930
15079428376
15079433991
15079438996
15079444917
15079452119
15079456818
15079461823
15079469025
15079474457
15079482880
15079486664
15079495087
15079498871
15079506074
15079511933
15079519074
15079522675
15079530854
15079534272
15079542450
15079549286
15079555329
15079560700
15079567048
15079573517
15079579621
15079585724
15079591706
15079597016
15079602997
15079608551
15079614594
15079621369
15079627472
15079632538
15079638642
15079645294
15079649811
15079656952
15079661530
15079669220
15079673920
15079681244
15079686005
15079693146
15079699860
15079705597
15079710297
15079717865
15079722382
15079728851
15079735260
15079741486
15079745941
15079752228
15079758820
15079764191
15079770782
15079776642
15079783417
15079789459
15079794525
15079801422
15079806854
15079813019
15079819855
15079825409
15079832306
15079838470
15079844146
15079851837
15079857513
15079864288
15079869354
15079877472
15079881378
15079889740
15079896331
15079902801
15079906646
15079914886
15079921478
15079928070
15079935272
15079940277
15079947235
15079953704
15079957366
15079965789
15079971832
15079978240
15079985015
15079991119
15079997039
15080003204
15080009307
15080015350
15080021514
15080026092
15080031829
15080037872
15080044524
15080050628
15080057281
15080063872
15080069854
15080074309
15080081023
15080087493
15080093352
15080099883
15080105132
15080111724
15080116424
15080122954
15080128936
15080135650
15080141021
15080147612
15080154021
15080159148
15080165557
15080170806
15080177031
15080182097
15080189055
15080194426
15080201079
15080206267
15080213103
15080218230
15080225371
15080230498
15080237883
15080245452
15080250395
15080255705
15080262969
15080268096
15080275054
15080280119
15080287016
15080292082
15080299162
15080305327
15080311736
15080315520
15080323943
15080327849
15080336760
15080343230
15080349333
15080354460
15080360503
15080366545
15080372587
15080378691
15080384733
15080390898
15080396818
15080401823
15080408110
15080414702
15080420988
15080426665
15080434843
15080439848
15080446440
15080452238
15080456938
15080464201
15080468840
15080476103
15080481291
15080488127
15080493437
15080500151
15080505278
15080512236
15080517240
15080524137
15080529325
15080536650
15080541960
15080548185
15080553495
15080560392
15080565458
15080572660
15080577909
15080585111
15080590543
15080597807
15080604032
15080611051
15080616911
15080622953
15080628934
15080635038
15080641630
15080647794
15080653898
15080659879
15080665983
15080670560
15080677091
15080683134
15080689603
15080695707
15080701932
15080706632
15080713346
15080719449
15080726285
15080732877
15080739591
15080746183
15080751493
15080758085
15080764798
15080771268
15080778653
15080783292
15080790616
15080795255
15080802579
15080807218
15080814664
15080819913
15080827054
15080832852
15080839078
15080846036
15080851773
15080858670
15080864530
15080869901
15080877164
15080882718
15080888760
15080895413
15080901212
15080906278
15080913785
15080919461
15080926724
15080932156
15080939908
15080943570
15080950955
15080956021
15080963040
15080968899
15080974942
15080981534
15080987698
15080991482
15080999356
15081003079
15081010464
15081016324
15081022366
15081028531
15081034695
15081041165
15081047329
15081053677
15081058316
15081065091
15081071255
15081077664
15081083828
15081089688
15081094204
15081100430
15081106472
15081113003
15081119107
15081124661
15081130764
15081136807
15081143521
15081149746
15081155972
15081161892
15081167935
15081175991
15081181240
15081188931
15081194485
15081201992
15081207485
15081215115
15081220852
15081226284
15081231350
15081238369
15081243496
15081250210
15081256435
15081263515
15081267239
15081275356
15081281582
15081288357
15081295315
15081301784
15081308376
15081313442
15081320095
15081326259
15081329738
15081337917
15081344387
15081352199
15081358547
15081363247
15081370021
15081376064
15081382290
15081388332
15081394802
15081399501
15081407131
15081411708
15081418056
15081424160
15081429958
15081436489
15081442226
15081446926
15081454433
15081459133
15081465663
15081472255
15081479030
15081485988
15081492153
15081499355
15081505824
15081511379
15081517604
15081524623
15081531032
15081536586
15081543849
15081549342
15081556728
15081561854
15081569179
15081574977
15081580348
15081585536
15081593226
15081598537
15081606044
15081611781
15081618312
15081624354
15081630580
15081636805
15081643336
15081649745
15081656031
15081662562
15081668605
15081673610
15081680018
15081686671
15081692714
15081699366
15081705775
15081712245
15081718531
15081724940
15081729762
15081737086
15081741847
15081748011
15081754115
15081759608
15081765650
15081772608
15081777186
15081783473
15081790003
15081796839
15081802149
15081810328
15081815394
15081822047
15081828455
15081834803
15081841517
15081847803
15081852564
15081859034
15081865198
15081871485
15081878077
15081884180
15081888758
15081896204
15081900843
15081908289
15081914942
15081922205
15081927332
15081935083
15081940943
15081947535
15081953028
15081961206
15081967615
15081974085
15081980371
15081986841
15081993677
15081999597
15082003199
15082010767
15082016565
15082022608
15082031336
15082041162
15082054529
15082060144
15082067590
15082072717
15082079797
15082084802
15082090784
15082096033
15082102991
15082108057
15082115076
15082121484
15082128381
15082134729
15082141321
15082148584
15082154504
15082160425
15082166711
15082171899
15082178003
15082183801
15082189722
15082195581
15082201501
15082207666
15082213769
15082220422
15082227136
15082232751
15082239404
15082245630
15082252221
15082259179
15082263818
15082271264
15082275964
15082283227
15082290612
15082295922
15082301110
15082309106
15082312524
15082321557
15082326806
15082332849
15082339929
15082344811
15082351708
15082357141
15082363366
15082368859
15082374719
15082382165
15082388207
15082395104
15082399804
15082407189
15082412621
15082419762
15082427453
15082433312
15082439049
15082445397
15082451501
15082457848
15082463097
15082470605
15082476342
15082481408
15082488854
15082495324
15082501671
15082506310
15082514123
15082520226
15082526818
15082532738
15082537438
15082543419
15082549401
15082556237
15082562401
15082568261
15082574608
15082580956
15082586632
15082593102
15082600243
15082606346
15082611901
15082619042
15082624779
15082629784
15082635521
15082642601
15082647240
15082654930
15082660301
15082667198
15082672691
15082678917
15082684654
15082690880
15082699120
15082704186
15082710594
15082715599
15082722130
15082727867
15082734459
15082742149
15082746910
15082753258
15082759483
15082766807
15082771629
15082777489
15082783226
15082790611
15082796654
15082802879
15082809044
15082815208
15082821983
15082828819
15082834434
15082841331
15082846763
15082851829
15082859275
15082865379
15082871544
15082878990
15082883567
15082890159
15082896385
15082902244
15082908958
15082914329
15082921531
15082927574
15082933555
15082939781
15082945884
15082950218
15082956931
15082964561
15082971824
15082975608
15082983421
15082990379
15082996238
15083002525
15083007529
15083015098
15083020164
15083027122
15083032798
15083039024
15083045432
15083051353
15083058494
15083063438
15083069602
15083075828
15083082541
15083087913
15083093833
15083099631
15083106894
15083112876
15083118918
15083125205
15083131247
15083137412
15083142600
15083149985
15083155112
15083161826
15083168357
15083174094
15083180503
15083187094
15083194052
15083201133
15083206137
15083211020
15083218039
15083224143
15083230612
15083236716
15083242575
15083249411
15083255759
15083261191
15083266074
15083272666
15083280600
15083286582
15083291892
15083297629
15083304221
15083308615
15083316122
15083321677
15083328390
15083333517
15083341330
15083346884
15083352499
15083358664
15083364828
15083370993
15083377341
15083383444
15083388815
15083395773
15083401327
15083408713
15083414755
15083420981
15083427755
15083433798
15083439108
15083445456
15083451437
15083456869
15083463461
15083468588
15083475668
15083482504
15083488180
15083494162
15083498617
15083506491
15083513021
15083519369
15083524069
15083531271
15083537252
15083543722
15083550009
15083555807
15083561910
15083568685
15083574239
15083580343
15083585653
15083591329
15083599142
15083606283
15083612447
15083617086
15083622823
15083629964
15083637106
15083642843
15083648153
15083655416
15083660848
15083668050
15083672872
15083679342
15083686788
15083693502
15083699483
15083704244
15083710470
15083715780
15083723287
15083730184
15083736104
15083742757
15083748616
15083754415
15083760640
15083766133
15083771810
15083779805
15083786031
15083791707
15083797078
15083803060
15083809529
15083815694
15083821492
15083827352
15083833638
15083840291
15083845662
15083850545
15083857564
15083864888
15083870870
15083876912
15083882649
15083888265
15083894490
15083900410
15083907674
15083914815
15083920918
15083926595
15083932637
15083937276
15083944173
15083950642
15083957112
15083962483
15083969014
15083976155
15083982075
15083987080
15083993062
15083999653
15084004231
15084011677
15084016743
15084024373
15084028157
15084035359
15084044392
15084048848
15084055561
15084061970
15084068989
15084073750
15084080647
15084086872
15084093037
15084100056
15084105671
15084110615
15084116658
15084123371
15084130268
15084136372
15084141255
15084148457
15084155537
15084161213
15084166950
15084171223
15084178608
15084183247
15084191120
15084196125
15084202717
15084207783
15084214314
15084220844
15084228229
15084233784
15084239948
15084246052
15084250446
15084257099
15084262653
15084270466
15084276264
15084282734
15084288593
15084294452
15084300068
15084306720
15084314350
15084319904
15084327289
15084333027
15084338825
15084342548
15084350605
15084357563
15084363483
15084369159
15084375324
15084382160
15084387592
15084393878
15084399555
15084407367
15084413898
15084419574
15084425678
15084432575
15084437824
15084444476
15084451007
15084456500
15084462665
15084467365
15084475116
15084481097
15084487079
15084494220
15084499164
15084505084
15084510089
15084516315
15084521808
15084530170
15084537494
15084543597
15084550372
15084554523
15084561542
15084565753
15084571979
15084578509
15084586017
15084589679
15084597674
15084603412
15084609698
15084615680
15084622760
15084629657
15084634845
15084641620
15084646685
15084652972
15084658953
15084665545
15084673236
15084677691
15084684588
15084691424
15084697467
15084702349
15084708636
15084714801
15084722003
15084727801
15084733782
15084739764
15084745928
15084752398
15084757952
15084765032
15084771319
15084777606
15084781207
15084789751
15084794512
15084800799
15084808123
15084813128
15084819903
15084825335
15084831744
15084837725
15084843401
15084850725
15084856585
15084862993
15084869341
15084875017
15084879961
15084887224
15084893084
15084899737
15084905901
15084912188
15084918413
15084922869
15084929033
15084935930
15084943682
15084948626
15084955095
15084958635
15084966814
15084972368
15084978289
15084985308
15084992266
15084997881
15085002764
15085009966
15085015459
15085022600
15085026445
15085034136
15085041277
15085047075
15085053728
15085058611
15085065325
15085070757
15085077654
15085083391
15085090044
15085095354
15085101518
15085107805
15085114153
15085121049
15085126298
15085132585
15085137468
15085144548
15085150407
15085156267
15085164262
15085170488
15085175676
15085182145
15085188859
15085193681
15085199602
15085204973
15085212358
15085218950
15085224687
15085230363
15085236223
15085242936
15085249650
15085257035
15085262040
15085268510
15085274675
15085281022
15085286882
15085292863
15085299760
15085306230
15085312760
15085317765
15085324601
15085330705
15085336808
15085343461
15085349320
15085355790
15085361710
15085368607
15085372880
15085379655
15085384965
15085393388
15085397538
15085405106
15085410966
15085416703
15085422562
15085430009
15085437211
15085442338
15085449418
15085456071
15085460892
15085467606
15085473466
15085480912
15085487748
15085493180
15085498063
15085505448
15085511246
15085517960
15085524247
15085530106
15085536393
15085540726
15085547623
15085554398
15085559708
15085566727
15085573807
15085580399
15085586197
15085592118
15085597855
15085603714
15085610245
15085616165
15085621170
15085628250
15085633499
15085641312
15085644791
15085654068
15085660172
15085666214
15085672806
15085679276
15085685623
15085690628
15085697098
15085701004
15085709000
15085716019
15085721756
15085728226
15085732498
15085739029
15085745560
15085752579
15085757583
15085763687
15085769424
15085776321
15085782242
15085788467
15085795852
15085800918
15085807144
15085812210
15085820205
15085823867
15085831619
15085839431
15085845169
15085851699
15085856216
15085862869
15085868972
15085875686
15085883010
15085888870
15085894790
15085901199
15085907546
15085913223
15085919326
15085925979
15085932083
15085937393
15085944961
15085948501
15085956436
15085961562
15085967910
15085975417
15085981399
15085987502
15085994399
15086000564
15086005508
15086013808
15086017593
15086026443
15086032241
15086037978
15086043960
15086050368
15086055434
15086061355
15086068313
15086073379
15086080764
15086087111
15086092788
15086098708
15086105483
15086111525
15086116958
15086124099
15086129104
15086136245
15086143874
15086148146
15086155471
15086161513
15086167800
15086174025
15086179824
15086184523
15086191664
15086197035
15086204421
15086211501
15086217238
15086222792
15086228652
15086235915
15086241286
15086247572
15086252699
15086259840
15086265883
15086272047
15086278395
15086284377
15086291212
15086297987
15086303664
15086308791
15086315688
15086319105
15086327101
15086333754
15086339613
15086346327
15086352797
15086359267
15086363905
15086370070
15086378309
15086384352
15086389479
15086395460
15086402174
15086406996
15086414137
15086419508
15086427565
15086432509
15086439161
15086444410
15086450941
15086457594
15086463758
15086470350
15086476576
15086482740
15086487867
15086494215
15086499159
15086506361
15086513014
15086519239
15086525099
15086530714
15086537122
15086543348
15086549452
15086554517
15086561842
15086568556
15086574476
15086580335
15086586317
15086592420
15086599439
15086605482
15086610609
15086617384
15086622266
15086630811
15086635572
15086643568
15086649793
15086654615
15086661695
15086667859
15086673658
15086678785
15086686353
15086694532
15086700513
15086707227
15086711499
15086718763
15086723829
15086730970
15086736280
15086743360
15086748609
15086755506
15086761548
15086767469
15086774060
15086778333
15086786878
15086791577
15086799268
15086804212
15086811963
15086815991
15086823255
15086832105
15086838269
15086843701
15086849927
15086855054
15086862317
15086867871
15086874585
15086882397
15086888806
15086895703
15086901990
15086908704
15086914929
15086920056
15086927563
15086934766
15086941052
15086948010
15086953747
15086958874
15086965466
15086970410
15086977124
15086982190
15086990063
15086995862
15087002392
15087006115
15087013684
15087020031
15087026562
15087032910
15087039624
15087046032
15087053295
15087060070
15087066540
15087071301
15087078747
15087082409
15087091687
15087098828
15087105541
15087110851
15087117321
15087125866
15087131970
15087137219
15087143322
15087149365
15087155407
15087161511
15087167614
15087172741
15087178844
15087185497
15087191601
15087197887
15087202465
15087209057
15087215099
15087221813
15087226513
15087233837
15087240795
15087247021
15087251903
15087258739
15087266002
15087272899
15087278271
15087284801
15087289928
15087296459
15087303112
15087309215
15087314892
15087321483
15087326610
15087332897
15087339183
15087344616
15087351085
15087356395
15087364025
15087369823
15087374889
15087381420
15087386425
15087392711
15087397716
15087405590
15087409252
15087417308
15087422557
15087431346
15087435008
15087443065
15087446727
15087456065
15087462962
15087469554
15087477061
15087481883
15087489574
15087494395
15087501659
15087506480
15087513377
15087519786
15087524852
15087531322
15087536937
15087543407
15087550242
15087555675
15087561900
15087568858
15087575877
15087581614
15087588633
15087594188
15087601878
15087607493
15087614634
15087619761
15087627208
15087630748
15087638499
15087644236
15087650706
15087656993
15087663401
15087667124
15087675669
15087681956
15087687815
15087693919
15087699290
15087706980
15087712046
15087718882
15087724986
15087730662
15087737559
15087743479
15087751719
15087756419
15087763560
15087768626
15087775095
15087780528
15087788035
15087794016
15087800242
15087807139
15087811472
15087819102
15087823557
15087830027
15087837046
15087842905
15087847910
15087854929
15087860972
15087866709
15087873728
15087880320
15087887949
15087893320
15087899546
15087904429
15087913462
15087919199
15087925058
15087930857
15087937571
15087942759
15087949472
15087955210
15087960092
15087966379
15087973947
15087979807
15087986154
15087990976
15087999765
15088007089
15088013315
15088017465
15088027963
15088034860
15088039987
15088046640
15088051645
15088060495
15088064768
15088072580
15088079416
15088085519
15088091501
15088097971
15088104562
15088110239
15088117990
15088123483
15088130441
15088135446
15088143014
15088149240
15088155099
15088161630
15088168039
15088173593
15088177743
15088183908
15088189950
15088196359
15088202157
15088209543
15088213083
15088221627
15088229562
15088234628
15088243051
15088250192
15088256601
15088263497
15088266915
15088275643
15088280709
15088287179
15088296212
15088301156
15088309457
15088315560
15088321847
15088328866
15088335275
