15363954076
15363958898
15363964208
15363971410
15363976659
15363982396
15363988011
15363994664
15364000951
15364006078
15364012059
15364017613
15364024144
15364030736
15364036473
15364043370
15364049413
15364055821
15364063084
15364068394
15364076207
15364082188
15364089024
15364095311
15364101903
15364112279
15364118931
15364126195
15364132786
15364139317
15364147069
15364151463
15364160069
15364165745
15364172581
15364178441
15364186192
15364193394
15364200108
15364206150
15364214451
15364220433
15364226536
15364234043
15364240818
15364247410
15364253697
15364260227
15364267308
15364273777
15364282444
15364288853
15364295628
15364302830
15364310032
15364319248
15364325596
15364332493
15364340977
15364346958
15364355320
15364362888
15364368870
15364377109
15364384190
15364390659
15364398899
15364406040
15364413853
15364420383
15364426914
15364434482
15364442844
15364449192
15364455295
15364463718
15364471042
15364478550
15364485935
15364493015
15364500156
15364507358
15364514560
15364522678
15364530918
15364537143
15364545566
15364551120
15364558505
15364565402
15364573581
15364582065
15364590061
15364596225
15364603366
15364610751
15364617770
15364624973
15364631870
15364639133
15364646762
15364652560
15364660373
15364668430
15364675693
15364683627
15364689181
15364698031
15364705234
15364711581
15364717807
15364726291
15364733798
15364741305
15364747836
15364753940
15364762851
15364769809
15364779513
15364786837
15364794162
15364802584
15364809909
15364817050
15364824374
15364831393
15364838473
15364846713
15364853427
15364861972
15364868441
15364876132
15364882662
15364890902
15364898287
15364906222
15364915560
15364926180
15364933505
15364943331
15364951327
15364958956
15364965670
15364973421
15364980135
15364986422
15364995028
15365003573
15365009249
15365017306
15365025118
15365032503
15365038546
15365047945
15365055269
15365062777
15365071261
15365079256
15365086458
15365095430
15365102327
15365111666
15365121981
15365129976
15365138155
15365145784
15365154451
15365162447
15365169771
15365178804
15365185884
15365193208
15365200411
15365209871
15365215913
15365224703
15365230989
15365241121
15365249483
15365256441
15365265291
15365272005
15365279634
15365287141
15365295137
15365303071
15365311250
15365320955
15365328218
15365335054
15365344026
15365350374
15365360627
15365370271
15365378389
15365385652
15365393953
15365401765
15365410066
15365416169
15365427766
15365433869
15365444734
15365450837
15365459687
15365467195
15365477998
15365484590
15365496858
15365505402
15365514130
15365523469
15365532197
15365538422
15365550446
15365558198
15365564179
15365573701
15365582917
15365589509
15365598481
15365606843
15365615265
15365623810
15365630951
15365641572
15365649262
15365658295
15365667695
15365676728
15365685151
15365692353
15365700714
15365709565
15365719147
15365729340
15365737702
15365744355
15365754608
15365761811
15365770539
15365780548
15365789398
15365796967
15365805939
15365813263
15365821625
15365828705
15365836823
15365846344
15365854034
15365862335
15365870453
15365876678
15365888641
15365895050
15365902008
15365911835
15365921478
15365930328
15365939544
15365946808
15365955597
15365962555
15365970977
15365980560
15365989959
15365997711
15366006378
15366015350
15366024749
15366031646
15366041107
15366049041
15366056365
15366063507
15366070587
15366078765
15366085967
15366093963
15366103607
15366112701
15366120940
15366129180
15366137298
15366147002
15366155914
15366164153
15366172515
15366180694
15366188811
15366196746
15366205169
15366213592
15366220122
15366230132
15366240569
15366245513
15366256316
15366262664
15366272063
15366278106
15366287566
15366297087
15366307280
15366313567
15366321807
15366327544
15366336455
15366345488
15366353545
15366361540
15366370024
15366378081
15366384917
15366392607
15366400420
15366410246
15366418303
15366428008
15366436491
15366444426
15366451994
15366459746
15366468413
15366475981
15366484343
15366488554
15366501677
15366511259
15366519255
15366525053
15366532927
15366538847
15366546415
15366551420
15366558622
15366563078
15366568632
15366575895
15366581266
15366589384
15366595549
15366603666
15366609404
15366616362
15366622526
15366628813
15366634428
15366641386
15366647673
15366652738
15366659452
15366665617
15366671903
15366678373
15366684599
15366690458
15366696439
15366702848
15366708524
15366715727
15366721769
15366727934
15366733305
15366738493
15366744901
15366749906
15366756193
15366760404
15366767118
15366772550
15366779447
15366785917
15366790067
15366795804
15366801481
15366807035
15366813871
15366819852
15366826261
15366833280
15366838529
15366844693
15366851224
15366857511
15366863736
15366871305
15366875760
15366883329
15366888578
15366894437
15366901212
15366906888
15366911649
15366919034
15366924100
15366930997
15366936429
15366943265
15366948270
15366955228
15366960233
15366967191
15366973538
15366978238
15366985745
15366989957
15366998258
15367004910
15367012112
15367016690
15367024075
15367029263
15367036649
15367042630
15367048306
15367053860
15367060147
15367064053
15367070279
15367076871
15367082730
15367088223
15367092984
15367098172
15367105252
15367111539
15367116238
15367122891
15367127469
15367134244
15367138821
15367144986
15367150601
15367155972
15367160916
15367166409
15367170926
15367177334
15367184109
15367189663
15367195095
15367201077
15367206814
15367212673
15367218289
15367225796
15367231167
15367237087
15367243679
15367248928
15367254299
15367259854
15367265225
15367272549
15367279080
15367284573
15367292141
15367297085
15367303188
15367309292
15367314724
15367319668
15367325405
15367331692
15367337246
15367343349
15367348904
15367353420
15367359768
15367364407
15367371731
15367376369
15367384304
15367389431
15367395229
15367402187
15367408291
15367414089
15367419460
15367424099
15367429470
15367435329
15367440639
15367445766
15367452846
15367457973
15367465419
15367471401
15367477138
15367483181
15367490017
15367495388
15367502163
15367508022
15367514858
15367519252
15367526210
15367531948
15367538906
15367545009
15367550136
15367555934
15367563259
15367570094
15367576320
15367582485
15367587550
15367593837
15367601405
15367607265
15367613124
15367618678
15367624171
15367630153
15367636623
15367642848
15367649013
15367655360
15367661281
15367668483
15367673183
15367680568
15367685268
15367693080
15367698756
15367703822
15367710048
15367715236
15367720180
15367727138
15367732142
15367739589
15367745265
15367752101
15367757167
15367763881
15367770045
15367776332
15367782374
15367788966
15367794398
15367798793
15367805323
15367810084
15367816981
15367822474
15367828273
15367833888
15367839320
15367844935
15367850245
15367855860
15367861353
15367866114
15367873194
15367877894
15367885645
15367891200
15367898036
15367903773
15367909205
15367914881
15367921900
15367927332
15367934107
15367938746
15367945765
15367952723
15367957911
15367963343
15367970850
15367977259
15367981592
15367987696
15367992151
15367999842
15368004542
15368010035
15368017725
15368023829
15368028834
15368035730
15368040308
15368045740
15368052210
15368057703
15368063196
15368069605
15368075098
15368080164
15368085657
15368090723
15368096277
15368102930
15368109522
15368114405
15368119959
15368127039
15368133325
15368138269
15368145532
15368152612
15368158777
15368164697
15368170862
15368176233
15368182398
15368189417
15368195398
15368201196
15368207239
15368213709
15368219446
15368224207
15368231042
15368236169
15368242212
15368247827
15368255212
15368261072
15368266809
15368272119
15368279565
15368285425
15368291406
15368298242
15368303735
15368309656
15368316308
15368321557
15368326928
15368332605
15368339624
15368345056
15368351892
15368357934
15368362878
15368369470
15368375695
15368381860
15368387048
15368393884
15368400659
15368406884
15368413720
15368419213
15368425988
15368431726
15368439111
15368444421
15368450341
15368457116
15368463037
15368469567
15368474816
15368480493
15368489831
15368495080
15368502038
15368506860
15368514367
15368519921
15368526940
15368536095
15368556908
15368574914
15368598168
15368610985
15368620019
15368628380
15368642968
15368660119
15368676171
15368695092
15368718285
15368735314
15368755516
15368774376
15368793114
15368808678
15368818138
15368826988
15368837181
15368845787
15368853416
15368864647
15368875328
15368884483
15368890709
15368899559
15368907860
15368915001
15368922569
15368935447
15368950401
15368963524
15368978904
15368992088
15369006370
15369018455
15369030540
15369038841
15369046897
15369056053
15369066001
15369075401
15369084556
15369095420
15369104758
15369114036
15369123496
15369133506
15369142600
15369152610
15369160911
15369169761
15369179282
15369187400
15369196799
15369204978
15369214927
15369225486
15369234214
15369245017
15369253318
15369262656
15369270896
15369282248
15369292807
15369300315
15369310141
15369318259
15369327048
15369333335
15369345053
15369353354
15369361960
15369370932
15369380942
15369392844
15369399741
15369409933
15369419272
15369428427
15369436789
15369445456
15369454245
15369462729
15369471091
15369479330
15369489096
15369498129
15369506857
15369516806
15369525534
15369532248
15369538473
15369544760
15369552023
15369557333
15369562155
15369568502
15369573324
15369579000
15369585897
15369592184
15369598837
15369603659
15369610189
15369615255
15369621908
15369626852
15369634176
15369642050
15369646566
15369653829
15369658529
15369665731
15369671346
15369677145
15369684103
15369691061
15369695760
15369702718
15369707479
15369714437
15369720113
15369725668
15369732687
15369737875
15369742879
15369748983
15369755514
15369761190
15369766988
15369773275
15369779928
15369784505
15369791341
15369795614
15369803121
15369806051
15369814107
15369821309
15369827291
15369832479
15369839925
15369845052
15369852315
15369857991
15369864644
15369869954
15369876912
15369883199
15369888143
15369895772
15369900716
15369907064
15369913655
15369919515
15369926473
15369932454
15369938130
15369945271
15369950582
15369957662
15369963338
15369969930
15369974812
15369981404
15369987508
15369994283
15370000447
15370007100
15370012776
15370015767
15370024983
15370030843
15370038106
15370043721
15370051289
15370057942
15370062520
15370068867
15370075398
15370081257
15370087727
15370093709
15370099751
15370107075
15370112629
15370119465
15370125508
15370130696
15370137104
15370144246
15370150227
15370156086
15370162922
15370169026
15370176167
15370182576
15370187764
15370194966
15370199910
15370207295
15370212727
15370219136
15370225239
15370232075
15370239094
15370243733
15370251057
15370255818
15370262531
15370267780
15370276508
15370282185
15370288166
15370293659
15370299641
15370306599
15370312153
15370319538
15370325031
15370331623
15370338215
15370343952
15370349995
15370356464
15370361896
15370367573
15370374958
15370380634
15370387592
15370394062
15370398639
15370405597
15370412006
15370417499
15370423237
15370430378
15370435199
15370442341
15370447223
15370453876
15370459003
15370467121
15370472431
15370478412
15370483722
15370489765
15370495563
15370501422
15370508930
15370513874
15370522174
15370527851
15370532184
15370539813
15370545612
15370552631
15370558917
15370565692
15370570453
15370576679
15370582660
15370589252
15370596393
15370601764
15370608783
15370613177
15370620258
15370625873
15370633319
15370639362
15370645221
15370652118
15370658282
15370663837
15370669818
15370677447
15370682696
15370689715
15370695270
15370701617
15370707660
15370712542
15370720660
15370728778
15370733966
15370739886
15370746234
15370751117
15370758319
15370764483
15370772357
15370778216
15370783160
15370790484
15370795184
15370801959
15370807208
15370814288
15370821490
15370827777
15370833819
15370839923
15370845416
15370852191
15370859026
15370865496
15370871478
15370876910
15370883257
15370888628
15370895647
15370901568
15370907488
15370912981
15370920428
15370925555
15370930865
15370937334
15370944231
15370951800
15370957171
15370962542
15370970354
15370976519
15370981524
15370986895
15370993487
15370999041
15371005755
15371012652
15371018145
15371023699
15371029986
15371037249
15371043230
15371049822
15371055498
15371060015
15371067217
15371073931
15371079851
15371088091
15371093157
15371099321
15371105974
15371111406
15371117571
15371123613
15371130449
15371136247
15371142351
15371149004
15371153703
15371160661
15371166643
15371173479
15371178545
15371185320
15371191911
15371196184
15371203752
15371209367
15371214799
15371222368
15371228838
15371232988
15371239458
15371246294
15371252336
15371257768
15371265581
15371271379
15371277177
15371282609
15371288591
15371294755
15371300493
15371307756
15371314042
15371319963
15371325456
15371331926
15371337968
15371344072
15371351274
15371357988
15371365800
15371372026
15371376481
15371382890
15371390031
15371395951
15371402482
15371409562
15371415483
15371420548
15371426896
15371433122
15371439713
15371444840
15371452897
15371458756
15371464433
15371471696
15371477067
15371482560
15371489152
15371495988
15371500443
15371507890
15371514909
15371520158
15371525285
15371533219
15371538651
15371545243
15371550187
15371557145
15371564103
15371568314
15371574784
15371582413
15371587601
15371593644
15371599747
15371604752
15371611649
15371618485
15371624405
15371630204
15371636429
15371643937
15371647965
15371654801
15371661209
15371666947
15371673905
15371679764
15371685685
15371692948
15371698319
15371704666
15371710160
15371715653
15371722672
15371728836
15371735367
15371740189
15371746536
15371753739
15371759964
15371767105
15371772598
15371778946
15371785477
15371792007
15371796890
15371804214
15371811295
15371817947
15371823868
15371829971
15371837356
15371842178
15371849686
15371855728
15371862503
15371866958
15371873489
15371879715
15371886062
15371893448
15371899673
15371906509
15371912063
15371917495
15371924575
15371930374
15371935928
15371943191
15371948806
15371953872
15371960952
15371968032
15371973281
15371978530
15371985183
15371992324
15371999221
15372004592
15372010269
15372016311
15372023574
15372029006
15372034805
15372041274
15372047744
15372053848
15372059341
15372065505
15372071609
15372078384
15372084731
15372090713
15372097549
15372103408
15372107742
15372113784
15372120803
15372126662
15372133193
15372138625
15372145827
15372151259
15372158706
15372163589
15372169936
15372176894
15372182387
15372187880
15372194900
15372200026
15372207473
15372213637
15372219130
15372225783
15372230361
15372243422
15372256728
15372263259
15372270034
15372274672
15372283339
15372289138
15372295668
15372302809
15372309340
15372314894
15372319533
15372328261
15372333571
15372340712
15372346083
15372352553
15372358168
15372364943
15372371169
15372377516
15372384291
15372389235
15372395705
15372401564
15372407790
15372414259
15372420119
15372425429
15372431471
15372436842
15372443434
15372449904
15372455580
15372461683
15372466810
15372472548
15372479384
15372487868
15372493910
15372501600
15372507094
15372513746
15372521010
15372528090
15372533766
15372539076
15372547682
15372553846
15372561476
15372567396
15372573011
15372579176
15372586805
15372593641
15372598707
15372605848
15372611280
15372617811
15372624098
15372629041
15372635450
15372643568
15372650282
15372656873
15372662122
15372668287
15372674635
15372680433
15372687757
15372694288
15372700697
15372705518
15372713392
15372719129
15372726148
15372730726
15372737562
15372742506
15372749525
15372756666
15372762952
15372768995
15372774854
15372780530
15372787122
15372792615
15372799329
15372806897
15372814222
15372821058
15372828321
15372834546
15372842664
15372849500
15372855359
15372861341
15372868238
15372874158
15372879102
15372885144
15372891797
15372897840
15372903760
15372910108
15372916211
15372923779
15372929761
15372936597
15372941480
15372947400
15372953137
15372958325
15372965283
15372972546
15372977673
15372983716
15372991040
15372996289
15373003186
15373007825
15373016370
15373021008
15373027478
15373033398
15373039319
15373045911
15373052380
15373058545
15373064404
15373071118
15373076855
15373081555
15373088696
15373095532
15373101574
15373105969
15373113659
15373118969
15373124951
15373131115
15373138379
15373144482
15373150280
15373155224
15373161328
15373167187
15373175061
15373181164
15373185437
15373191296
15373197766
15373204785
15373211376
15373219006
15373222912
15373229931
15373235485
15373242260
15373247021
15373253185
15373260388
15373265637
15373271679
15373278515
15373283398
15373291149
15373297802
15373303844
15373311413
15373316601
15373321178
15373328625
15373334911
15373343029
15373347668
15373354137
15373359020
15373365185
15373372570
15373379711
15373386303
15373393505
15373400890
15373405895
15373412670
15373419323
15373424633
15373430919
15373437450
15373443187
15373449230
15373456310
15373463207
15373469799
15373476512
15373481884
15373486949
15373496776
15373504466
15373509410
15373515148
15373521617
15373528087
15373533153
15373540172
15373546703
15373553478
15373560130
15373564586
15373571056
15373576854
15373583019
15373591136
15373598643
15373604442
15373610545
15373616344
15373622203
15373629771
15373637034
15373642039
15373649669
15373655589
15373661204
15373668284
15373673778
15373681590
15373686534
15373692698
15373699473
15373705027
15373710460
15373717967
15373723704
15373730174
15373736461
15373742869
15373748545
15373754283
15373759593
15373768260
15373774668
15373780162
15373786021
15373792613
15373797373
15373804270
15373809397
15373817759
15373822764
15373829234
15373835154
15373839732
15373846324
15373854075
15373860239
15373866160
15373872996
15373876841
15373884043
15373890025
15373898753
15373904734
15373910899
15373915720
15373922007
15373928049
15373935007
15373941782
15373947886
15373952280
15373958140
15373964365
15373972910
15373979136
15373985178
15373990488
15373996836
15374002756
15374008066
15374014719
15374022165
15374028574
15374033335
15374038950
15374045237
15374051706
15374058725
15374065195
15374070871
15374077219
15374081491
15374088632
15374095957
15374101938
15374108591
15374114755
15374120798
15374126779
15374131967
15374139841
15374144907
15374152353
15374157358
15374164316
15374169321
15374176889
15374183359
15374189340
15374194955
15374200510
15374206064
15374212595
15374219125
15374224435
15374230356
15374237070
15374242563
15374249399
15374254892
15374263559
15374269357
15374275461
15374281076
15374285287
15374291513
15374299264
15374305673
15374312326
15374318612
15374323190
15374329965
15374337289
15374344735
15374350473
15374357003
15374362435
15374368417
15374373422
15374380136
15374385873
15374391732
15374397897
15374403146
15374407907
15374414193
15374419320
15374426095
15374432687
15374438180
15374444100
15374450143
15374456063
15374461495
15374466561
15374474862
15374478036
15374486764
15374492196
15374497567
15374503915
15374509286
15374514535
15374521432
15374525582
15374532174
15374537911
15374544076
15374549080
15374555611
15374561043
15374567879
15374574044
15374580025
15374586190
15374592232
15374598031
15374604134
15374611214
15374616097
15374622689
15374627449
15374632698
15374638192
15374644905
15374652901
15374658150
15374663704
15374670174
15374674691
15374681710
15374687874
15374693489
15374700508
15374706856
15374712532
15374718025
15374723641
15374727852
15374734871
15374741341
15374746956
15374753792
15374759590
15374765328
15374770699
15374777168
15374783211
15374791512
15374796577
15374802498
15374807259
15374813118
15374817940
15374823982
15374830391
15374835762
15374842659
15374848701
15374854744
15374860908
15374866401
15374871650
15374878059
15374883735
15374888496
15374896675
15374902961
15374908516
15374915229
15374922248
15374928535
15374934333
15374939888
15374944221
15374949836
15374956550
15374962593
15374969551
15374975166
15374981025
15374986274
15374992317
15374999031
15375002998
15375009956
15375016792
15375022163
15375027656
15375034309
15375039802
15375046211
15375051276
15375058601
15375066230
15375072761
15375078559
15375084724
15375090278
15375094855
15375101813
15375106940
15375115180
15375120246
15375125678
15375131965
15375137397
15375143378
15375149055
15375156257
15375161567
15375167121
15375173224
15375177985
15375184333
15375189216
15375196174
15375203315
15375209174
15375214667
15375219001
15375224677
15375231086
15375237006
15375242926
15375248297
15375252814
15375259345
15375265204
15375270331
15375274848
15375281745
15375288397
15375294135
15375301154
15375306403
15375311957
15375318976
15375324225
15375329779
15375336676
15375342108
15375349249
15375354559
15375361029
15375366339
15375372565
15375379034
15375383063
15375389227
15375394232
15375400519
15375405279
15375411627
15375417914
15375422735
15375430548
15375435187
15375442755
15375447455
15375455023
15375460638
15375466376
15375473089
15375479559
15375484564
15375490362
15375496405
15375503546
15375509222
15375514959
15375521673
15375527472
15375533026
15375539984
15375546087
15375550848
15375556341
15375562689
15375567511
15375573736
15375578497
15375585028
15375590704
15375597174
15375602606
15375610479
15375615484
15375622381
15375627081
15375633733
15375639227
15375645757
15375652349
15375659185
15375664434
15375670782
15375676580
15375682256
15375688909
15375694646
15375700567
15375707586
15375712896
15375718755
15375724676
15375729192
15375735113
15375739690
15375746099
15375750860
15375757085
15375763616
15375769231
15375773137
15375779241
15375784612
15375793035
15375798650
15375803228
15375808538
15375814824
15375820073
15375826299
15375831609
15375837285
15375844670
15375850042
15375855779
15375862615
15375867742
15375874394
15375881291
15375887273
15375893865
15375898015
15375904241
15375909307
15375915654
15375921330
15375927983
15375934941
15375940373
15375946111
15375952397
15375957768
15375964177
15375969548
15375976445
15375982549
15375989201
15375994267
15375999638
15376005742
15376010686
15376017522
15376024174
15376029179
15376034550
15376040715
15376046696
15376052312
15376057561
15376065251
15376071110
15376077153
15376083012
15376090092
15376095341
15376100895
15376106266
15376113163
15376118840
15376125004
15376131901
15376138615
15376143986
15376148869
15376155339
15376162419
15376166996
15376174198
15376180912
15376186711
15376192997
15376198002
15376202580
15376210026
15376216129
15376221867
15376227726
15376234867
15376240055
15376245853
15376252873
15376259953
15376265018
15376271549
15376276371
15376282474
15376287296
15376293644
15376299381
15376305973
15376310367
15376316288
15376321476
15376327640
15376332401
15376339847
15376346500
15376351261
15376359318
15376364933
15376371952
15376376468
15376383182
15376389164
15376395939
15376400028
15376406620
15376412418
15376417118
15376423221
15376429813
15376436405
15376442325
15376447025
15376453495
15376460086
15376464359
15376470645
15376476993
15376482486
15376487003
15376494388
15376499759
15376505069
15376511112
15376516666
15376522098
15376529117
15376534061
15376539493
15376546024
15376550906
15376556094
15376562930
15376570010
15376574527
15376580814
15376586429
15376591800
15376597354
15376604129
15376608646
15376616153
15376621402
15376626712
15376631045
15376638553
15376643374
15376650393
15376656558
15376662112
15376667178
15376673892
15376679690
15376684634
15376690738
15376697268
15376702090
15376708743
15376713809
15376720156
15376725589
15376731753
15376736026
15376742739
15376749697
15376754092
15376760440
15376766238
15376771609
15376778018
15376783511
15376790652
15376796267
15376802188
15376807620
15376812563
15376819460
15376824648
15376831240
15376838992
15376847292
15376852725
15376858889
15376862856
15376869265
15376876345
15376882510
15376889407
15376894778
15376900210
15376906557
15376911745
15376916750
15376921938
15376927859
15376934756
15376939394
15376947207
15376952822
15376959414
15376965517
15376972780
15376978762
15376984926
15376990419
15376996828
15377002565
15377007021
15377013124
15377019533
15377026796
15377032228
15377037966
15377044374
15377050112
15377056642
15377062685
15377069094
15377075624
15377080568
15377086611
15377091921
15377098085
15377103151
15377110109
15377115602
15377120363
15377128359
15377132997
15377139711
15377146425
15377152223
15377159853
15377165346
15377170412
15377175722
15377181459
15377186830
15377193483
15377198671
15377205385
15377211000
15377217287
15377222230
15377227540
15377233644
15377239198
15377245668
15377250673
15377257448
15377264100
15377268983
15377274659
15377280275
15377286805
15377292604
15377298463
15377304567
15377310304
15377316591
15377321901
15377327699
15377332948
15377338746
15377346009
15377352479
15377359010
15377363648
15377369813
15377374147
15377383180
15377389222
15377395631
15377400819
15377405885
15377412476
15377417176
15377426515
15377432557
15377438599
15377444581
15377450990
15377455933
15377462037
15377466431
15377473695
15377480225
15377484742
15377490967
15377496522
15377503297
15377509156
15377514771
15377521058
15377528077
15377531067
15377538025
15377543824
15377549073
15377554871
15377560120
15377566346
15377573426
15377577942
15377584839
15377590149
15377596192
15377601136
15377609497
15377615601
15377620301
15377627259
15377633606
15377639344
15377643921
15377651978
15377658448
15377664063
15377669068
15377675598
15377680725
15377685852
15377692261
15377697266
15377704712
15377710205
15377715943
15377722534
15377728150
15377734314
15377740479
15377744995
15377752686
15377757507
15377764038
15377770264
15377775574
15377779846
15377787109
15377794311
15377799927
15377805054
15377810486
15377816650
15377821899
15377826294
15377833252
15377839966
15377845154
15377851013
15377857116
15377862488
15377868835
15377873169
15377880432
15377886963
15377893676
15377898254
15377904419
15377910461
15377914550
15377920837
15377925232
15377934143
15377939697
15377944824
15377950561
15377955688
15377961791
15377967224
15377973205
15377978942
15377985412
15377990722
15377997497
15378002685
15378009643
15378015258
15378021606
15378028137
15378032226
15378038757
15378044799
15378051452
15378057616
15378063964
15378071105
15378075561
15378081603
15378089049
15378094848
15378099914
15378107238
15378113219
15378120238
15378124450
15378131042
15378137084
15378142394
15378148986
15378156005
15378161010
15378167479
15378173217
15378177306
15378184325
15378188598
15378195128
15378200255
15378209044
15378214171
15378219420
15378225402
15378230712
15378236754
15378241881
15378249266
15378254943
15378261046
15378265807
15378270507
15378276915
15378281554
15378288268
15378293334
15378299925
15378305724
15378312132
15378318114
15378323912
15378328124
15378334959
15378342406
15378346983
15378354857
15378359740
15378366209
15378371336
15378378111
15378384703
15378389952
15378395445
15378401671
15378406859
15378412901
15378417784
15378424193
15378430296
15378437254
15378443175
15378447325
15378454527
15378458799
15378464964
15378471678
15378477659
15378484129
15378490660
15378496336
15378501707
15378507322
15378512632
15378520506
15378525633
15378531492
15378536436
15378542295
15378548460
15378553282
15378559629
15378566892
15378571836
15378579099
15378583677
15378590330
15378596800
15378602293
15378609312
15378616270
15378621153
15378626524
15378632810
15378638181
15378642698
15378649839
15378656431
15378664426
15378669797
15378674619
15378679929
15378685972
15378690977
15378697385
15378702634
15378709531
15378714292
15378720884
15378727720
15378732053
15378738462
15378744260
15378751645
15378757383
15378763181
15378767759
15378774289
15378780515
15378785825
15378791929
15378798825
15378803342
15378809873
15378815366
15378820371
15378826291
15378832944
15378837766
15378844358
15378849179
15378855710
15378862241
15378868039
15378873593
15378880307
15378886106
15378892758
15378898435
15378904355
15378910214
15378916562
15378922482
15378930539
15378935666
15378941708
15378946469
15378952512
15378957883
15378964780
15378970517
15378976437
15378983090
15378988522
15378994809
15379000485
15379004880
15379012204
15379017331
15379024594
15379030453
15379036130
15379042904
15379048459
15379054440
15379060849
15379066220
15379073361
15379078610
15379084835
15379089962
15379094723
15379100399
15379107052
15379114987
15379119564
15379125607
15379131039
15379136898
15379141171
15379147702
15379154904
15379161923
15379167416
15379172787
15379178036
15379183163
15379188961
15379194149
15379201229
15379207638
15379212948
15379217892
15379223202
15379229244
15379234921
15379240047
15379247677
15379252316
15379258968
15379263058
15379269711
15379273800
15379280453
15379285885
15379291378
15379298214
15379305660
15379311031
15379318355
15379324703
15379330684
15379338314
15379348751
15379356319
15379364986
15379369747
15379375789
15379382442
15379389888
15379395626
15379400264
15379407283
15379413204
15379418758
15379424861
15379430538
15379437618
15379442989
15379451229
15379458736
15379463191
15379469905
15379477046
15379482845
15379489986
15379495113
15379501094
15379507625
15379513545
15379518306
15379525569
15379531490
15379536983
15379542415
15379547969
15379553584
15379560481
15379566829
15379572078
15379578853
15379583980
15379589168
15379595943
15379601131
15379607417
15379612666
15379619258
15379625789
15379631831
15379637019
15379642878
15379648005
15379653621
15379658809
15379666255
15379671748
15379677119
15379682429
15379687861
15379692988
15379698237
15379703669
15379710505
15379715571
15379721919
15379726741
15379732844
15379739131
15379744258
15379751704
15379759577
15379764033
15379770503
15379775263
15379782954
15379787531
15379794245
15379801936
15379807429
15379811945
15379818598
15379823115
15379829646
15379834467
15379839655
15379846796
15379853510
15379857844
15379864680
15379870600
15379875483
15379881464
15379886713
15379893671
15379900202
15379904719
15379911066
15379916071
15379922480
15379928950
15379935785
15379941279
15379948359
15379954157
15379959467
15379966547
15379971796
15379977533
15379983942
15379991083
15379995356
15380002436
15380007563
15380014704
15380019953
15380027399
15380033075
15380039667
15380045526
15380050470
15380057184
15380061457
15380068598
15380073847
15380081842
15380087213
15380092462
15380096674
15380104120
15380109796
15380114984
15380121881
15380127618
15380133234
15380138727
15380143976
15380150629
15380155756
15380162775
15380169305
15380176385
15380183038
15380188714
15380194086
15380198358
15380204034
15380211175
15380217340
15380221979
15380230218
15380234918
15380241632
15380246209
15380252923
15380256280
15380265313
15380270135
15380275384
15380280816
15380287469
15380292535
15380299981
15380306085
15380312493
15380317376
15380323480
15380329034
15380333856
15380339898
15380344964
15380351983
15380356866
15380364739
15380369378
15380376580
15380382745
15380388116
15380395379
15380400933
15380406793
15380412103
15380417107
15380423699
15380429070
15380436089
15380441216
15380447747
15380452569
15380458611
15380463921
15380470208
15380474847
15380482110
15380488091
15380492669
15380499077
15380503472
15380511162
15380516961
15380522393
15380529046
15380534661
15380539666
15380546319
15380551995
15380557305
15380562737
15380568047
15380574639
15380580620
15380587090
15380592156
15380598320
15380604546
15380609978
15380617058
15380623223
15380627800
15380634514
15380640435
15380645867
15380651787
15380657219
15380662102
15380670586
15380676018
15380681572
15380687920
15380693779
15380700066
15380705132
15380712334
15380718803
15380722832
15380729118
15380734612
15380740898
15380746147
15380752617
15380758659
15380764519
15380769890
15380775566
15380781059
15380785271
15380792839
15380799858
15380805473
15380810844
15380816154
15380821831
15380827202
15380832268
15380839226
15380844230
15380851433
15380857475
15380862663
15380869133
15380874321
15380880546
15380886039
15380892997
15380899711
15380906303
15380911064
15380917594
15380923637
15380929435
15380937187
15380943351
15380948051
15380955314
15380960380
15380965629
15380971244
15380978202
15380985221
15380990470
15380996269
15381002494
15381007987
15381014762
15381019706
15381027213
15381033744
15381038322
15381044791
15381050346
15381056022
15381062369
15381067741
15381074454
15381080253
15381085563
15381092094
15381096610
15381101859
15381106925
15381114066
15381121146
15381126334
15381132132
15381136954
15381142203
15381148368
15381153739
15381160209
15381166678
15381171439
15381178275
15381184134
15381190238
15381194571
15381202689
15381210074
15381215995
15381221732
15381227591
15381234305
15381240042
15381245413
15381252982
15381259818
15381265006
15381270560
15381275321
15381281485
15381287772
15381293265
15381298514
15381304251
15381311514
15381317984
15381323599
15381327811
15381334036
15381338919
15381346182
15381352408
15381357046
15381364371
15381370413
15381377615
15381383047
15381388846
15381397146
15381402762
15381408743
15381415335
15381420157
15381426504
15381432181
15381437552
15381442862
15381449820
15381454886
15381461416
15381466787
15381473379
15381480215
15381486563
15381492178
15381496572
15381503347
15381509939
15381515493
15381521658
15381526907
15381533804
15381538809
15381543691
15381550222
15381555349
15381562307
15381568167
15381573843
15381580862
15381586111
15381591482
15381597524
15381602224
15381608511
15381613455
15381620351
15381627065
15381631643
15381639516
15381644094
15381649404
15381655996
15381661489
15381668325
15381673757
15381679433
15381686147
15381691701
15381697439
15381703359
15381710866
15381716054
15381722280
15381727651
15381733022
15381739003
15381745717
15381751210
15381758840
15381764150
15381770864
15381776662
15381783376
15381787770
15381794484
15381801870
15381806935
15381812307
15381818776
15381825246
15381829702
15381835805
15381842153
15381848378
15381852834
15381859975
15381864247
15381871083
15381877370
15381882619
15381887807
15381893178
15381900502
15381905629
15381910451
15381917470
15381922902
15381929372
15381934438
15381941029
15381945912
15381952626
15381957448
15381963856
15381970265
15381976369
15381982045
15381989003
15381994740
15382000722
15382006032
15382012013
15382017384
15382023366
15382028859
15382034291
15382041066
15382045643
15382052296
15382057057
15382063771
15382069447
15382074879
15382082203
15382088795
15382092701
15382098683
15382103505
15382109547
15382115467
15382119923
15382126881
15382133534
15382139088
15382144947
15382150318
15382156300
15382161549
15382168629
15382174244
15382179859
15382185169
15382190724
15382196034
15382200672
15382207813
15382214161
15382219654
15382225575
15382231800
15382236500
15382242664
15382247852
15382254383
15382260731
15382267261
15382272510
15382278126
15382283436
15382289051
15382294422
15382300770
15382306812
15382313404
15382319141
15382324024
15382330921
15382335621
15382342884
15382349353
15382354786
15382361316
15382366504
15382372852
15382379139
15382384327
15382389942
15382397083
15382401660
15382407093
15382413318
15382419055
15382425342
15382430713
15382437061
15382442798
15382448841
15382454212
15382459827
15382465198
15382470874
15382476245
15382483997
15382489124
15382495471
15382500476
15382506824
15382511890
15382517688
15382524280
15382530444
15382537402
15382543140
15382548450
15382553455
15382559619
15382565356
15382569995
15382578174
15382585376
15382591235
15382597705
15382603320
15382608569
15382614001
15382620227
15382627185
15382632617
15382637439
15382643481
15382648303
15382653674
15382660632
15382668078
15382673083
15382678698
15382685168
15382691882
15382696154
15382702075
15382708972
15382715014
15382721362
15382727221
15382733020
15382740222
15382745288
15382750964
15382758166
15382765002
15382770922
15382776293
15382782519
15382789172
15382794421
15382801867
15382807055
15382813769
15382818652
15382824938
15382829760
15382835863
15382841418
15382847582
15382854540
15382858996
15382865649
15382870226
15382876879
15382881518
15382886889
15382893725
15382901110
15382905871
15382913134
15382919298
15382924608
15382929979
15382937243
15382942736
15382949450
15382955736
15382960070
15382966051
15382972704
15382978075
15382984911
15382991320
15382998095
15383003771
15383009813
15383015367
15383020738
15383027819
15383033129
15383040209
15383044725
15383051378
15383056261
15383061510
15383067064
15383074327
15383079759
15383086229
15383091478
15383097643
15383101915
15383108141
15383113512
15383120836
15383127061
15383133287
15383139146
15383145555
15383151292
15383155931
15383162584
15383169786
15383177171
15383183031
15383188829
15383195115
15383200853
15383206529
15383212327
15383220323
15383226854
15383230821
15383237657
15383243516
15383248521
15383254442
15383261033
15383267686
15383272325
15383280015
15383284776
15383291551
15383300523
15383306260
15383314561
15383322068
15383327134
15383333299
15383338792
15383345017
15383350022
15383355271
15383362290
15383366929
15383373887
15383379929
15383385667
15383391648
15383397019
15383404099
15383409592
15383414536
15383421067
15383426682
15383431992
15383437302
15383442673
15383449570
15383454941
15383462083
15383467393
15383473191
15383479844
15383484604
15383491135
15383499009
15383503586
15383509934
15383515854
15383521103
15383525376
15383532883
15383538682
15383546128
15383551133
15383558274
15383563096
15383570298
15383575119
15383580735
15383588181
15383593552
15383600022
15383605088
15383611557
15383616623
15383622971
15383630295
15383636093
15383640610
15383647995
15383652268
15383659287
15383663620
15383669968
15383677780
15383683273
15383689011
15383694321
15383698776
15383705368
15383710190
15383715500
15383722702
15383727768
15383732895
15383739548
15383745285
15383750107
15383756332
15383761398
15383766952
15383773483
15383779465
15383785019
15383790878
15383796554
15383801864
15383807785
15383813461
15383819504
15383824997
15383830612
15383835922
15383841781
15383847213
15383853866
15383859543
15383865280
15383870773
15383876388
15383883102
15383887802
15383893478
15383900131
15383906906
15383911788
15383918075
15383922897
15383929000
15383933822
15383940963
15383946762
15383952682
15383958053
15383964095
15383969467
15383973678
15383980087
15383987655
15383994735
15383999557
15384005050
15384011520
15384017013
15384023116
15384028793
15384034469
15384041549
15384046249
15384053023
15384058150
15384064193
15384068954
15384075301
15384080245
15384087142
15384091903
15384098006
15384103072
15384109664
15384115096
15384122970
15384128646
15384134749
15384140365
15384144942
15384151473
15384155684
15384162459
15384168807
15384173934
15384179549
15384186019
15384191695
15384196517
15384202559
15384209029
15384215621
15384221602
15384226912
15384232466
15384239119
15384244734
15384250105
15384256880
15384262801
15384268965
15384274825
15384280989
15384286788
15384292220
15384297713
15384304427
15384309920
15384316389
15384322920
15384328352
15384335066
15384340498
15384346175
15384354048
15384359968
15384365340
15384371199
15384376448
15384382063
15384387373
15384393538
15384399641
15384405623
15384411055
15384416975
15384422285
15384428084
15384433333
15384440657
15384446272
15384453169
15384458540
15384463545
15384470808
15384476118
15384483503
15384488813
15384495466
15384501020
15384507734
15384513227
15384519636
15384524641
15384531355
15384538496
15384543440
15384550215
15384555830
15384561262
15384566938
15384572370
15384579084
15384584760
15384590315
15384595686
15384601301
15384608259
15384612959
15384620405
15384625593
15384632246
15384637067
15384643720
15384650800
15384655500
15384662824
15384670270
15384675947
15384681928
15384687238
15384692914
15384698285
15384704084
15384709699
15384716718
15384721906
15384728071
15384733014
15384739545
15384746381
15384752485
15384760297
15384766034
15384772260
15384777509
15384783185
15384788495
15384798688
15384807721
15384814435
15384819257
15384826947
15384832074
15384838788
15384843549
15384851850
15384859784
15384864667
15384872235
15384877728
15384885175
15384890424
15384896649
15384903668
15384909161
15384914716
15384921246
15384926007
15384932843
15384939801
15384946271
15384951886
15384958050
15384964276
15384970563
15384976422
15384983258
15384988934
15384996869
15385002423
15385008526
15385014996
15385021832
15385026959
15385033185
15385039776
15385045697
15385052411
15385058392
15385063824
15385071331
15385075787
15385083233
15385088604
15385095928
15385101116
15385107952
15385114300
15385121258
15385127423
15385134381
15385141400
15385147930
15385154034
15385159161
15385165020
15385172283
15385180035
15385184551
15385191570
15385197430
15385204205
15385211224
15385216412
15385224163
15385230144
15385235882
15385242229
15385248394
15385254314
15385261761
15385267315
15385273846
15385279522
15385285991
15385291118
15385297832
15385303753
15385310650
15385318157
15385323040
15385330425
15385336406
15385342876
15385347759
15385353252
15385360820
15385367717
15385373394
15385379924
15385385234
15385391704
15385397319
15385404094
15385410808
15385417888
15385422161
15385428325
15385434307
15385441814
15385449443
15385454875
15385460918
15385467143
15385472087
15385478496
15385484782
15385491802
15385497478
15385503032
15385510478
15385516093
15385522380
15385527019
15385534404
15385540568
15385547282
15385552775
15385558879
15385564799
15385570415
15385577556
15385583537
15385590617
15385596965
15385602641
15385608195
15385614055
15385620158
15385625834
15385633159
15385638163
15385644877
15385650187
15385657023
15385663554
15385670146
15385675944
15385683329
15385688945
15385695170
15385700297
15385705241
15385713236
15385720072
15385724650
15385731364
15385738688
15385744670
15385750590
15385756266
15385761942
15385769511
15385775126
15385781474
15385786112
15385792826
15385799906
15385807108
15385813090
15385818583
15385825419
15385830668
15385836954
15385841959
15385849039
15385856425
15385863077
15385868815
15385874857
15385880900
15385885905
15385893168
15385900919
15385905558
15385912211
15385918253
15385924112
15385930704
15385936869
15385944620
15385949747
15385955973
15385962809
15385968668
15385973185
15385980753
15385986856
15385992655
15385998148
15386005228
15386011576
15386017801
15386023050
15386030069
15386035379
15386041361
15386047403
15386053690
15386059183
15386065897
15386073221
15386078287
15386085062
15386092081
15386096353
15386103922
15386109659
15386115884
15386123392
15386128519
15386134744
15386141031
15386145547
15386152444
15386158731
15386166727
15386172464
15386178689
15386184305
15386189371
15386196145
15386201516
15386209085
15386215371
15386219827
15386228616
15386234475
15386240335
15386246072
15386253274
15386259378
15386266092
15386270913
15386277078
15386283548
15386290261
15386296426
15386302713
15386309671
15386314187
15386321694
15386326882
15386333169
15386338296
15386345742
15386353433
15386358987
15386364419
15386370217
15386377847
15386382302
15386389565
15386395852
15386402505
15386409035
15386414712
15386420083
15386425942
15386433633
15386438576
15386445656
15386451394
15386457986
15386464211
15386468789
15386474892
15386482094
15386489297
15386494301
15386501198
15386508095
15386513161
15386519509
15386527382
15386533364
15386540017
15386545510
15386550148
15386557045
15386563393
15386569374
15386576760
15386581093
15386589211
15386595192
15386600685
15386607399
15386612953
15386620400
15386625649
15386631752
15386638527
15386644386
15386649208
15386657387
15386664040
15386669960
15386677162
15386682167
15386688515
15386695229
15386700233
15386706642
15386714088
15386720009
15386726967
15386731544
15386738563
15386744972
15386752296
15386757484
15386764198
15386770180
15386777931
15386783851
15386789772
15386795387
15386801857
15386807289
15386812904
15386819313
15386824745
15386831764
15386837684
15386844703
15386851478
15386856483
15386863502
15386868263
15386875465
15386880287
15386886879
15386894081
15386898780
15386905677
15386911537
15386917518
15386924049
15386931678
15386936927
15386943885
15386950111
15386957191
15386962379
15386968238
15386973487
15386980506
15386987708
15386993446
15386998512
15387005164
15387012000
15387016029
15387022620
15387029822
15387035255
15387042091
15387048133
15387053016
15387058814
15387066016
15387071631
15387078284
15387085669
15387092078
15387097388
15387103064
15387108924
15387116614
15387121802
15387127601
15387134436
15387141578
15387147315
15387152747
15387159095
15387166175
15387171973
15387177405
15387183142
15387189429
15387194373
15387201453
15387208167
15387215186
15387221289
15387226111
15387232825
15387238013
15387245459
15387251196
15387257788
15387264563
15387268897
15387275244
15387281714
15387287329
15387293616
15387300696
15387307227
15387312292
15387318030
15387324499
15387330908
15387337683
15387343420
15387348059
15387357092
15387362280
15387369299
15387374670
15387382178
15387388342
15387394507
15387400610
15387406530
15387411841
15387418432
15387424292
15387431799
15387436926
15387442968
15387449560
15387456274
15387460791
15387468725
15387475195
15387480932
15387486669
15387493688
15387499792
15387505163
15387511389
15387516882
15387524023
15387531042
15387536718
15387542516
15387548559
15387553625
15387560827
15387567724
15387574499
15387579504
15387585851
15387591650
15387597875
15387603796
15387610937
15387616491
15387621801
15387628942
15387635778
15387640783
15387646398
15387653844
15387661474
15387667516
15387673559
15387678930
15387685766
15387690587
15387698461
15387703283
15387709630
15387717138
15387721471
15387728917
15387733312
15387739660
15387746495
15387753942
15387758641
15387765660
15387772252
15387777196
15387782567
15387789952
15387797338
15387804235
15387809728
15387814733
15387821996
15387826879
15387833837
15387840550
15387846532
15387852757
15387858861
15387864964
15387870641
15387876561
15387884557
15387891087
15387895787
15387902440
15387907933
15387914220
15387921056
15387927647
15387934910
15387940465
15387945653
15387951817
15387958104
15387964635
15387969517
15387977879
15387983800
15387989354
15387995091
15388002110
15388006993
15388014439
15388021580
15388026585
15388033116
15388038914
15388045933
15388051243
15388057103
15388065403
15388070591
15388076634
15388083103
15388090184
15388094578
15388101170
15388108921
15388114598
15388121617
15388126499
15388132664
15388139683
15388145481
15388150181
15388158299
15388164280
15388169773
15388176182
15388181797
15388186985
15388194859
15388201084
15388208469
15388215366
15388220066
15388229038
15388235935
15388241489
15388249607
15388254429
15388261631
15388268040
15388274021
15388279941
15388287754
15388294346
15388299595
15388304905
15388311985
15388317417
15388324070
15388329380
15388335849
15388341892
15388348606
15388354892
15388361301
15388367588
15388372104
15388380344
15388384861
15388391635
15388398654
15388404636
15388410800
15388416538
15388422031
15388429477
15388436069
15388441196
15388445773
15388452548
15388458652
15388463779
15388468845
15388475559
15388481662
15388487827
15388493015
15388499057
15388504550
15388510837
15388516391
15388524387
15388530124
15388536227
15388541659
15388547702
15388553012
15388558871
15388564303
15388571200
15388576816
15388581820
15388589084
15388593783
15388600375
15388606540
15388612094
15388619906
15388626010
15388631381
15388636996
15388642367
15388647006
15388653659
15388659518
15388665072
15388670932
15388676242
15388682162
15388687533
15388693026
15388698153
15388704318
15388711459
15388716525
15388722201
15388728304
15388735629
15388740389
15388747836
15388753268
15388759860
15388764742
15388771029
15388776217
15388782504
15388788302
15388792818
15388800814
15388805392
15388811556
15388815951
15388823641
15388829256
15388834566
15388840182
15388847628
15388852206
15388859102
15388863802
15388870943
15388877169
15388882479
15388888460
15388895174
15388900606
15388906832
15388911898
15388917940
15388922640
15388929842
15388934298
15388940950
15388947176
15388953218
15388959200
15388965731
15388971468
15388977816
15388983553
15388989412
15388994844
15389000704
15389007356
15389012361
15389020967
15389026705
15389032808
15389042268
15389047701
15389054903
15389059541
15389065584
15389071870
15389079866
15389085542
15389092256
15389098116
15389104463
15389111055
15389116975
15389122957
15389129732
15389135225
15389142061
15389147798
15389152803
15389159883
15389165559
15389172639
15389179841
15389184968
15389191011
15389197786
15389203645
15389208711
15389214814
15389221772
15389227082
15389232576
15389240022
15389245820
15389252961
15389258882
15389263887
15389271211
15389277314
15389283357
15389288362
15389295747
15389302033
15389307466
15389313325
15389320405
15389326447
15389331330
15389339509
15389346467
15389352448
15389358369
15389365388
15389370637
15389376984
15389382722
15389389497
15389395295
15389401398
15389408051
15389412995
15389419892
15389426789
15389431977
15389438935
15389445771
15389450776
15389456025
15389462556
15389469636
15389474824
15389483368
15389489533
15389495331
15389500275
15389507050
15389513398
15389518586
15389525238
15389529999
15389536835
15389542694
15389549775
15389556183
15389562165
15389568512
15389573578
15389580109
15389586762
15389591522
15389597992
15389603852
15389611481
15389617279
15389622894
15389629791
15389634186
15389641205
15389647308
15389655060
15389662018
15389667816
15389673187
15389679718
15389685211
15389691986
15389697601
15389703461
15389710236
15389715851
15389722259
15389729156
15389734039
15389740204
15389747101
15389752838
15389758758
15389765594
15389771332
15389777679
15389782745
15389789459
15389797088
15389802459
15389808502
15389814361
15389821746
15389826568
15389833770
15389839813
15389846405
15389852935
15389857330
15389865325
15389871734
15389877349
15389883514
15389890350
15389896148
15389902679
15389908294
15389912383
15389918853
15389926971
15389933013
15389937835
15389944549
15389949249
15389956451
15389962188
15389969146
15389975311
15389981719
15389988067
15389993804
15390000701
15390006255
15390013396
15390018523
15390025054
15390031280
15390037627
15390043242
15390049773
15390055266
15390062591
15390068633
15390075652
15390080535
15390085784
15390092620
15390099212
15390105925
15390111907
15390118682
15390124297
15390130706
15390135772
15390141570
15390148467
15390154143
15390160735
15390167327
15390173918
15390179839
15390185820
15390191497
15390198699
15390205290
15390210417
15390216887
15390223296
15390227995
15390235381
15390242339
15390247893
15390254363
15390259978
15390266509
15390271574
15390277312
15390284514
15390292204
15390297514
15390304594
15390309172
15390316435
15390322600
15390329802
15390336577
15390344023
15390350188
15390355803
15390363310
15390368681
15390375700
15390382719
15390389677
15390395659
15390402372
15390408293
15390414396
15390420927
15390427702
15390435026
15390441130
15390446623
15390451689
15390458952
15390465605
15390471220
15390476530
15390483732
15390489225
15390495817
15390501249
15390507597
15390512846
15390519315
15390526701
15390531584
15390536894
15390542753
15390548185
15390554289
15390560087
15390566312
15390572294
15390579191
15390584501
15390589811
15390596952
15390602750
15390609830
15390615018
15390621732
15390627836
15390631864
15390638883
15390643156
15390649991
15390656339
15390662259
15390668363
15390674161
15390681058
15390686490
15390691434
15390698636
15390705961
15390711454
15390715970
15390723294
15390729764
15390734403
15390739347
15390745755
15390752530
15390757291
15390763089
15390769742
15390774869
15390781705
15390788968
15390796781
15390802457
15390807096
15390813687
15390819241
15390824552
15390830289
15390835904
15390842618
15390847623
15390854459
15390859403
15390864835
15390871121
15390876004
15390882413
15390887906
15390894803
15390899380
15390906216
15390912503
15390917447
15390923489
15390929776
15390935330
15390941311
15390946622
15390952542
15390957852
15390963711
15390969143
15390975308
15390982571
15390987454
15390994656
15390999295
15391006436
15391011136
15391018643
15391024319
15391030911
15391035855
15391042569
15391047818
15391054531
15391061856
15391066860
15391074490
15391079800
15391085171
15391090969
15391096401
15391102505
15391107998
15391114895
15391122036
15391126186
15391132900
15391137600
15391144192
15391150112
15391155850
15391162807
15391169277
15391173428
15391179409
15391186062
15391190273
15391196926
15391202297
15391210720
15391216946
15391222317
15391228603
15391233791
15391239467
15391244900
15391252834
15391257900
15391263820
15391268764
15391274929
15391279873
15391285244
15391292202
15391298000
15391304897
15391309719
15391316433
15391321987
15391329433
15391335964
15391341030
15391348537
15391353786
15391360500
15391366176
15391371547
15391377162
15391382717
15391388576
15391394008
15391399074
15391404384
15391410304
15391416957
15391421230
15391428493
15391433681
15391440395
15391446376
15391451015
15391457118
15391463344
15391468532
15391475124
15391479884
15391486598
15391493129
15391499599
15391505458
15391510097
15391516688
15391523341
15391529933
15391535548
15391540797
15391545375
15391551906
15391556788
15391562465
15391569606
15391575343
15391581813
15391587611
15391594020
15391600062
15391604884
15391612391
15391619105
15391626307
15391631007
15391637965
15391643641
15391648524
15391653895
15391661586
15391666835
15391673243
15391678553
15391684840
15391690089
15391696437
15391701563
15391708033
15391714747
15391719325
15391726100
15391732630
15391738429
15391745203
15391751063
15391757777
15391762904
15391768336
15391775172
15391780604
15391785609
15391791407
15391797999
15391803004
15391809840
15391814722
15391821253
15391826502
15391833033
15391839014
15391845911
15391852015
15391858301
15391863611
15391870386
15391876185
15391882959
15391888758
15391894007
15391901026
15391906519
15391911524
15391917933
15391922876
15391929041
15391934229
15391941797
15391948633
15391953638
15391959986
15391965784
15391971277
15391976587
15391981714
15391988977
15391995020
15392000269
15392005762
15392011011
15392016809
15392022119
15392028711
15392036157
15392040796
15392047998
15392052881
15392059106
15392065820
15392074854
15392084741
15392092554
15392098962
15392106287
15392113061
15392119531
15392128503
15392135889
15392144983
15392152551
15392161767
15392172998
15392183374
15392193139
15392203393
15392210595
15392221643
15392229699
15392240564
15392246911
15392254174
15392263146
15392271691
15392277185
15392285424
15392294030
15392299890
15392307763
15392316369
15392324365
15392332421
15392340356
15392347375
15392356957
15392362389
15392371362
15392379784
15392385400
15392393395
15392401513
15392409447
15392416894
15392426110
15392433861
15392441613
15392448083
15392457055
15392465294
15392471398
15392480248
15392488732
15392496300
15392502282
15392511925
15392519310
15392527001
15392534874
15392542565
15392550743
15392560265
15392567345
15392573998
15392580162
15392589318
15392595665
15392603233
15392610497
15392618736
15392625694
15392632652
15392640831
15392646812
15392656578
15392665672
15392677818
15392686302
15392696007
15392706077
15392713035
15392723289
15392734337
15392742393
15392752037
15392762291
15392770042
15392779381
15392788231
15392794090
15392805687
15392813804
15392821251
15392831199
15392839256
15392847557
15392853233
15392860374
15392866905
15392872642
15392876975
15392883445
15392887718
15392894737
15392901634
15392909019
15392912071
15392920982
15392926048
15392931846
15392938194
15392945640
15392951804
15392958579
15392963889
15392970359
15392974143
15392980735
15392986472
15392993857
15392999656
15393005942
15393011375
15393017539
15393023032
15393027427
15393034202
15393040610
15393046287
15393052451
15393058799
15393064536
15393070029
15393075644
15393081199
15393087180
15393092856
15393099143
15393103965
15393110129
15393115134
15393121665
15393126975
15393132651
15393139365
15393145468
15393151084
15393156516
15393162009
15393167746
15393172873
15393180136
15393184775
15393191794
15393196066
15393203024
15393208640
15393214072
15393220847
15393226462
15393231833
15393239462
15393243918
15393250754
15393255881
15393261130
15393267661
15393274802
15393281393
15393286764
15393293295
15393298849
15393304526
15393310080
15393318259
15393323569
15393328940
15393335409
15393340841
15393345846
15393351156
15393357931
15393365255
15393370749
15393375998
15393380941
15393388388
15393393087
15393400961
15393405661
15393412558
15393417746
15393424398
15393430014
15393436300
15393440939
15393447470
15393454306
15393458883
15393465597
15393469930
15393476766
15393481161
15393487509
15393494894
15393500509
15393506246
15393511923
15393517172
15393524557
15393530538
15393537496
15393544271
15393549154
15393556112
15393562399
15393568258
15393572774
15393579916
15393588094
15393593709
15393598836
15393604330
15393610433
15393615804
15393621847
15393627584
15393631490
15393640584
15393646139
15393651204
15393658101
15393662984
15393667623
15393674764
15393681539
15393688192
15393692525
15393698751
15393704000
15393710653
15393717122
15393725118
15393730855
15393736287
15393741780
15393748983
15393754354
15393760030
15393765584
15393770711
15393778218
15393783895
15393790181
15393794576
15393801290
15393805806
15393813130
15393818684
15393825398
15393830708
15393837056
15393842610
15393846700
15393853352
15393860127
15393865804
15393870015
15393876668
15393883198
15393888753
15393893452
15393900349
15393906575
15393912312
15393917378
15393924031
15393929158
15393934407
15393939656
15393945210
15393952168
15393957722
15393964558
15393969868
15393976033
15393982319
15393986836
15393994221
15394000325
15394007038
15394013081
15394019368
15394025288
15394029988
15394035603
15394042927
15394050007
15394055744
15394061299
15394067097
15394072590
15394078572
15394084126
15394090656
15394096516
15394104084
15394110615
15394115742
15394122700
15394127827
15394133381
15394140461
15394146687
15394152119
15394156330
15394162495
15394168293
15394174885
15394180134
15394187519
15394192829
15394198139
15394203937
15394209370
15394215229
15394221149
15394227863
15394234882
15394240925
15394246662
15394253010
15394258869
15394266010
15394272114
15394277790
15394285480
15394290607
15394298481
15394305561
15394310749
15394316181
15394324787
15394330768
15394335102
15394341144
15394345539
15394351947
15394356342
15394362812
15394367511
15394375690
15394380695
15394386493
15394391498
15394397113
15394403766
15394409564
15394416156
15394420673
15394427142
15394433368
15394439899
15394445636
15394450519
15394456378
15394461383
15394468036
15394472858
15394478229
15394484393
15394489520
15394494647
15394501788
15394507464
15394514972
15394519366
15394527362
15394533710
15394539264
15394544513
15394551166
15394556170
15394562640
15394568316
15394573016
15394578692
15394585833
15394590594
15394599017
15394605487
15394612201
15394618731
15394625506
15394631976
15394638140
15394643573
15394647113
15394653887
15394659686
15394665118
15394669879
15394675311
15394681170
15394686724
15394692217
15394697955
15394703509
15394709246
15394714983
15394720660
15394726336
15394732256
15394737933
15394745745
15394751971
15394757830
15394764361
15394770037
15394776079
15394782183
15394789263
15394795122
15394801226
15394806841
15394813067
15394820208
15394825579
15394833513
15394839068
15394843523
15394849444
15394856951
15394863665
15394868853
15394876299
15394880999
15394888811
15394895525
15394901262
15394905901
15394912798
15394919573
15394925371
15394931719
15394937578
15394943315
15394948748
15394951555
15394960893
15394966326
15394972368
15394979448
15394986528
15394992143
15394996965
15395003130
15395008012
15395014177
15395019426
15395025530
15395032549
15395038835
15395045000
15395051103
15395055620
15395062944
15395069963
15395075883
15395080400
15395087114
15395093828
15395099565
15395104021
15395111101
15395118669
15395124345
15395128923
15395135637
15395140581
15395147416
15395151872
15395159074
15395165666
15395172319
15395176835
15395183244
15395188737
15395195024
15395199479
15395206865
15395213639
15395220170
15395225480
15395229753
15395235978
15395240190
15395248429
15395255021
15395260881
15395266679
15395272050
15395277482
15395284074
15395289262
15395296220
15395301896
15395308915
15395314164
15395320878
15395326493
15395333207
15395337846
15395344865
15395352189
15395358170
15395363663
15395368058
15395374345
15395381119
15395386918
15395393632
15395399491
15395404618
15395411393
15395415787
15395422562
