14817924102
14817929961
14817935332
14817939605
14817946257
14817952422
14817956267
14817963042
14817968169
14817973357
14817978667
14817984831
14817989714
14817996672
14818002898
14818009001
14818015166
14818022307
14818028472
14818034392
14818041472
14818048491
14818053435
14818061308
14818067595
14818074736
14818078886
14818087187
14818095244
14818100493
14818107207
14818115202
14818121977
14818127592
14818133879
14818138151
14818146574
14818152861
14818159331
14818167326
14818173674
14818181181
14818187101
14818193632
14818198576
14818207121
14818213957
14818222380
14818228422
14818233976
14818242643
14818249845
14818256071
14818264555
14818270841
14818279142
14818286344
14818293424
14818300993
14818308073
14818316923
14818322965
14818330595
14818337675
14818344999
14818353910
14818359525
14818365385
14818374052
14818380766
14818388212
14818396085
14818401823
14818410429
14818417875
14818425748
14818433378
14818440824
14818447782
14818453275
14818460660
14818469755
14818477933
14818482694
14818490506
14818497831
14818503568
14818512052
14818519315
14818527372
14818533902
14818541104
14818547269
14818555753
14818563626
14818570645
14818578275
14818586331
14818593656
14818600003
14818606717
14818612637
14818619657
14818627713
14818634427
14818642117
14818647916
14818655606
14818663846
14818671353
14818680325
14818688565
14818696378
14818703274
14818711819
14818718655
14818724881
14818733060
14818740567
14818750638
14818757962
14818765957
14818774014
14818782559
14818790799
14818797696
14818805447
14818813260
14818818997
14818829312
14818837307
14818845791
14818852749
14818861843
14818869107
14818876919
14818884976
14818894863
14818902126
14818909634
14818916042
14818925747
14818934902
14818941799
14818950466
14818958523
14818966763
14818974636
14818980556
14818990871
14818995937
14819006863
14819014492
14819023586
14819028347
14819038357
14819046352
14819054714
14819059414
14819070522
14819078457
14819084743
14819091884
14819100917
14819108120
14819118190
14819125393
14819133754
14819141567
14819150173
14819159328
14819167751
14819175258
14819184902
14819191982
14819201320
14819207912
14819217250
14819226466
14819233302
14819241786
14819250514
14819257289
14819267421
14819276637
14819283107
14819291652
14819300380
14819308436
14819314601
14819322719
14819333766
14819340175
14819347499
14819356105
14819363551
14819371242
14819376735
14819386744
14819395106
14819403346
14819412013
14819417994
14819425807
14819433985
14819438563
14819449183
14819459864
14819468348
14819476527
14819482936
14819491419
14819500086
14819508143
14819514063
14819521632
14819531458
14819540308
14819547816
14819555262
14819561182
14819567835
14819577540
14819582850
14819593653
14819603175
14819611048
14819615687
14819624903
14819631678
14819641688
14819647059
14819659388
14819666590
14819674097
14819678736
14819687891
14819695398
14819703821
14819708948
14819720484
14819725306
14819735254
14819743433
14819753321
14819758203
14819767664
14819775110
14819786768
14819796106
14819803003
14819810449
14819819666
14819826807
14819834802
14819841638
14819853906
14819861719
14819870081
14819876550
14819885706
14819891992
14819902002
14819910730
14819920862
14819927881
14819936181
14819944848
14819950647
14819960595
14819965967
14819978051
14819984094
14819996240
14820006799
14820015466
14820024072
14820032922
14820039758
14820048913
14820058068
14820064599
14820072595
14820079248
14820086938
14820094506
14820102441
14820108788
14820117028
14820125024
14820131616
14820139611
14820146630
14820155358
14820163598
14820172082
14820180810
14820189294
14820196374
14820205407
14820213586
14820221032
14820229027
14820238122
14820246605
14820253197
14820261742
14820269860
14820276268
14820285302
14820293175
14820302452
14820309777
14820318749
14820324974
14820331871
14820340844
14820349022
14820355858
14820360375
14820372032
14820381127
14820388268
14820393212
14820405480
14820413780
14820422020
14820429100
14820438072
14820445091
14820451988
14820461388
14820468407
14820477928
14820484886
14820494652
14820502708
14820509666
14820518455
14820525352
14820531639
14820540367
14820547691
14820555076
14820561912
14820569420
14820575523
14820583641
14820589866
14820596641
14820601890
14820606590
14820613487
14820620262
14820626060
14820632835
14820639244
14820646080
14820651695
14820658226
14820665367
14820671043
14820678855
14820684837
14820691673
14820698081
14820705100
14820711631
14820718528
14820725974
14820731956
14820738364
14820741660
14820750205
14820756126
14820760886
14820767356
14820771751
14820778709
14820785483
14820790794
14820798240
14820804893
14820810447
14820817039
14820820884
14820828452
14820834128
14820840537
14820846702
14820851096
14820857871
14820863669
14820868308
14820874350
14820879294
14820887046
14820892783
14820900412
14820906394
14820912619
14820917563
14820925009
14820930991
14820935508
14820942404
14820947409
14820954306
14820958213
14820966513
14820973166
14820977683
14820984030
14820989157
14820995932
14821002341
14821007834
14821012656
14821019003
14821022665
14821031577
14821037436
14821041892
14821048300
14821052817
14821058859
14821063803
14821072043
14821076987
14821082846
14821087668
14821094015
14821097555
14821105429
14821112021
14821117575
14821123129
14821128012
14821135275
14821140341
14821147360
14821152975
14821159384
14821164755
14821170920
14821175192
14821182882
14821188986
14821195578
14821202841
14821207724
14821214682
14821219686
14821224630
14821231527
14821236532
14821243246
14821249472
14821253866
14821259359
14821264913
14821271078
14821277365
14821283651
14821289633
14821295492
14821301412
14821307394
14821313314
14821319235
14821325704
14821331991
14821337606
14821343526
14821347616
14821355428
14821361593
14821366048
14821372091
14821378805
14821385091
14821390462
14821396993
14821401937
14821407613
14821412557
14821418783
14821422445
14821428731
14821434041
14821440328
14821448202
14821453328
14821459249
14821466390
14821473104
14821477315
14821486593
14821491842
14821497640
14821504720
14821510762
14821517415
14821523152
14821529256
14821535665
14821541402
14821548116
14821553060
14821558492
14821563497
14821570210
14821574117
14821583211
14821586690
14821595357
14821600667
14821606648
14821611775
14821616475
14821623799
14821628926
14821635823
14821639424
14821646138
14821652669
14821658894
14821664876
14821669392
14821676656
14821681782
14821689595
14821693989
14821700520
14821705098
14821711262
14821715413
14821724690
14821730366
14821736836
14821742634
14821746480
14821755513
14821761555
14821767048
14821773640
14821779927
14821784626
14821789509
14821796101
14821802876
14821807942
14821813923
14821819538
14821825337
14821829975
14821836811
14821843586
14821849201
14821855122
14821861103
14821868061
14821873188
14821880818
14821886799
14821893269
14821899799
14821904316
14821910969
14821915363
14821920918
14821928242
14821934284
14821939411
14821945698
14821950642
14821956989
14821962177
14821969257
14821974811
14821980976
14821988789
14821995685
14822002033
14822007587
14822014362
14822021198
14822025287
14822035846
14822043415
14822049518
14822055988
14822061908
14822069599
14822074970
14822080707
14822086261
14822090961
14822098774
14822103778
14822111286
14822118244
14822124408
14822130817
14822136249
14822142658
14822148578
14822153827
14822159625
14822166217
14822171405
14822177692
14822183307
14822188373
14822195087
14822200214
14822206683
14822211871
14822217853
14822224201
14822229511
14822235797
14822241840
14822246967
14822253436
14822258441
14822265826
14822271197
14822277301
14822282489
14822289264
14822294208
14822301044
14822306109
14822313495
14822317096
14822324054
14822329059
14822335406
14822340533
14822349872
14822358661
14822367144
14822376239
14822384051
14822393451
14822402728
14822411395
14822420489
14822429888
14822439837
14822450213
14822459185
14822469317
14822478839
14822488909
14822497942
14822506243
14822513506
14822521502
14822529314
14822538409
14822545367
14822552996
14822559893
14822567950
14822575030
14822583697
14822588946
14822599505
14822606646
14822615374
14822623064
14822631243
14822638506
14822646441
14822654619
14822662005
14822670366
14822676287
14822684282
14822691790
14822700029
14822708757
14822716631
14822723101
14822730547
14822737078
14822746477
14822755083
14822762712
14822771074
14822779070
14822785661
14822793169
14822801592
14822810198
14822818010
14822824358
14822833818
14822840471
14822849748
14822855913
14822864030
14822870500
14822876237
14822882219
14822891069
14822897539
14822906328
14822914750
14822922746
14822931962
14822942033
14822953019
14822959733
14822970109
14822978776
14822989518
14822994828
14823007829
14823017839
14823024675
14823034501
14823042985
14823050248
14823058793
14823067826
14823076676
14823086564
14823095963
14823103959
14823109513
14823115861
14823120927
14823127335
14823134049
14823140397
14823145646
14823152299
14823157304
14823164262
14823169205
14823176408
14823183060
14823188981
14823192643
14823201005
14823204667
14823211869
14823216752
14823223099
14823228165
14823235367
14823241471
14823247391
14823250992
14823259232
14823265519
14823271683
14823278153
14823284562
14823290787
14823297135
14823302872
14823309037
14823314957
14823320816
14823326004
14823331986
14823338089
14823344010
14823349747
14823354264
14823361038
14823367325
14823374771
14823380875
14823387283
14823392227
14823399368
14823405716
14823411820
14823418045
14823423599
14823429703
14823435135
14823441666
14823448318
14823453323
14823459793
14823465591
14823470596
14823476272
14823482010
14823487686
14823493545
14823498001
14823503555
14823509598
14823515152
14823520828
14823526016
14823532120
14823537979
14823544449
14823550491
14823557754
14823563980
14823569046
14823574905
14823579788
14823585281
14823589737
14823595474
14823599929
14823608047
14823612869
14823618423
14823623306
14823628616
14823634475
14823639297
14823643997
14823649795
14823656448
14823661697
14823666152
14823672805
14823677505
14823683059
14823688186
14823695632
14823701431
14823707778
14823712783
14823718093
14823723098
14823729873
14823734878
14823740615
14823745437
14823752456
14823758132
14823764236
14823769912
14823776687
14823782546
14823789565
14823795852
14823801223
14823806289
14823813674
14823818862
14823824294
14823829543
14823837172
14823843520
14823849685
14823855605
14823859877
14823864577
14823871108
14823874770
14823881301
14823886550
14823891860
14823897292
14823902968
14823906569
14823914077
14823918105
14823925978
14823930312
14823936049
14823941664
14823947890
14823954726
14823960036
14823967238
14823972304
14823979628
14823985549
14823991469
14823998549
14824005385
14824010817
14824017897
14824023085
14824028639
14824034132
14824041273
14824046278
14824052748
14824058974
14824064772
14824071486
14824075880
14824082960
14824087904
14824095534
14824101820
14824107741
14824112440
14824118056
14824124525
14824130629
14824137282
14824143141
14824148756
14824154127
14824160475
14824166517
14824172926
14824178724
14824184278
14824192579
14824198988
14824204664
14824209120
14824216932
14824223280
14824228346
14824236341
14824243116
14824247877
14824255812
14824260084
14824269361
14824275282
14824280714
14824287672
14824293958
14824298963
14824306898
14824313856
14824319715
14824326002
14824332838
14824339185
14824345777
14824352918
14824358961
14824365064
14824373365
14824379285
14824385084
14824390272
14824398145
14824404004
14824409376
14824416517
14824421155
14824427808
14824434766
14824440992
14824447583
14824454664
14824460767
14824467176
14824472791
14824479749
14824485303
14824492200
14824498182
14824504102
14824510083
14824516248
14824520642
14824528516
14824535169
14824540845
14824547498
14824553235
14824559339
14824565747
14824572888
14824578992
14824585034
14824589673
14824596936
14824603528
14824607739
14824615430
14824620007
14824628613
14824634778
14824639661
14824646130
14824653088
14824659314
14824666150
14824672558
14824678113
14824685071
14824692761
14824709241
14824715710
14824720654
14824727856
14824734082
14824739697
14824745739
14824752514
14824758435
14824764721
14824770520
14824775830
14824783093
14824788708
14824795056
14824801281
14824806835
14824812817
14824818432
14824824780
14824828930
14824837963
14824842907
14824848950
14824853771
14824861340
14824867504
14824873303
14824879528
14824885388
14824891552
14824897350
14824902538
14824908520
14824913830
14824920544
14824928234
14824931835
14824938793
14824945324
14824950756
14824954723
14824962475
14824969433
14824975353
14824981945
14824989391
14824994823
14825000377
14825007274
14825012951
14825020397
14825025829
14825031627
14825036998
14825042858
14825047924
14825054271
14825061962
14825067333
14825072948
14825078014
14825083385
14825089183
14825094799
14825101818
14825108348
14825113842
14825119945
14825125682
14825130382
14825137340
14825142345
14825148754
14825154491
14825161022
14825166881
14825172435
14825178233
14825183910
14825191051
14825196178
14825202098
14825208019
14825214000
14825219005
14825225108
14825230052
14825237437
14825243602
14825249156
14825255138
14825260753
14825266673
14825270701
14825279124
14825284190
14825291270
14825295787
14825302318
14825305552
14825312633
14825319835
14825325511
14825330455
14825335948
14825342723
14825347056
14825353038
14825358470
14825367381
14825372447
14825378978
14825384105
14825389231
14825393748
14825400523
14825404307
14825413035
14825419322
14825423655
14825430491
14825436473
14825442454
14825446604
14825455088
14825460154
14825465769
14825470347
14825477000
14825481577
14825488230
14825495005
14825500864
14825507090
14825511363
14825518748
14825523020
14825529673
14825535777
14825541697
14825546702
14825553538
14825557993
14825565012
14825570627
14825576243
14825584177
14825589365
14825595041
14825600962
14825607187
14825612009
14825618723
14825622385
14825630808
14825637217
14825642832
14825648508
14825654001
14825659617
14825663889
14825671274
14825677805
14825684397
14825689218
14825695688
14825701120
14825706308
14825711313
14825719431
14825725290
14825730783
14825736948
14825741037
14825747690
14825754099
14825759958
14825766855
14825772104
14825777231
14825783334
14825788706
14825794077
14825801584
14825807321
14825812875
14825818613
14825824228
14825830148
14825835458
14825840524
14825848337
14825853525
14825860116
14825863412
14825872385
14825877634
14825883310
14825891183
14825895578
14825902658
14825907358
14825914316
14825919015
14825925180
14825930063
14825937875
14825944162
14825949594
14825955026
14825959115
14825966012
14825972726
14825980416
14825986032
14825990853
14825995736
14826002023
14826006662
14826014596
14826021005
14826026498
14826032235
14826036264
14826043649
14826047921
14826054147
14826060678
14826067147
14826071969
14826078866
14826084664
14826089791
14826096261
14826101876
14826109017
14826114755
14826121041
14826127145
14826131783
14826137948
14826143807
14826148751
14826156686
14826162545
14826168099
14826174203
14826179879
14826185372
14826191048
14826198983
14826203499
14826210640
14826215706
14826221749
14826226326
14826232735
14826237801
14826246956
14826252327
14826257821
14826264107
14826269722
14826275277
14826281685
14826289376
14826294136
14826300484
14826305611
14826311531
14826317269
14826323006
14826329109
14826334725
14826340096
14826345467
14826351448
14826356758
14826362862
14826369270
14826376289
14826381050
14826387032
14826392403
14826397957
14826404793
14826410469
14826417610
14826422066
14826429146
14826433357
14826440681
14826444832
14826453010
14826459297
14826465889
14826471504
14826478035
14826483894
14826489570
14826495308
14826500862
14826508247
14826513435
14826520332
14826524910
14826531440
14826535957
14826542610
14826548713
14826554390
14826560981
14826566414
14826572090
14826576301
14826582832
14826589119
14826595527
14826600349
14826606697
14826611274
14826618843
14826624458
14826630012
14826636604
14826642219
14826647590
14826653449
14826659187
14826663337
14826670722
14826676093
14826683112
14826688117
14826695197
14826701240
14826706916
14826710029
14826717841
14826724372
14826730109
14826736152
14826742133
14826747810
14826752631
14826759345
14826764472
14826771979
14826777900
14826785041
14826789863
14826795356
14826800849
14826806342
14826813056
14826819343
14826825263
14826829963
14826837043
14826841559
14826847602
14826853583
14826860358
14826865912
14826871222
14826877082
14826883490
14826888861
14826894782
14826902716
14826907843
14826914374
14826919562
14826924384
14826930853
14826936347
14826942877
14826948493
14826954230
14826958319
14826965277
14826971259
14826976630
14826983222
14826989020
14826994391
14827001349
14827006659
14827012885
14827019415
14827025031
14827031256
14827037543
14827043158
14827047430
14827054449
14827060675
14827065863
14827070929
14827079474
14827083014
14827091009
14827094794
14827101568
14827107855
14827113226
14827119208
14827125677
14827131537
14827136236
14827142828
14827147345
14827153753
14827159246
14827168463
14827173346
14827178778
14827185186
14827192205
14827197637
14827204107
14827210516
14827215216
14827221197
14827225775
14827232244
14827237615
14827244695
14827251959
14827256536
14827263006
14827268987
14827275030
14827279180
14827286504
14827291753
14827299444
14827304998
14827310674
14827316412
14827322271
14827326421
14827335332
14827341497
14827347723
14827352422
14827358160
14827364263
14827368963
14827376226
14827382207
14827389104
14827395330
14827400823
14827406438
14827412114
14827419256
14827425481
14827432073
14827438909
14827444341
14827447637
14827455693
14827461309
14827466741
14827473027
14827479375
14827485662
14827490239
14827496221
14827500798
14827507268
14827512212
14827520268
14827525823
14827531194
14827536809
14827542241
14827548284
14827554021
14827560368
14827566838
14827572637
14827578618
14827583440
14827589299
14827594365
14827599553
14827608769
14827612737
14827619206
14827625310
14827630742
14827636479
14827642400
14827649113
14827655888
14827661320
14827666081
14827672429
14827677739
14827684941
14827692753
14827699101
14827704472
14827711186
14827716374
14827722294
14827728581
14827733708
14827740849
14827747258
14827752934
14827758915
14827764470
14827770390
14827776066
14827783390
14827788334
14827795231
14827800114
14827806523
14827811283
14827817936
14827824650
14827830509
14827837467
14827841557
14827848515
14827852848
14827860233
14827864933
14827871525
14827876469
14827882877
14827888065
14827894840
14827900456
14827906010
14827912418
14827918278
14827924503
14827930607
14827935734
14827941898
14827947330
14827952213
14827960087
14827966495
14827972050
14827977909
14827983585
14827989506
14827995975
14828001896
14828008426
14828013798
14828019962
14828025882
14828030521
14828037845
14828041446
14828049991
14828055545
14828061283
14828066959
14828072513
14828078495
14828083988
14828092044
14828096866
14828104068
14828119937
14828126529
14828131473
14828139957
14828146304
14828152774
14828158939
14828164066
14828173038
14828179935
14828185733
14828191653
14828197635
14828204105
14828208865
14828217349
14828222354
14828229007
14828233524
14828240604
14828244937
14828251956
14828257754
14828263370
14828270206
14828276065
14828281070
14828286868
14828293704
14828300723
14828306888
14828311526
14828318911
14828323977
14828330752
14828335391
14828342105
14828345340
14828351992
14828357302
14828364810
14828370730
14828376406
14828382083
14828386111
14828393130
14828397280
14828405642
14828410464
14828415835
14828422183
14828427004
14828431704
14828437930
14828445620
14828451541
14828456484
14828463442
14828468142
14828473818
14828479739
14828485049
14828492983
14828497866
14828504946
14828509524
14828516055
14828519350
14828526308
14828531863
14828538943
14828544985
14828550844
14828556887
14828561281
14828568056
14828574282
14828581911
14828586672
14828592348
14828596926
14828603151
14828607729
14828614199
14828620607
14828626589
14828632631
14828638369
14828644472
14828650148
14828655703
14828661806
14828668825
14828673952
14828681093
14828686403
14828691835
14828697878
14828703310
14828708498
14828714662
14828718630
14828725588
14828731447
14828736879
14828741640
14828746889
14828753175
14828759279
14828765016
14828769045
14828775209
14828780702
14828786745
14828793031
14828799318
14828804323
14828810854
14828815492
14828821718
14828826295
14828832277
14828837099
14828843751
14828849977
14828856019
14828859437
14828866945
14828871889
14828878908
14828886659
14828892335
14828896852
14828902284
14828907716
14828913331
14828919374
14828924806
14828931581
14828936097
14828942018
14828947389
14828953492
14828957826
14828965089
14828969545
14828977784
14828982301
14828988221
14828994081
14828998963
14829005006
14829010804
14829016175
14829023805
14829029420
14829034242
14829038880
14829046021
14829051087
14829055970
14829060792
14829068177
14829072389
14829078492
14829083741
14829089356
14829094849
14829100709
14829108949
14829114747
14829119385
14829124818
14829130250
14829135682
14829140992
14829146241
14829152222
14829158387
14829162659
14829168091
14829174134
14829180054
14829184388
14829190613
14829197083
14829202149
14829208680
14829213440
14829219239
14829223694
14829229676
14829236939
14829242859
14829246643
14829254151
14829259888
14829266297
14829272766
14829278809
14829286133
14829292115
14829297669
14829303711
14829308838
14829314942
14829321900
14829326538
14829334107
14829338867
14829345093
14829351013
14829355957
14829360046
14829366699
14829373047
14829379700
14829384338
14829390625
14829395325
14829401489
14829406738
14829413513
14829417419
14829424011
14829429016
14829435791
14829441589
14829447388
14829453186
14829458862
14829465454
14829470093
14829475097
14829482116
14829488342
14829494507
14829498413
14829505615
14829513061
14829518799
14829524292
14829529785
14829535644
14829541198
14829545959
14829552185
14829559387
14829564575
14829571289
14829576171
14829582702
14829587219
14829592895
14829597778
14829605834
14829609619
14829616088
14829620727
14829627258
14829632446
14829638610
14829645141
14829651061
14829656738
14829662536
14829669311
14829674865
14829682006
14829686645
14829694030
14829698974
14829704894
14829711547
14829717040
14829721740
14829726989
14829731933
14829738769
14829744506
14829751098
14829756652
14829762084
14829765990
14829772460
14829779052
14829785094
14829790221
14829795592
14829801452
14829805663
14829812377
14829816588
14829824035
14829830260
14829834960
14829841002
14829847045
14829851744
14829858519
14829863158
14829870604
14829876525
14829881957
14829885192
14829892272
14829898253
14829903563
14829910094
14829915831
14829921874
14829926207
14829932799
14829938475
14829944335
14829948607
14829956603
14829963194
14829968138
14829974486
14829980711
14829985655
14829992369
14829997740
14830005431
14830009093
14830015868
14830021361
14830027037
14830032896
14830038634
14830045531
14830051207
14830056395
14830062193
14830068724
14830073240
14830080137
14830084532
14830092833
14830097777
14830103697
14830108336
14830114500
14830120726
14830126219
14830131102
14830137327
14830143248
14830150206
14830153501
14830160459
14830163755
14830171019
14830177488
14830183836
14830191526
14830198118
14830204161
14830209349
14830217161
14830224363
14830230589
14830234373
14830243467
14830248655
14830254514
14830261289
14830267393
14830273618
14830280149
14830286253
14830292844
14830298582
14830304929
14830310850
14830315916
14830322324
14830327390
14830333982
14830338682
14830344846
14830349363
14830355833
14830359617
14830366819
14830372739
14830379758
14830385496
14830391355
14830397641
14830403562
14830409787
14830415586
14830420713
14830426145
14830432309
14830437803
14830442380
14830447812
14830455686
14830460202
14830466855
14830471494
14830478086
14830483945
14830490537
14830494931
14830501645
14830508054
14830513242
14830519834
14830525571
14830531430
14830538693
14830545773
14830551572
14830556943
14830562375
14830568539
14830574033
14830579038
14830585263
14830591672
14830598264
14830604367
14830609250
14830615475
14830621884
14830626828
14830633725
14830639706
14830644833
14830651303
14830656003
14830663022
14830667782
14830674374
14830677792
14830685666
14830689267
14830697079
14830702939
14830708798
14830715146
14830721127
14830727963
14830734005
14830739560
14830745053
14830750424
14830755917
14830759823
14830766842
14830773434
14830779354
14830784909
14830790707
14830796505
14830802548
14830810238
14830815304
14830821346
14830827450
14830834286
14830838680
14830845394
14830850033
14830855343
14830860531
14830869198
14830873653
14830880428
14830886471
14830892330
14830895565
14830903133
14830910397
14830916134
14830921749
14830927242
14830932674
14830938106
14830943294
14830948910
14830955868
14830960628
14830967037
14830973385
14830979000
14830985470
14830991085
14830995662
14831004451
14831009273
14831015194
14831019710
14831025692
14831030269
14831036495
14831041622
14831048030
14831053096
14831059444
14831064449
14831070858
14831075862
14831083431
14831090084
14831095821
14831102107
14831108882
14831114192
14831120662
14831127376
14831132686
14831140865
14831144710
14831152400
14831157771
14831165706
14831172115
14831178523
14831182735
14831190669
14831196956
14831202754
14831208980
14831214778
14831220637
14831226924
14831233028
14831239070
14831244380
14831250545
14831256648
14831262813
14831269404
14831274043
14831281733
14831286860
14831292964
14831298213
14831305598
14831311152
14831317561
14831324092
14831328730
14831335444
14831341304
14831347773
14831352595
14831358943
14831365535
14831371699
14831376826
14831383723
14831389155
14831394892
14831399958
14831406855
14831413081
14831418940
14831424006
14831429438
14831435542
14831441828
14831448542
14831455378
14831461726
14831467097
14831472651
14831479670
14831485163
14831491022
14831497370
14831503596
14831509760
14831514887
14831520930
14831524348
14831532160
14831539423
14831544062
14831551264
14831557795
14831562922
14831568110
14831575678
14831582087
14831588373
14831592219
14831600214
14831606134
14831612055
14831618097
14831623713
14831631342
14831636103
14831643427
14831650324
14831656610
14831662043
14831668695
14831674555
14831682367
14831687982
14831695124
14831700067
14831706171
14831711237
14831717523
14831722650
14831730402
14831736200
14831742609
14831748407
14831754450
14831758051
14831765741
14831771417
14831777826
14831784113
14831790094
14831795831
14831801813
14831805475
14831812372
14831818048
14831824274
14831831048
14831837335
14831843683
14831849908
14831855829
14831861871
14831865411
14831872918
14831878778
14831884698
14831890313
14831896173
14831901849
14831907769
14831913812
14831919854
14831927118
14831932977
14831938592
14831944635
14831949762
14831955804
14831959466
14831968011
14831974725
14831980950
14831986871
14831993218
14831998651
14832005181
14832011407
14832017755
14832024285
14832030694
14832036858
14832042840
14832048577
14832054559
14832060418
14832066399
14832072320
14832076897
14832084161
14832088860
14832095574
14832101922
14832107964
14832114739
14832121026
14832126397
14832133599
14832138665
14832144951
14832151421
14832157403
14832162591
14832169549
14832174553
14832181328
14832186272
14832191521
14832198174
14832204094
14832209771
14832217644
14832223320
14832230523
14832236016
14832241448
14832246453
14832253228
14832261162
14832267144
14832270806
14832278252
14832283928
14832290337
14832293999
14832301018
14832306084
14832313591
14832319634
14832325493
14832331230
14832337273
14832341057
14832348381
14832354973
14832362053
14832365715
14832374077
14832380363
14832386406
14832389885
14832398003
14832404350
14832410393
14832414604
14832421379
14832427971
14832432487
14832439018
14832445671
14832452446
14832458793
14832465080
14832471550
14832477043
14832483268
14832489738
14832495964
14832502067
14832508110
14832514518
14832519401
14832526725
14832531425
14832538261
14832543998
14832550468
14832555107
14832561149
14832567070
14832573173
14832579093
14832585197
14832591667
14832597404
14832601859
14832608756
14832615165
14832620414
14832626762
14832632682
14832637748
14832644584
14832650077
14832657340
14832662894
14832669059
14832675895
14832681510
14832688529
14832695243
14832700675
14832707572
14832712882
14832720512
14832725761
14832731498
14832738151
14832744315
14832749137
14832755057
14832761527
14832767020
14832773673
14832779227
14832787040
14832792106
14832797233
14832804740
14832810294
14832815909
14832820914
14832827567
14832833365
14832840018
14832843619
14832850394
14832855521
14832862479
14832868521
14832874930
14832878714
14832886527
14832892142
14832897513
14832902518
14832909232
14832914298
14832921012
14832927115
14832933219
14832939017
14832944998
14832950675
14832957205
14832962882
14832968863
14832974966
14832981070
14832987112
14832992972
14832997244
14833004263
14833010062
14833016043
14833020438
14833027640
14833031302
14833039297
14833045645
14833050223
14833056814
14833063162
14833069571
14833075918
14833082449
14833088858
14833095816
14833100760
14833107107
14833113272
14833119986
14833126211
14833131338
14833137197
14833143545
14833149404
14833154653
14833160940
14833168020
14833172537
14833179556
14833184133
14833191274
14833195669
14833201589
14833207632
14833214163
14833218923
14833226858
14833231802
14833238210
14833244619
14833251150
14833257436
14833263296
14833269643
14833274404
14833280935
14833286245
14833292837
14833298208
14833304800
14833311147
14833316274
14833321889
14833328298
14833333852
14833340139
14833345693
14833350881
14833358388
14833363759
14833370046
14833375051
14833381215
14833386464
14833393606
14833398671
14833404531
14833411184
14833417287
14833422353
14833428151
14833434743
14833440541
14833445485
14833451528
14833456716
14833463735
14833468740
14833474904
14833479970
14833485707
14833492238
14833498219
14833503285
14833510182
14833515187
14833521108
14833526174
14833533254
14833538625
14833545827
14833550893
14833557912
14833563222
14833569386
14833575185
14833583485
14833589772
14833596425
14833603505
14833609914
14833615956
14833622121
14833627919
14833634083
14833640309
14833646474
14833653493
14833658314
14833664967
14833669423
14833676808
14833681935
14833690663
14833695851
14833701832
14833708424
14833714405
14833719654
14833726612
14833731861
14833739857
14833745106
14833751881
14833756886
14833762684
14833767140
14833773243
14833778675
14833785877
14833789417
14833796559
14833799732
14833806568
14833811146
14833818165
14833821705
14833830250
14833835011
14833840931
14833846973
14833852711
14833857838
14833863453
14833870350
14833876148
14833881031
14833886524
14833893055
14833897266
14833903065
14833908497
14833914905
14833921558
14833927601
14833932178
14833939747
14833944813
14833951038
14833955860
14833963245
14833968067
14833974598
14833979175
14833984241
14833990589
14833995044
14833999866
14834007496
14834013965
14834019519
14834022693
14834029712
14834036548
14834040821
14834047779
14834053821
14834058826
14834064685
14834071582
14834077075
14834081775
14834087634
14834094837
14834099353
14834105213
14834111072
14834116504
14834120715
14834126209
14834132312
14834140186
14834145129
14834151294
14834155811
14834160876
14834167224
14834171741
14834176929
14834183643
14834188586
14834194995
14834199512
14834206103
14834211230
14834216662
14834224780
14834230578
14834235889
14834241748
14834247851
14834253528
14834258532
14834263965
14834271106
14834275805
14834282946
14834289416
14834295092
14834299609
14834306628
14834310962
14834318957
14834324023
14834330432
14834335253
14834341601
14834346362
14834352587
14834357470
14834365893
14834371447
14834376879
14834382189
14834387560
14834390734
14834397021
14834401904
14834408618
14834414355
14834419787
14834425402
14834431323
14834437243
14834443041
14834449633
14834455553
14834461291
14834466906
14834471484
14834477038
14834482897
14834488757
14834496203
14834501086
14834507006
14834511095
14834518053
14834522021
14834528979
14834534289
14834541979
14834546923
14834552416
14834556872
14834563219
14834567736
14834573168
14834580553
14834586351
14834592943
14834598864
14834604967
14834610888
14834615221
14834621202
14834627977
14834633959
14834638781
14834644579
14834650438
14834656237
14834662157
14834667955
14834676561
14834681505
14834686632
14834692552
14834697374
14834703172
14834709276
14834714342
14834721605
14834727220
14834731310
14834737718
14834742296
14834746996
14834753282
14834758470
14834766893
14834772752
14834778246
14834781541
14834787950
14834793016
14834798509
14834806016
14834811449
14834816026
14834821397
14834827318
14834832689
14834837877
14834843431
14834849229
14834855028
14834860643
14834866075
14834871568
14834877244
14834882066
14834886216
14834893663
14834900254
14834905503
14834910020
14834915147
14834921067
14834926194
14834932237
14834938707
14834943589
14834949082
14834953660
14834959336
14834965867
14834970750
14834976365
14834982957
14834988755
14834994615
14834999803
14835005174
14835010301
14835015855
14835023484
14835028123
14835034287
14835039903
14835045152
14835050706
14835055894
14835061265
14835068589
14835075181
14835080430
14835086900
14835092210
14835097642
14835103379
14835107468
14835115342
14835120591
14835126389
14835132615
14835138352
14835142502
14835150376
14835155686
14835162766
14835167710
14835173691
14835178452
14835185166
14835189927
14835195908
14835201706
14835208359
14835214951
14835220810
14835226792
14835231247
14835238266
14835244187
14835249924
14835255966
14835261582
14835267380
14835274216
14835278427
14835284287
14835290756
14835296555
14835302963
14835308457
14835313095
14835318527
14835324387
14835329819
14835334702
14835341171
14835346359
14835353561
14835358505
14835365463
14835371017
14835376450
14835381454
14835389572
14835395065
14835400497
14835405624
14835411789
14835417587
14835423691
14835430282
14835436752
14835442245
14835448654
14835454208
14835458542
14835465927
14835471054
14835477768
14835482528
14835488388
14835494857
14835499679
14835504257
14835510788
14835516037
14835523056
14835526840
14835535568
14835538986
14835546127
14835550643
14835558456
14835565658
14835571456
14835576766
14835582321
14835587631
14835593246
14835598800
14835604415
14835611007
14835616866
14835622299
14835627853
14835633956
14835638412
14835645736
14835650314
14835657760
14835662643
14835668929
14835673446
14835680221
14835685348
14835692428
14835698348
14835705855
14835711532
14835716964
14835720199
14835726913
14835731429
14835737960
14835743697
14835749434
14835752974
14835759810
14835765304
14835770736
14835777388
14835783187
14835789962
14835794478
14835800155
14835805709
14835810958
14835816329
14835821822
14835827254
14835834578
14835839827
14835845442
14835851485
14835856551
14835862410
14835867354
14835873702
14835880355
14835885298
14835891402
14835895918
14835902022
14835906416
14835911482
14835916365
14835924117
14835927535
14835934370
14835938887
14835944685
14835949263
14835955977
14835961104
14835968184
14835974715
14835981001
14835987654
14835994124
14836001204
14836006575
14836012923
14836017988
14836024824
14836029829
14836036055
14836040938
14836047712
14836052656
14836059919
14836065840
14836071821
14836076948
14836084761
14836088179
14836096296
14836100264
14836108625
14836114729
14836120344
14836124311
14836131208
14836137373
14836141645
14836148847
14836153364
14836160322
14836166120
14836171919
14836176374
14836182722
14836188642
14836195661
14836200239
14836206159
14836211958
14836217085
14836222822
14836227888
14836234052
14836240278
14836245222
14836251508
14836257917
14836264509
14836268110
14836277143
14836283796
14836289655
14836295270
14836300886
14836306196
14836311811
14836317853
14836322187
14836329816
14836334089
14836340619
14836344648
14836351545
14836355817
14836362714
14836367353
14836375043
14836379865
14836385358
14836389936
14836396955
14836401532
14836406720
14836414533
14836420575
14836426618
14836431989
14836437177
14836442609
14836447736
14836453046
14836458661
14836464765
14836470563
14836476544
14836482587
14836488568
14836494916
14836501203
14836508954
14836513898
14836519940
14836524457
14836530621
14836535260
14836541425
14836547040
14836553632
14836560529
14836565228
14836569745
14836575970
14836580609
14836587018
14836591962
14836599591
14836603802
14836609906
14836615704
14836621503
14836627057
14836632733
14836638531
14836644208
14836649640
14836655133
14836660809
14836666485
14836674725
14836679608
14836688458
14836693402
14836699322
14836703961
14836710186
14836714947
14836721173
14836726117
14836733136
14836736798
14836744183
14836747479
14836754498
14836759686
14836765057
14836770489
14836776837
14836782513
14836788067
14836791363
14836798443
14836804546
14836810101
14836817181
14836823223
14836828167
14836833660
14836839214
14836844708
14836849529
14836854839
14836860210
14836865520
14836870647
14836876080
14836881634
14836887066
14836892559
14836898846
14836904156
14836910076
14836915020
14836920940
14836926311
14836932415
14836937969
14836945049
14836950725
14836955364
14836961406
14836966350
14836973613
14836978618
14836985454
14836991008
14836996685
14837003521
14837008159
14837015117
14837019390
14837024211
14837031719
14837035625
14837043743
14837049297
14837055400
14837061016
14837066936
14837072612
14837078533
14837084392
14837090190
14837096416
14837102214
14837108318
14837113994
14837118999
14837124492
14837129558
14837134868
14837140300
14837145793
14837151775
14837157451
14837163432
14837169170
14837175212
14837179240
14837185954
14837190044
14837196574
14837200725
14837206645
14837212688
14837218730
14837223186
14837229533
14837235270
14837241435
14837247600
14837253459
14837259807
14837265056
14837269938
14837276347
14837281291
14837287211
14837293681
14837299662
14837305217
14837312114
14837316691
14837322795
14837327372
14837333415
14837338053
14837343180
14837349772
14837356425
14837360026
14837367777
14837373698
14837379557
14837385844
14837392497
14837398661
14837404643
14837407755
14837415568
14837421183
14837426676
14837432230
14837437602
14837444682
14837449442
14837455790
14837461649
14837468180
14837472575
14837479716
14837484110
14837492533
14837498820
14837504191
14837508890
14837514811
14837520975
14837525980
14837532755
14837539225
14837544718
14837550333
14837556254
14837561747
14837567057
14837572611
14837578592
14837584757
14837590555
14837596476
14837601847
14837607279
14837612772
14837618143
14837624674
14837629007
14837635660
14837639749
14837646891
14837651163
14837657999
14837662271
14837670877
14837674539
14837679361
14837683695
14837687845
14837691629
14837696268
14837700968
14837705423
14837709940
14837712991
14837717386
14837721658
14837725076
14837728067
14837733499
14837738870
14837743387
14837747537
14837752847
14837756815
14837761209
14837765298
14837770059
14837774148
14837780313
14837784830
14837789346
14837793313
14837797769
14837800943
14837807657
14837810586
14837817239
14837821878
14837826517
14837829385
14837834878
14837839029
14837844034
14837848977
14837854471
14837859170
14837863687
14837867532
14837872903
14837878335
14837885293
14837888772
14837894571
14837899453
14837904458
14837908181
14837912881
14837918618
14837923440
14837929177
14837935098
14837939859
14837945230
14837949319
14837955361
14837960916
14837966348
14837972451
14837977517
14837983315
14837987954
14837993447
14837996804
14838002786
14838007852
14838014382
14838020181
14838025369
14838030129
14838035195
14838039712
14838045266
14838049416
14838056496
14838062844
14838068093
14838072366
14838077920
14838082436
14838086953
14838092141
14838096780
14838104043
14838109536
14838115700
14838120156
14838124978
14838130471
14838136025
14838140114
14838146218
14838151894
14838157021
14838161477
14838167946
14838173012
14838178688
14838184731
14838190102
14838197609
14838203713
14838208535
14838217934
14838224648
14838229409
14838235451
14838239907
14838249672
14838254738
14838263039
14838269631
14838272072
14838281960
14838288429
14838296059
14838302162
14838308449
14838315468
14838321327
14838333229
14838340553
14838347511
14838353371
14838359779
14838366249
14838372597
14838379188
14838386574
14838394691
14838404213
14838409401
14838419533
14838425575
14838435585
14838440468
14838451088
14838458717
14838468116
14838475746
14838480873
14838487709
14838494606
14838502845
14838510170
14838515296
14838524208
14838528541
14838539283
14838546424
14838552101
14838563331
14838568031
14838576026
14838582801
14838587562
14838599098
14838603858
14838612830
14838619544
14838627235
14838633033
14838638099
14838647865
14838654029
14838656593
14838666236
14838673560
14838682166
14838689429
14838695838
14838701636
14838706702
14838716163
14838722632
14838729407
14838735694
14838741187
14838751258
14838756568
14838765296
14838769751
14838778113
14838783912
14838788855
14838797278
14838803260
14838813025
14838819495
14838827124
14838833045
14838840796
14838846228
14838852027
14838858374
14838866858
14838872046
14838880591
14838887122
14838896094
14838902808
14838908850
14838915503
14838919531
14838928015
14838933936
14838940283
14838952002
14838959570
14838966772
14838972876
14838979956
14838986182
14838992956
14838999365
14839005347
14839014013
14839021094
14839026465
14839035742
14839039648
14839048132
14839054236
14839061987
14839068701
14839072912
14839086218
14839092688
14839095861
14839107336
14839111975
14839120336
14839126562
14839129125
14839139990
14839146826
14839155920
14839163427
14839168981
14839176916
14839179662
14839189916
14839197851
14839204992
14839211095
14839218359
14839227514
14839233007
14839241430
14839247411
14839250097
14839260412
14839267309
14839273168
14839280248
14839289831
14839299230
14839302343
14839311193
14839317052
14839325475
14839331640
14839337743
14839348302
14839355565
14839363195
14839373021
14839383519
14839391027
14839398473
14839405614
14839413793
14839421056
14839429051
14839436681
14839444005
14839452672
14839459569
14839464696
14839472997
14839480016
14839485082
14839495397
14839500218
14839511144
14839518224
14839521214
14839531773
14839540929
14839547704
14839552037
14839562718
14839570103
14839575963
14839583409
14839591832
14839599888
14839606602
14839611546
14839622105
14839629307
14839635594
14839642491
14839652867
14839659947
14839665623
14839674595
14839680943
14839690220
14839696995
14839702183
14839712498
14839716770
14839725804
14839732945
14839735996
14839747776
14839752415
14839760105
14839766392
14839774021
14839780308
14839786595
14839798985
14839803501
14839811741
14839817722
14839826145
14839832066
14839836277
14839844883
14839850742
14839860325
14839867222
14839872959
14839882175
14839886570
14839895298
14839901218
14839906711
14839915561
14839919468
14839931431
14839938022
14839945530
14839951877
14839958957
14839966465
14839972995
14839979892
14839988376
14839994175
14840000949
14840008884
14840015659
14840022739
14840028720
14840035739
14840042758
14840049106
14840055942
14840063938
14840073337
14840079929
14840085910
14840091831
14840101047
14840107150
14840112766
14840121310
14840127658
14840135287
14840142306
14840148959
14840154636
14840162265
14840169833
14840174228
14840182956
14840189059
14840195163
14840205783
14840211520
14840219516
14840223971
14840232272
14840238742
14840243747
14840252780
14840257174
14840266513
14840275851
14840278903
14840288668
14840293673
14840303866
14840310885
14840318087
14840325106
14840331149
14840340487
14840347811
14840353488
14840361910
14840367587
14840374728
14840381564
14840387301
14840393649
14840402743
14840412142
14840417330
14840426058
14840433810
14840439730
14840447298
14840449862
14840459444
14840467196
14840474642
14840481295
14840489352
14840495272
14840500765
14840509188
14840516207
14840521456
14840529635
14840533846
14840548250
14840553988
14840561007
14840568148
14840577730
14840584383
14840593660
14840600313
14840608065
14840619539
14840625154
14840632845
14840639986
14840642977
14840655794
14840661348
14840669039
14840676851
14840680513
14840693880
14840699861
14840707857
14840715242
14840720613
14840727815
14840733125
14840743684
14840748079
14840758882
14840766756
14840772127
14840782625
14840788728
14840796602
14840803193
14840806062
14840818452
14840824495
14840831148
14840838289
14840846711
14840853547
14840858308
14840866121
14840872834
14840880037
14840885835
14840891389
14840901155
14840908723
14840914765
14840921784
14840927644
14840935395
14840941194
14840948701
14840954865
14840962922
14840969880
14840975190
14840984467
14840988679
14840996735
14841004060
14841009797
14841016084
14841024628
14841033112
14841040375
14841048615
14841054902
14841060395
14841066559
14841072480
14841081513
14841087739
14841093842
14841102204
14841109955
14841116486
14841123383
14841129242
14841135712
14841143647
14841149628
14841155426
14841162507
14841175629
14841181672
14841187775
14841194977
14841201447
14841207306
14841215851
14841221527
14841227814
14841237213
14841245819
14841249176
14841258209
14841265167
14841270416
14841279328
14841285187
14841291107
14841299835
14841307037
14841314423
14841322540
14841328949
14841333649
14841341095
14841347565
14841355621
14841361847
14841370392
14841381195
14841386810
14841392975
14841399750
14841407684
14841414337
14841419220
14841427215
14841434417
14841442596
14841449981
14841453094
14841463104
14841469696
14841476471
14841483062
14841487823
14841495819
14841504608
14841511627
14841519561
14841528778
14841535491
14841540496
14841546417
14841553069
14841560272
14841566253
14841574981
14841581268
14841589324
14841598480
14841606231
14841614410
14841621734
14841630584
14841637786
14841643462
14841652984
14841658294
14841665435
14841671111
14841673675
14841684112
14841690825
14841699248
14841705352
14841708831
14841720916
14841727202
14841734343
14841741423
14841750213
14841756682
14841762114
14841772490
14841776702
14841784941
14841794280
14841797332
14841807402
14841814055
14841821318
14841827544
14841830229
14841840911
14841846709
14841853789
14841861174
14841870451
14841876677
14841881316
14841889800
14841896086
14841903227
14841910002
14841915862
14841927031
14841933134
14841940886
14841947111
14841951628
14841961272
14841967985
14841973173
14841980131
14841992399
14841999785
14842005034
14842014006
14842019804
14842028044
14842034208
14842038664
14842047514
14842056181
14842063017
14842069914
14842077787
14842084440
14842091337
14842097258
14842103605
14842111112
14842118132
14842123747
14842133451
14842141203
14842148588
14842154814
14842159330
14842168180
14842174894
14842179716
14842188566
14842196439
14842203764
14842209196
14842217924
14842223722
14842229642
14842236600
14842241605
14842250455
14842257413
14842267057
14842274259
14842277311
14842287259
14842293851
14842301969
14842308133
14842310697
14842322049
14842327665
14842334806
14842342008
14842349576
14842357511
14842363919
14842373868
14842381437
14842388456
14842394254
14842402677
14842408963
14842414456
14842424039
14842430753
14842435636
14842442960
14842451322
14842458402
14842462857
14842472012
14842479398
14842488187
14842494290
14842499173
14842507901
14842511868
14842517606
14842525723
14842535001
14842541409
14842548978
14842555936
14842563809
14842569302
14842576260
14842583157
14842589566
14842596524
14842605740
14842613492
14842621792
14842628079
14842634671
14842640225
14842646695
14842654202
14842659817
14842666653
14842675747
14842682400
14842687710
14842696987
14842703701
14842710659
14842717739
14842723904
14842732205
14842741238
14842748440
14842756191
14842763210
14842769192
14842773953
14842782559
14842789028
14842797207
14842803310
14842810513
14842818020
14842823208
14842832241
14842838589
14842844448
14842851650
14842858364
14842865322
14842872402
14842880642
14842887844
14842890896
14842902370
14842906948
14842915188
14842921352
14842927089
14842934963
14842942409
14842949794
14842956813
14842959804
14842971584
14842976650
14842982936
14842989345
14842997097
14843004055
14843009487
14843019374
14843026637
14843034267
14843040615
14843047328
14843053798
14843060634
14843066005
14843072475
14843078517
14843089687
14843095241
14843104213
14843111110
14843116664
14843123378
14843128383
14843138209
14843142604
14843151332
14843158351
14843166102
14843174037
14843179591
14843186061
14843191859
14843201137
14843207240
14843214076
14843222438
14843229152
14843237269
14843243739
14843248927
14843258204
14843264613
14843271266
14843277430
14843285609
14843294886
14843301600
14843307398
14843313746
14843321925
14843327723
14843332789
14843340357
14843346400
14843357203
14843364100
14843370753
14843379176
14843384058
14843392481
14843398646
14843405054
14843411829
14843418787
14843428980
14843436488
14843443934
14843450953
14843457728
14843463709
14843471338
14843476526
14843482386
14843488672
14843499903
14843505640
14843513270
14843517664
14843523890
14843532557
14843537684
14843547632
14843555628
14843564722
14843573633
14843576929
14843585657
14843592676
14843598474
14843605188
14843611231
14843619104
14843625269
14843632898
14843640161
14843648218
14843654810
14843659754
14843670007
14843674036
14843681909
14843688806
14843695154
14843704370
14843710107
14843718408
14843723535
14843736352
14843743310
14843748254
14843758447
14843767053
14843774499
14843780603
14843786889
14843793603
14843800989
14843807580
14843813928
14843820520
14843827050
14843835351
14843844018
14843850915
14843857934
14843865075
14843870019
14843877526
14843884423
14843892663
14843899316
14843907067
14843914208
14843920922
14843925805
14843934960
14843940942
14843947473
14843954492
14843960412
14843967370
14843977502
14843984155
14843991601
14843998071
14844005090
14844010827
14844018700
14844024438
14844032494
14844036401
14844049157
14844055810
14844061913
14844068932
14844072960
14844082055
14844088097
14844092919
14844100731
14844108178
14844117211
14844123253
14844130822
14844137047
14844143883
14844149193
14844156395
14844161156
14844169945
14844175194
14844186241
14844193260
14844200646
14844207543
14844212303
14844219200
14844225975
14844234337
14844240135
14844246544
14844255272
14844260155
14844269127
14844276085
14844280968
14844288414
14844294701
14844302025
14844308311
14844313744
14844324181
14844328636
14844338280
14844344505
14844349998
14844357628
14844364403
14844369835
14844376610
14844385521
14844392479
14844396385
14844404258
14844410972
14844415672
14844424278
14844431602
14844437950
14844444053
14844450096
14844459129
14844467063
14844474266
14844480186
14844486961
14844493186
14844500755
14844508384
14844512351
14844522849
14844529991
14844534995
14844544151
14844552451
14844563011
14844569297
14844571922
14844583762
14844590720
14844600791
14844605796
14844612266
14844621177
14844627097
14844632774
14844640037
14844646567
14844652610
14844660117
14844667197
14844675498
14844685081
14844693137
14844701499
14844708274
14844716758
14844724326
14844729819
14844741111
14844745810
14844754844
14844762351
14844768759
14844777060
14844782431
14844790915
14844798056
14844805014
14844814719
14844822714
14844829611
14844837180
14844840109
14844850302
14844858786
14844866171
14844872885
14844880515
14844887167
14844892233
14844900900
14844907492
14844913535
14844923239
14844931479
14844937277
14844944296
14844954672
14844961569
14844966818
14844974936
14844981528
14844991232
14844998190
14845004355
14845011740
14845020041
14845028341
14845034750
14845043112
14845050314
14845055197
14845061972
14845068380
14845076803
14845083700
14845089315
14845096090
14845103109
14845109579
14845118368
14845123922
14845131796
14845136007
14845143026
14845151876
14845155538
14845166036
14845172628
14845179952
14845186178
14845192587
14845198507
14845206197
14845213399
14845219564
14845226522
14845233602
14845241598
14845246480
14845253011
14845262044
14845268758
14845274496
14845280233
14845288961
14845296468
14845303792
14845308858
14845318624
14845325643
14845331380
14845337362
14845339986
14845352010
14845357869
14845365865
14845373616
14845378987
14845384908
14845393636
14845398702
14845404683
14845413350
14845419271
14845427999
14845438313
14845444234
14845454610
14845461934
14845469991
14845477925
14845485066
14845493367
14845505147
14845512715
14845518208
14845525716
14845532307
14845541646
14845548299
14845553303
14845562276
14845568989
14845578816
14845586079
14845592061
14845600911
14845608113
14845616841
14845623555
14845629536
14845638203
14845643269
14845653279
14845661091
14845669087
14845675862
14845680867
14845689045
14845695332
14845702778
14845709797
14845715290
14845725849
14845733174
14845739521
14845745869
14845750385
14845759724
14845766438
14845774006
14845780109
14845787434
14845794697
14845800007
14845809772
14845814106
14845822040
14845829121
14845834003
14845842365
14845847248
14845857136
14845864399
14845867451
14845877704
14845884662
14845892597
14845898761
14845906391
14845912616
14845918293
14845929157
14845936664
14845944416
14845950519
14845953510
14845962604
14845969135
14845975910
14845982257
14845987445
14845998676
14846004291
14846012226
14846016803
14846025226
14846031452
14846036334
14846045429
14846049274
14846062885
14846070392
14846078571
14846085834
14846091754
14846099445
14846105304
14846111529
14846119647
14846125445
14846134540
14846143085
14846150104
14846157306
14846162250
14846170306
14846177814
14846185016
14846191668
14846195819
14846209185
14846214373
14846222247
14846228534
14846231219
14846241961
14846247577
14846254779
14846258685
14846272906
14846279620
14846282977
14846292803
14846299884
14846305438
14846312029
14846320147
14846326068
14846332110
14846341570
14846349810
14846355059
14846361712
14846366839
14846375384
14846382098
14846390093
14846396380
14846402972
14846414568
14846419451
14846427447
14846434222
14846441302
14846449236
14846452532
14846462542
14846471392
14846479204
14846487749
14846495806
14846502337
14846505144
14846517351
14846523333
14846531145
14846535418
14846545427
14846553118
14846561968
14846568926
14846574968
14846583391
14846588701
14846596636
14846603960
14846609636
14846619890
14846625627
14846633379
14846640337
14846648515
14846656206
14846659197
14846669878
14846679033
14846686479
14846693742
14846702470
14846709123
14846716814
14846723711
14846728837
14846736528
14846743791
14846756792
14846764299
14846771745
14846778825
14846786516
14846792802
14846800248
14846806779
14846814164
14846820390
14846831071
14846839738
14846845414
14846853105
14846858598
14846867448
14846875932
14846883622
14846890458
14846899858
14846907914
14846916032
14846922074
14846928971
14846934586
14846944413
14846952775
14846959794
14846966447
14846976334
14846983964
14846989335
14846997758
14847004838
14847012223
14847019913
14847025590
14847033951
14847041398
14847051102
14847058793
14847064225
14847073380
14847078141
14847084610
14847094620
14847100113
14847109208
14847117447
14847120804
14847131730
14847141007
14847148209
14847152970
14847163590
14847170731
14847175980
14847184952
14847192459
14847202957
14847207962
14847213333
14847224442
14847228897
14847239517
14847246597
14847252762
14847259659
14847269791
14847278580
14847284134
14847289322
14847298721
14847306839
14847314957
14847321793
14847329361
14847336502
14847340957
14847352066
14847359451
14847367691
14847374771
14847382278
14847389053
14847396255
14847402542
14847412307
14847419082
14847427993
14847435623
14847444290
14847451187
14847456558
14847465713
14847472793
14847480361
14847487441
14847493667
14847502090
14847510269
14847518813
14847525405
14847531448
14847540359
14847546951
14847555618
14847562637
14847568801
14847581619
14847586562
14847595046
14847602370
14847610915
14847618362
14847623183
14847632827
14847640822
14847648635
14847656203
14847663833
14847673232
14847680007
14847686355
14847695937
14847700393
14847709731
14847716567
14847722487
14847732436
14847739638
14847747573
14847755324
14847761000
14847769667
14847776992
14847780165
14847790602
14847799819
14847809401
14847815138
14847824599
14847831923
14847838759
14847845900
14847854018
14847859999
14847869093
14847873305
14847884962
14847893385
14847901564
14847908766
14847915968
14847922804
14847928419
14847937453
14847944227
14847952772
14847960280
14847965834
14847975050
14847982252
14847989454
14847997328
14848006178
14848011549
14848018934
14848027113
14848034315
14848039991
14848048048
14848055250
14848065260
14848072035
14848078871
14848091566
14848097364
14848107496
14848115492
14848121107
14848131056
14848135755
14848145765
14848152845
14848155836
14848167493
14848172498
14848184034
14848191297
14848194410
14848206312
14848211561
14848222181
14848229322
14848232313
14848242872
14848252698
14848259900
14848267286
14848274671
14848282056
14848289930
14848295850
14848302503
14848309827
14848318494
14848327832
14848337232
14848342481
14848351697
14848358533
14848364270
14848373975
14848381482
14848389478
14848396558
14848403028
14848412000
14848419934
14848426648
14848433667
14848438855
14848449841
14848455273
14848465466
14848472730
14848483960
14848491833
14848497571
14848505139
14848513074
14848519543
14848526868
14848535657
14848542187
14848551892
14848560559
14848568432
14848574658
14848581189
14848588757
14848596203
14848604016
14848609753
14848620007
14848624401
14848635571
14848642956
14848648632
14848659008
14848666577
14848672802
14848679760
14848684948
14848695385
14848700024
14848710461
14848717907
14848724865
14848733898
14848741467
14848748425
14848755749
14848762035
14848770641
14848779247
14848786633
14848794933
14848797924
14848808666
14848817516
14848824474
14848831249
14848838695
14848845775
14848854381
14848862255
14848870434
14848873485
14848886059
14848891857
14848899486
14848906444
14848913952
14848921215
14848926830
14848940380
14848945812
14848953319
14848961376
14848966808
14848976818
14848982006
14848990611
14848997447
14849008312
14849016246
14849024181
14849030040
14849037547
14849043163
14849052379
14849060619
14849067638
14849074596
14849081676
14849092601
14849100413
14849106700
14849113902
14849120494
14849129283
14849137034
14849144115
14849152720
14849162913
14849170665
14849175853
14849185313
14849192454
14849195567
14849205760
14849213878
14849220042
14849230906
14849240062
14849247508
14849254710
14849263377
14849268565
14849277537
14849285166
14849290660
14849299143
14849303843
14849316844
14849325083
14849332957
14849339732
14849346140
14849353953
14849360667
14849366526
14849375437
14849383433
14849392405
14849400095
14849407542
14849414683
14849422617
14849429880
14849437815
14849441050
14849450815
14849460032
14849468821
14849474192
14849480478
14849490122
14849497995
14849505320
14849513376
14849520639
14849527475
14849534555
14849543955
14849552805
14849560495
14849566233
14849576486
14849582834
14849590036
14849597849
14849605722
14849615305
14849622690
14849628305
14849637460
14849644357
14849656931
14849667978
14849678049
14849693307
14849705759
14849718088
14849728219
14849732858
14849752206
14849760629
14849772775
14849786630
14849812631
14849842843
14849871591
14849899362
14849927194
14849955392
14849970162
14849989571
14850008065
14850024117
14850038521
14850053902
14850068551
14850083016
14850098092
14850112801
14850120430
14850128487
14850136299
14850148018
14850161690
14850175423
14850188545
14850201363
14850214058
14850226143
14850239693
14850246590
14850256722
14850264473
14850271736
14850280037
14850287910
14850295845
14850303841
14850311592
14850319771
14850329292
14850338325
14850346199
14850355232
14850364204
14850372139
14850381355
14850385200
14850398811
14850404365
14850416694
14850422371
14850434455
14850439949
14850451362
14850456977
14850468452
14850473213
14850483528
14850488532
14850498603
14850505805
14850513984
14850522163
14850531562
14850541145
14850547981
14850555366
14850563422
14850571113
14850581367
14850588325
14850595527
14850603522
14850611457
14850619208
14850626899
14850635261
14850643989
14850651435
14850659797
14850668586
14850674445
14850679267
14850681830
14850688361
14850693183
14850699103
14850702155
14850708686
14850713263
14850717963
14850723578
14850727790
14850734076
14850739386
14850744696
14850750128
14850754645
14850760565
14850764838
14850770575
14850777350
14850781989
14850787299
14850791937
14850797980
