15314525980
15314532266
15314538126
15314544595
15314552164
15314559610
15314566080
15314574258
15314581216
15314588419
15314595254
15314603372
15314611002
15314619730
15314627237
15314634195
15314642618
15314648050
15314657083
15314664285
15314669839
15314679361
15314686746
15314693765
15314701455
15314708841
15314718240
15314725015
15314733621
15314738443
15314745706
15314753213
15314760476
15314768533
15314775918
15314783181
15314789407
15314798257
15314806802
15314814309
15314821267
15314826638
15314836038
15314844827
15314851418
15314859109
15314868508
15314876504
15314884927
15314892007
15314900185
15314908059
15314915200
15314922524
15314928200
15314936318
15314941628
15314952309
15314956154
15314967263
15314974404
15314980691
15314987465
15314993630
15315002236
15315009926
15315016884
15315024086
15315031350
15315038857
15315046059
15315051857
15315059975
15315065346
15315075051
15315080422
15315090187
15315097328
15315103920
15315110695
15315118813
15315124794
15315132912
15315140663
15315148048
15315154640
15315161842
15315169228
15315174782
15315184425
15315190224
15315199318
15315205971
15315211830
15315218666
15315226967
15315234596
15315242775
15315250038
15315257301
15315264931
15315272194
15315280128
15315285682
15315294777
15315302406
15315310646
15315316505
15315324440
15315332191
15315340309
15315345924
15315354286
15315359901
15315369972
15315375587
15315383155
15315388771
15315398475
15315405128
15315414039
15315421851
15315430824
15315434364
15315445167
15315448829
15315460243
15315468116
15315474525
15315481239
15315489478
15315497779
15315505103
15315510963
15315519202
15315525916
15315534217
15315539832
15315547645
15315556922
15315565406
15315572608
15315581031
15315589515
15315597388
15315604956
15315610511
15315619910
15315625525
15315634131
15315639563
15315648352
15315655677
15315662512
15315668006
15315676795
15315682715
15315691626
15315699561
15315707434
15315715308
15315723670
15315729773
15315738623
15315744727
15315753821
15315759924
15315769202
15315777075
15315786047
15315792090
15315801306
15315807654
15315816138
15315824499
15315832068
15315840002
15315848364
15315854773
15315863806
15315871679
15315877783
15315885840
15315894873
15315902746
15315910986
15315917028
15315924719
15315932837
15315941381
15315949804
15315956274
15315965307
15315973364
15315981115
15315989233
15315995275
15316002600
15316011511
15316018408
15316027136
15316034582
15316042516
15316050024
15316055944
15316064001
15316070837
15316078771
15316089147
15316098241
15316106115
15316115392
15316123571
15316132604
15316141881
15316149267
15316159398
15316166173
15316176793
15316183690
15316194066
15316201024
15316209325
15316219518
15316227208
15316235509
15316243199
15316254369
15316259069
15316270116
15316276952
15316288854
15316296361
15316307347
15316314671
15316324071
15316331029
15316340794
15316347752
15316355443
15316366124
15316373692
15316384496
15316392796
15316400731
15316410374
15316418309
15316425450
15316436253
15316443699
15316455296
15316459996
15316471104
15316480687
15316488377
15316497410
15316503025
15316513340
15316523655
15316532933
15316541233
15316551060
15316558323
15316568699
15316576817
15316585667
15316595066
15316603367
15316611363
15316620701
15316627781
15316637364
15316644505
15316654942
15316662693
15316673862
15316681858
15316692844
15316701328
15316710178
15316717564
15316724888
15316734714
15316743320
15316757664
15316766636
15316774082
15316781955
15316791721
15316800510
15316808017
15316815036
15316822971
15316831211
15316838901
15316846530
15316855075
15316861301
15316870151
15316877963
15316886630
15316894504
15316902377
15316910434
15316919772
15316925754
15316936008
15316942966
15316949924
15316957248
15316962314
15316972018
15316977634
15316986484
15316991672
15317001437
15317008945
15317017551
15317025241
15317032565
15317039950
15317047091
15317053988
15317061068
15317068820
15317076632
15317084201
15317093478
15317101474
15317107699
15317118197
15317124850
15317133456
15317139682
15317149630
15317157626
15317166049
15317175326
15317182162
15317191989
15317200778
15317207797
15317215121
15317222201
15317227633
15317234347
15317239840
15317246127
15317252901
15317258822
15317265658
15317272189
15317277682
15317284701
15317292147
15317299105
15317303805
15317311739
15317317415
15317324007
15317330355
15317336275
15317345980
15317351351
15317357943
15317364596
15317370394
15317376986
15317383150
15317389925
15317396212
15317401705
15317408236
15317414827
15317421480
15317429598
15317435945
15317441866
15317448763
15317454256
15317460176
15317466829
15317473604
15317479647
15317485872
15317492037
15317498934
15317504122
15317511263
15317518038
15317524019
15317531221
15317535555
15317543245
15317548616
15317555025
15317561983
15317567903
15317574739
15317581087
15317587495
15317592927
15317599336
15317606050
15317611909
15317618440
15317623384
15317630586
15317636995
15317642061
15317649629
15317655855
15317662019
15317668245
15317674043
15317680818
15317687043
15317694001
15317700471
15317706331
15317712190
15317718965
15317724824
15317731599
15317737825
15317744722
15317751130
15317757051
15317763032
15317769563
15317775178
15317781709
15317788362
15317794282
15317801667
15317807832
15317812104
15317819550
15317823945
15317831941
15317838227
15317844819
15317851044
15317857026
15317864350
15317870698
15317877534
15317882539
15317889191
15317895844
15317901826
15317908906
15317913727
15317921296
15317927094
15317933381
15317939240
15317945038
15317950654
15317956452
15317963654
15317970246
15317977204
15317983857
15317990082
15317996308
15318001923
15318009125
15318013581
15318020661
15318026520
15318031464
15318037690
15318043976
15318049897
15318056549
15318061920
15318068573
15318074677
15318080414
15318086395
15318090668
15318098847
15318103668
15318110443
15318115326
15318121796
15318127655
15318134003
15318138763
15318147125
15318152924
15318158722
15318164337
15318170074
15318176239
15318182587
15318188629
15318195221
15318201507
15318206390
15318212738
15318218841
15318224457
15318231354
15318237091
15318243805
15318248016
15318255523
15318259674
15318266632
15318272125
15318278717
15318285125
15318290863
15318297210
15318302581
15318308380
15318314117
15318320221
15318326812
15318333221
15318340606
15318344940
15318352813
15318358734
15318365447
15318371551
15318377716
15318386688
15318392486
15318398284
15318405181
15318411834
15318418914
15318425018
15318431609
15318438140
15318444244
15318451385
15318457854
15318463775
15318468169
15318476409
15318481414
15318488677
15318494964
15318501739
15318507598
15318513152
15318518584
15318524322
15318530303
15318536040
15318543609
15318549651
15318555144
15318561980
15318568511
15318575103
15318580840
15318588408
15318595794
15318601592
15318608794
15318613128
15318621123
15318626189
15318633757
15318640959
15318646514
15318651763
15318657195
15318662871
15318668303
15318675994
15318682341
15318687163
15318693450
15318699431
15318704314
15318710478
15318716521
15318722563
15318729277
15318733855
15318742033
15318747038
15318753508
15318758269
15318765105
15318770537
15318777068
15318783110
15318788908
15318794157
15318800078
15318805022
15318811430
15318818205
15318824003
15318829619
15318835539
15318840544
15318846586
15318854216
15318859038
15318865568
15318869841
15318876371
15318882170
15318887419
15318891569
15318898649
15318903227
15318910673
15318913420
15318921049
15318926542
15318931547
15318936674
15318945280
15318949980
15318956205
15318961393
15318967802
15318973051
15318979154
15318983671
15318990080
15318996549
15319001798
15319007536
15319012968
15319017606
15319022978
15319028837
15319034452
15319040495
15319046171
15319052396
15319056730
15319062528
15319068021
15319074735
15319079618
15319087308
15319091581
15319099271
15319102201
15319109830
15319114164
15319121061
15319127408
15319132352
15319138944
15319143766
15319149137
15319155240
15319160489
15319167386
15319172757
15319178983
15319184293
15319190519
15319196866
15319201322
15319207486
15319213285
15319219937
15319225858
15319231412
15319237393
15319243375
15319249417
15319257291
15319261991
15319268827
15319273160
15319280240
15319284574
15319292142
15319296842
15319304105
15319308743
15319315091
15319321072
15319326077
15319331326
15319337430
15319342801
15319349698
15319356168
15319362088
15319367215
15319373868
15319380093
15319386197
15319390408
15319398892
15319405057
15319409451
15319415555
15319421231
15319427456
15319431973
15319438931
15319443814
15319450711
15319456753
15319463162
15319469510
15319475308
15319479825
15319487515
15319492154
15319499539
15319505398
15319510708
15319515347
15319522183
15319524929
15319534390
15319540249
15319546475
15319552151
15319557705
15319562710
15319569180
15319574246
15319582180
15319588040
15319594021
15319599819
15319605740
15319610928
15319616543
15319625332
15319630642
15319635830
15319640163
15319648098
15319653408
15319660061
15319666958
15319672573
15319678005
15319684414
15319691006
15319695583
15319700649
15319707180
15319712734
15319719143
15319725490
15319731106
15319736110
15319741787
15319748195
15319753933
15319759853
15319766140
15319772548
15319778774
15319784328
15319788601
15319794948
15319800441
15319806545
15319811245
15319818142
15319822475
15319829006
15319833217
15319840847
15319845241
15319852809
15319859584
15319865016
15319871242
15319877956
15319883083
15319889797
15319895595
15319902492
15319908473
15319913905
15319919338
15319925014
15319928981
15319935146
15319941737
15319948085
15319954799
15319959071
15319964992
15319970607
15319976283
15319982020
15319989467
15319993922
15320000392
15320004542
15320011683
15320016566
15320023097
15320026027
15320034816
15320037990
15320045985
15320051539
15320057826
15320062892
15320067836
15320074061
15320081263
15320087672
15320093776
15320098536
15320105311
15320112086
15320118129
15320124232
15320130091
15320136195
15320141688
15320146327
15320151881
15320157252
15320162928
15320170436
15320175074
15320182154
15320186610
15320192469
15320196681
15320203761
15320207972
15320215418
15320221888
15320227442
15320233363
15320240015
15320243067
15320251490
15320257716
15320264124
15320270716
15320276331
15320280054
15320286463
15320292444
15320298182
15320304468
15320310267
15320316553
15320322657
15320327784
15320333704
15320338892
15320344568
15320350672
15320355311
15320361536
15320365992
15320372889
15320377344
15320383631
15320389795
15320396021
15320401087
15320406580
15320411035
15320417261
15320421656
15320428430
15320433191
15320441858
15320447534
15320453882
15320458826
15320465601
15320470117
15320478723
15320481836
15320491358
15320497156
15320502771
15320507715
15320515649
15320521814
15320527551
15320532556
15320540735
15320545618
15320550623
15320556116
15320562341
15320567407
15320572778
15320579309
15320584314
15320589502
15320595727
15320601587
15320606042
15320611413
15320617761
15320621850
15320628381
15320634485
15320639673
15320646570
15320653100
15320662256
15320672815
15320681604
15320685022
15320693628
15320698083
15320705468
15320710412
15320716516
15320722680
15320730004
15320734521
15320740563
15320745874
15320751550
15320758081
15320763818
15320767602
15320775598
15320780908
15320786279
15320792443
15320796533
15320802819
15320808617
15320815698
15320819909
15320826501
15320830712
15320837853
15320842065
15320849755
15320852868
15320862694
15320867760
15320874779
15320877770
15320886376
15320892052
15320898766
15320904992
15320910424
15320916527
15320922021
15320928246
15320934960
15320940880
15320946251
15320952172
15320959374
15320965172
15320969933
15320975914
15320980675
15320985924
15320992089
15320998986
15321005577
15321010887
15321016930
15321022850
15321028954
15321034813
15321040734
15321046776
15321052696
15321058434
15321063988
15321069481
15321073692
15321079186
15321084679
15321091149
15321095421
15321101891
15321107506
15321113792
15321118065
15321124535
15321128746
15321137840
15321143455
15321148705
15321156151
15321161034
15321166771
15321171654
15321178612
15321185387
15321190758
15321196068
15321201683
15321208458
15321213890
15321220543
15321228233
15321234398
15321239952
15321245506
15321250816
15321256370
15321261436
15321267479
15321276146
15321280662
15321286644
15321290916
15321297508
15321301780
15321308982
15321313133
15321320823
15321326744
15321333457
15321336204
15321345542
15321350669
15321357444
15321363792
15321370628
15321375633
15321382408
15321387779
15321394431
15321400962
15321406822
15321412376
15321418174
15321424583
15321430259
15321436362
15321440696
15321446677
15321452171
15321459861
15321462852
15321470908
15321476035
15321481711
15321485923
15321493125
15321498740
15321505332
15321509727
15321516074
15321520957
15321527366
15321532920
15321539145
15321544028
15321551413
15321556846
15321563010
15321567527
15321573813
15321579856
15321585959
15321594077
15321600119
15321607871
15321611960
15321618918
15321623130
15321631308
15321635703
15321643393
15321649314
15321655295
15321659690
15321666037
15321671469
15321677573
15321682395
15321691306
15321696005
15321701560
15321707968
15321713522
15321718466
15321724020
15321730551
15321735190
15321743307
15321748007
15321755026
15321759543
15321766684
15321771078
15321779562
15321785788
15321792319
15321798056
15321803122
15321809164
15321814230
15321820395
15321828146
15321833700
15321839254
15321845480
15321851706
15321856833
15321862753
15321870321
15321874838
15321881186
15321885702
15321893087
15321897665
15321904867
15321909567
15321917562
15321920858
15321929037
15321934225
15321940389
15321945516
15321951742
15321956808
15321964254
15321970358
15321976766
15321983236
15321988851
15321994711
15322000204
15322006979
15322013021
15322019064
15322025167
15322030599
15322034872
15322040975
15322046773
15322054037
15322059957
15322064840
15322070882
15322075826
15322080038
15322087972
15322092794
15322101278
15322107381
15322113546
15322119039
15322123189
15322128133
15322134176
15322139425
15322145894
15322151021
15322157491
15322163167
15322168966
15322174703
15322180318
15322186422
15322192281
15322198262
15322203939
15322209920
15322215535
15322220845
15322225057
15322233663
15322239278
15322245564
15322248494
15322256124
15322260640
15322267354
15322274617
15322286153
15322295796
15322302022
15322313680
15322322591
15322329549
15322335591
15322341817
15322348958
15322353596
15322360066
15322366841
15322372884
15322379719
15322385762
15322392293
15322398823
15322404072
15322410969
15322416951
15322423298
15322430562
15322435505
15322442280
15322447407
15322454670
15322459675
15322466816
15322473286
15322478718
15322485554
15322491475
15322496846
15322503193
15322509907
15322515950
15322522846
15322527668
15322535969
15322541706
15322547199
15322553913
15322559529
15322566609
15322573200
15322579182
15322585407
15322590962
15322597065
15322603840
15322608418
15322614765
15322621174
15322628376
15322634418
15322640217
15322645710
15322652912
15322659199
15322663654
15322670185
15322677082
15322683063
15322689777
15322696247
15322701496
15322708698
15322715290
15322719806
15322727192
15322733051
15322738788
15322744831
15322750995
15322758075
15322763874
15322770649
15322776569
15322782001
15322788105
15322795185
15322800312
15322806842
15322812152
15322819416
15322825702
15322831867
15322837726
15322843524
15322849811
15322855487
15322861652
15322867206
15322873981
15322881244
15322886798
15322892719
15322898700
15322904559
15322910724
15322917011
15322924274
15322929767
15322936237
15322941119
15322947772
15322954303
15322960467
15322967609
15322971942
15322979693
15322982745
15322991229
15322997455
15323002643
15323008441
15323015460
15323021136
15323027606
15323033465
15323039386
15323046100
15323050860
15323059222
15323065081
15323072039
15323076068
15323083880
15323090045
15323094622
15323103411
15323108599
15323115130
15323120501
15323126971
15323131793
15323138079
15323144915
15323150836
15323158099
15323161028
15323169817
15323175494
15323181841
15323186297
15323194598
15323199664
15323205706
15323212908
15323218645
15323224200
15323230669
15323237872
15323242937
15323249529
15323255633
15323261370
15323267657
15323273272
15323279925
15323286333
15323291338
15323297564
15323303728
15323308855
15323315447
15323321612
15323327471
15323334734
15323340777
15323346575
15323352922
15323357988
15323364153
15323371294
15323376970
15323382891
15323389666
15323395891
15323401750
15323406328
15323414080
15323420305
15323425371
15323431963
15323438433
15323443926
15323449846
15323457475
15323462053
15323469621
15323475786
15323481218
15323487261
15323493730
15323499834
15323505693
15323511064
15323517351
15323523271
15323529008
15323536333
15323539079
15323548173
15323554155
15323560380
15323565446
15323572038
15323577959
15323583696
15323591325
15323597551
15323603776
15323608476
15323616289
15323622209
15323628740
15323633256
15323640458
15323647538
15323653154
15323658036
15323664018
15323670732
15323675126
15323683366
15323689469
15323695939
15323701188
15323707658
15323713945
15323719804
15323726579
15323731217
15323737992
15323742326
15323751115
15323756669
15323762956
15323769181
15323775224
15323782365
15323787980
15323793473
15323797501
15323805253
15323810868
15323817948
15323824235
15323830155
15323835099
15323842850
15323847428
15323853104
15323860978
15323865555
15323873856
15323879594
15323884476
15323889298
15323896195
15323903458
15323909867
15323916581
15323921097
15323928177
15323935013
15323939957
15323945572
15323952958
15323959671
15323965287
15323971512
15323977494
15323983353
15323987748
15323995865
15324002518
15324008133
15324014664
15324020462
15324026200
15324032059
15324039993
15324045792
15324050797
15324057327
15324064285
15324068985
15324075333
15324081986
15324088394
15324094742
15324101028
15324106400
15324110916
15324117569
15324125076
15324131607
15324137588
15324143875
15324149368
15324155044
15324161392
15324166214
15324174759
15324181290
15324186355
15324192276
15324198929
15324204422
15324210159
15324216690
15324222671
15324228836
15324235061
15324240860
15324247085
15324253738
15324259414
15324266739
15324272598
15324278335
15324285904
15324290298
15324297439
15324302017
15324309341
15324314590
15324321243
15324327957
15324334243
15324339797
15324345474
15324353103
15324357620
15324364089
15324368362
15324376663
15324382095
15324388442
15324395156
15324401138
15324406997
15324413039
15324419326
15324423660
15324431045
15324436355
15324444106
15324449538
15324455947
15324463271
15324469070
15324474990
15324479201
15324486831
15324491714
15324498733
15324504897
15324511306
15324516799
15324523330
15324530166
15324535964
15324541762
15324546157
15324554213
15324559768
15324564894
15324571669
15324578749
15324583632
15324589858
15324595839
15324602736
15324608290
15324612746
15324620070
15324624770
15324632399
15324637648
15324644301
15324649550
15324655837
15324662428
15324668532
15324674696
15324680373
15324687270
15324691603
15324699049
15324704298
15324712843
15324718398
15324724257
15324730421
15324736281
15324743239
15324747694
15324755629
15324761549
15324767958
15324772047
15324779738
15324785231
15324791517
15324799269
15324803480
15324810805
15324815382
15324822767
15324828077
15324835280
15324840590
15324847303
15324853346
15324858839
15324865248
15324871656
15324877333
15324881727
15324890516
15324896009
15324902540
15324908766
15324914564
15324920484
15324926222
15324933546
15324939955
15324944959
15324950392
15324957044
15324962171
15324970106
15324975721
15324982008
15324988416
15324994581
15324999891
15325006544
15325011732
15325017896
15325024732
15325031019
15325036756
15325043104
15325049146
15325055006
15325061109
15325067213
15325074354
15325079297
15325084485
15325090833
15325096143
15325102491
15325110242
15325114698
15325123060
15325129163
15325134412
15325140332
15325146985
15325152295
15325159864
15325165784
15325171704
15325177930
15325182691
15325190076
15325195935
15325202222
15325207227
15325213941
15325220044
15325225781
15325231641
15325237317
15325245130
15325249646
15325256909
15325263379
15325268689
15325274060
15325280347
15325286755
15325294690
15325300488
15325305310
15325312451
15325317273
15325324109
15325329785
15325336499
15325341565
15325349377
15325355237
15325361279
15325366406
15325372082
15325379773
15325386548
15325392956
15325397900
15325404187
15325410107
15325415844
15325421887
15325427990
15325435254
15325439709
15325447766
15325453015
15325458081
15325464795
15325472119
15325478039
15325483593
15325489697
15325495739
15325501843
15325506359
15325514538
15325519665
15325526013
15325531567
15325538220
15325544567
15325550244
15325557324
15325563671
15325569286
15325575085
15325581921
15325587658
15325594494
15325598888
15325607739
15325613415
15325619030
15325624584
15325630627
15325636486
15325642223
15325649364
15325654308
15325660839
15325666942
15325673229
15325677257
15325683788
15325691906
15325698070
15325703686
15325709911
15325714916
15325721142
15325726696
15325732555
15325740612
15325746532
15325752819
15325758556
15325764110
15325769542
15325773937
15325781871
15325788402
15325794933
15325799938
15325806285
15325811962
15325817882
15325825694
15325830333
15325838390
15325843150
15325850536
15325855541
15325861827
15325868480
15325875194
15325881175
15325887096
15325892711
15325898936
15325905345
15325909923
15325917796
15325924510
15325929454
15325936595
15325942393
15325948131
15325954051
15325961619
15325966319
15325973582
15325977855
15325986705
15325992564
15325999522
15326004771
15326011729
15326017589
15326023265
15326030040
15326034922
15326041331
15326047801
15326054759
15326061656
15326067515
15326072581
15326078868
15326084422
15326090159
15326098338
15326105052
15326110301
15326116954
15326123606
15326129466
15326135447
15326142527
15326146983
15326153758
15326159678
15326165659
15326172617
15326177622
15326184458
15326191660
15326197886
15326203623
15326208994
15326214732
15326220957
15326226694
15326233042
15326237620
15326245737
15326250803
15326257822
15326264658
15326270273
15326277170
15326281931
15326288584
15326295237
15326300303
15326306711
15326313303
15326318796
15326326243
15326332895
15326338755
15326344797
15326349619
15326355844
15326360300
15326368723
15326376047
15326382761
15326388681
15326394541
15326399790
15326406076
15326414072
15326418772
15326425791
15326430612
15326437631
15326443369
15326449777
15326455148
15326461801
15326469431
15326473642
15326480783
15326485361
15326492868
15326497629
15326505502
15326510507
15326516794
15326522226
15326529001
15326535226
15326541391
15326549142
15326553720
15326561593
15326567087
15326573312
15326578805
15326585275
15326592050
15326598398
15326604745
15326609628
15326617502
15326622140
15326629464
15326636544
15326642221
15326648690
15326655526
15326661325
15326666940
15326672311
15326677865
15326685250
15326689889
15326696725
15326703134
15326708383
15326715341
15326721871
15326728707
15326736459
15326742501
15326746835
15326753915
15326758859
15326766061
15326771920
15326778512
15326785165
15326791329
15326797372
15326802926
15326807992
15326813607
15326821481
15326824532
15326832772
15326838692
15326844796
15326849068
15326855538
15326862984
15326869454
15326875130
15326879586
15326887887
15326890938
15326899422
15326906014
15326913277
15326917061
15326923409
15326930733
15326936898
15326942391
15326946785
15326955025
15326959908
15326967598
15326972542
15326979012
15326985359
15326991280
15326997872
15327004036
15327010567
15327016487
15327022469
15327026985
15327034737
15327040657
15327047859
15327054329
15327060127
15327065254
15327070931
15327077217
15327082039
15327090706
15327096016
15327102791
15327108894
15327114204
15327120552
15327127083
15327133064
15327139412
15327146004
15327152107
15327157600
15327162117
15327170601
15327175545
15327182258
15327189033
15327194954
15327201179
15327207039
15327212715
15327217048
15327226020
15327232002
15327240425
15327245674
15327252205
15327257087
15327263984
15327271675
15327277717
15327284431
15327291084
15327296211
15327302925
15327308113
15327314216
15327323493
15327329048
15327334724
15327340278
15327346687
15327352485
15327359138
15327366584
15327372932
15327379218
15327384589
15327390327
15327397346
15327403815
15327409492
15327414191
15327420722
15327427314
15327432380
15327437995
15327444892
15327452521
15327458808
15327464850
15327470771
15327476752
15327481147
15327489020
15327494758
15327501410
15327505744
15327512641
15327519355
15327525153
15327530829
15327537116
15327545050
15327548285
15327556281
15327561957
15327568915
15327574225
15327580390
15327584906
15327592963
15327598944
15327604621
15327609870
15327615851
15327621710
15327627448
15327635504
15327640997
15327647284
15327653571
15327659369
15327664862
15327671027
15327678534
15327682929
15327690009
15327697150
15327702032
15327707648
15327713934
15327718939
15327725836
15327733404
15327739630
15327745184
15327751532
15327757025
15327764899
15327770514
15327775885
15327784369
15327789740
15327795477
15327801520
15327807684
15327813849
15327820135
15327825689
15327832037
15327838568
15327843512
15327850836
15327857855
15327864080
15327869818
15327874212
15327881475
15327888677
15327894293
15327900457
15327907110
15327913153
15327919317
15327925176
15327931463
15327937200
15327941595
15327949835
15327955328
15327962652
15327967535
15327973943
15327981573
15327990728
15327997076
15328003789
15328010198
15328014959
15328022039
15328026495
15328035650
15328041631
15328048223
15328054754
15328060918
15328065618
15328072515
15328079290
15328085576
15328091314
15328097722
15328106023
15328112249
15328118596
15328123113
15328131353
15328136113
15328143682
15328148503
15328155645
15328160283
15328167424
15328172917
15328178289
15328186589
15328193303
15328199040
15328206121
15328213323
15328219609
15328224614
15328231511
15328236333
15328242986
15328249638
15328255925
15328262090
15328268803
15328274846
15328281010
15328287724
15328294133
15328299931
15328304448
15328312199
15328316594
15328324101
15328329045
15328336919
15328343205
15328348576
15328354436
15328361149
15328366643
15328373295
15328378789
15328385685
15328389958
15328396794
15328402104
15328408574
15328413640
15328419987
15328424443
15328432499
15328438237
15328444279
15328449711
15328455387
15328460820
15328466496
15328472905
15328478703
15328484257
15328489994
15328496281
15328500920
15328508915
15328513676
15328521366
15328527592
15328532475
15328538578
15328543339
15328548283
15328555058
15328557804
15328567082
15328573368
15328578800
15328584293
15328589787
15328594059
15328600162
15328606510
15328612308
15328619144
15328625004
15328630131
15328636051
15328641788
15328647037
15328653507
15328657963
15328664738
15328670963
15328676578
15328680851
15328688663
15328691471
15328700931
15328706669
15328713077
15328718692
15328723636
15328729374
15328735782
15328741092
15328747684
15328752323
15328759098
15328764286
15328770938
15328777957
15328783878
15328788150
15328795841
15328801151
15328806705
15328812137
15328817752
15328824039
15328828372
15328836490
15328841739
15328847537
15328851810
15328859195
15328863345
15328870792
15328873843
15328882144
15328887943
15328894717
15328900516
15328906985
15328911136
15328917361
15328923160
15328929690
15328936099
15328941714
15328947207
15328953189
15328958926
15328964908
15328971683
15328976260
15328982058
15328987674
15328994021
15328998294
15329005069
15329009219
15329017642
15329022342
15329029361
15329034365
15329041629
15329044375
15329052615
15329058779
15329065615
15329071109
15329076602
15329082705
15329089358
15329095523
15329101565
15329108706
15329114565
15329120608
15329126711
15329132876
15329138918
15329145144
15329151553
15329158572
15329163393
15329171389
15329177004
15329182375
15329186831
15329195315
15329200075
15329207827
15329213930
15329218813
15329223879
15329230105
15329236452
15329242007
15329246584
15329253298
15329259035
15329264528
15329270876
15329276308
15329281252
15329286745
15329291933
15329297731
15329304506
15329309023
15329315676
15329321840
15329328676
15329333254
15329342165
15329347902
15329352724
15329358400
15329364931
15329370790
15329376161
15329382082
15329389833
15329395754
15329400026
15329406069
15329412172
15329418764
15329424745
15329431154
15329437441
15329442873
15329447145
15329454347
15329458864
15329466249
15329471193
15329479005
15329484315
15329490602
15329495119
15329501344
15329506410
15329512575
15329517580
15329524415
15329531312
15329537294
15329542482
15329548341
15329554323
15329559938
15329567323
15329574281
15329579957
15329584413
15329591493
15329597963
15329603090
15329609864
15329615419
15329621949
15329626832
15329631898
15329638002
15329643922
15329650514
15329655213
15329663209
15329667909
15329673524
15329678956
15329684632
15329690309
15329695802
15329702699
15329707887
15329715211
15329719727
15329726685
15329731141
15329737611
15329741822
15329750733
15329753846
15329762879
15329767762
15329774537
15329780274
15329786927
15329793824
15329800172
15329806275
15329811768
15329817506
15329821717
15329827943
15329833436
15329840821
15329847901
15329853272
15329858521
15329865235
15329870301
15329876404
15329879273
15329887757
15329893250
15329899720
15329904541
15329911194
15329917176
15329923645
15329930603
15329936951
15329942871
15329948365
15329953736
15329959351
15329964478
15329970581
15329978028
15329984619
15329989990
15329994263
15330000305
15330004517
15330011292
15330017273
15330024536
15330029724
15330036133
15330041504
15330046631
15330052734
15330059815
15330064697
15330072449
15330077393
15330084106
15330089844
15330095764
15330102112
15330107849
15330113647
15330119568
15330125610
15330129822
15330135803
15330141418
15330147705
15330153381
15330160034
15330164856
15330171814
15330177246
15330182190
15330188781
15330193908
15330200805
15330206237
15330211425
15330217468
15330222717
15330228820
15330233886
15330240112
15330247314
15330253112
15330259338
15330263427
15330269226
15330274963
15330280944
15330286376
15330293518
15330298095
15330305358
15330311157
15330316345
15330322936
15330328369
15330335082
15330342101
15330347472
15330352416
15330357421
15330363586
15330369445
15330374450
15330380920
15330387939
15330394286
15330400207
15330406249
15330410827
15330417785
15330422484
15330428527
15330435607
15330440246
15330445861
15330451293
15330456908
15330463561
15330468139
15330475707
15330480651
15330487609
15330494079
15330499511
15330506286
15330511718
15330518615
15330524230
15330529479
15330535582
15330541014
15330548217
15330552611
15330558776
15330565978
15330571837
15330578185
15330583739
15330589903
15330596617
15330602477
15330608641
15330615355
15330620055
15330627501
15330632872
15330637755
15330644103
15330648985
15330654601
15330661559
15330666991
15330673277
15330678831
15330684325
15330690245
15330695738
15330702513
15330708250
15330714232
15330720152
15330726378
15330733031
15330738768
15330742979
15330751402
15330754393
15330763060
15330765745
15330774473
15330780089
15330784910
15330790526
15330799131
15330804686
15330810545
15330816710
15330822386
15330827513
15330833189
15330839231
15330845030
15330851072
15330855345
15330861814
15330867308
15330872740
15330878355
15330885740
15330888975
15330896604
15330902342
15330907347
15330913816
15330918821
15330923460
15330930601
15330936399
15330943052
15330948179
15330954771
15330959837
15330966123
15330973142
15330979429
15330985105
15330990720
15330996519
15331000730
15331007139
15331012632
15331019529
15331024168
15331031797
15331036436
15331043027
15331049131
15331057310
15331063535
15331070737
15331075620
15331081785
15331086850
15331093076
15331099118
15331104551
15331111203
15331118528
15331124448
15331129209
15331136472
15331140805
15331147946
15331152341
15331160092
15331165647
15331170713
15331178708
15331183896
15331189450
15331195737
15331200864
15331208981
15331214230
15331219907
15331226071
15331231931
15331236630
15331242490
15331249265
15331255368
15331260922
15331266537
15331272519
15331277219
15331283627
15331289548
15331297055
15331301633
15331308285
15331312619
15331319272
15331323971
15331330624
15331336362
15331343320
15331349667
15331355221
15331360470
15331366330
15331372311
15331377804
15331383603
15331389401
15331394833
15331399167
15331406735
15331411190
15331417660
15331424191
15331431088
15331437619
15331442501
15331448605
15331453427
15331459347
15331464230
15331470516
15331477352
15331481381
15331487667
15331492611
15331498898
15331505062
15331510800
15331515377
15331523800
15331528866
15331534420
15331539974
15331545528
15331551205
15331556759
15331562984
15331568905
15331574276
15331578548
15331584774
15331590694
15331596126
15331602108
15331607906
15331612606
15331620907
15331626400
15331633175
15331638729
15331644161
15331651485
15331658138
15331664608
15331669918
15331675289
15331682247
15331688839
15331695308
15331701961
15331706905
15331713436
15331718258
15331724788
15331729366
15331737178
15331742183
15331748287
15331753597
15331760555
15331765865
15331771053
15331777706
15331782955
15331788509
15331794917
15331799678
15331804683
15331809566
15331815852
15331821040
15331827510
15331833003
15331839961
15331844112
15331850703
15331855464
15331862300
15331866817
15331873470
15331880061
15331884395
15331890559
15331894954
15331900203
15331906612
15331911677
15331918391
15331923457
15331929866
15331934138
15331940730
15331945247
15331952205
15331958552
15331964839
15331969539
15331975886
15331981318
15331986995
15331991084
15331997432
15332003230
15332007624
15332013667
15332019282
15332023494
15332029841
15332036311
15332041133
15332047175
15332053401
15332059626
15332065913
15332071284
15332076899
15332082575
15332086848
15332092646
15332098506
15332104609
15332111872
15332121089
15332127375
15332137324
15332141413
15332153620
15332161189
15332171259
15332181025
15332188471
15332198725
15332210932
15332219599
15332228144
15332238276
15332248102
15332258051
15332266657
15332273432
15332282953
15332291071
15332299372
15332307917
15332315546
15332323542
15332331842
15332339655
15332349115
15332356745
15332364496
15332372980
15332380304
15332388849
15332397394
15332405329
15332413873
15332419733
15332429681
15332437799
15332446588
15332453485
15332462091
15332469293
15332479730
15332490289
15332497125
15332509943
15332516962
15332528436
15332537836
15332544305
15332556573
15332561151
15332573968
15332582025
15332593255
15332603326
15332611993
15332620477
15332629205
15332637811
15332648065
15332653985
15332664422
15332677484
15332687066
15332694940
15332703607
15332713494
15332724297
15332734490
15332741448
15332752801
15332760674
15332769158
15332778313
15332783929
15332796136
15332803948
15332812920
15332822014
15332828728
15332835564
15332840691
15332847710
15332851800
15332859185
15332865410
15332871148
15332875359
15332882927
15332888970
15332894829
15332900567
15332906853
15332911736
15332919426
15332925164
15332931572
15332938164
15332945122
15332951958
15332958550
15332964775
15332971306
15332977410
15332985405
15332990776
15332996025
15333003227
15333009148
15333016228
15333023003
15333027214
15333033928
15333039604
15333047417
15333053642
15333058281
15333067986
15333075249
15333081413
15333087395
15333095207
15333102898
15333107963
15333115898
15333121635
15333127678
15333132133
15333141716
15333150444
15333157768
15333164299
15333170402
15333175895
15333182060
15333188469
15333194816
15333199028
15333204887
15333209648
15333219352
15333226738
15333233207
15333239677
15333245292
15333251579
15333258110
15333263908
15333270866
15333277519
15333282829
15333288871
15333294914
15333301322
15333307609
15333313773
15333320426
15333325736
15333331229
15333338859
15333344230
15333349662
15333357536
15333362479
15333369193
15333374442
15333380302
15333387382
15333392081
15333399467
15333405875
15333411429
15333417472
15333424308
15333429984
15333436393
15333441581
15333447562
15333451652
15333459159
15333465690
15333471610
15333478019
15333484305
15333489737
15333496512
15333502372
15333508719
15333515433
15333523062
15333529288
15333534720
15333541190
15333545645
15333552970
15333558524
15333566214
15333571280
15333577262
15333582450
15333588919
15333595023
15333599967
15333606070
15333613211
15333617545
15333624747
15333630606
15333636343
15333643607
15333650198
15333656119
15333662222
15333667776
15333673636
15333680106
15333687002
15333693045
15333698416
15333704275
15333711111
15333715994
15333723318
15333729849
15333735830
15333741446
15333748282
15333753531
15333759573
15333763662
15333770804
15333776724
15333780874
15333788443
15333793997
15333799307
15333805349
15333812307
15333817312
15333824148
15333829824
15333835073
15333841055
15333848379
15333854849
15333860891
15333865896
15333872549
15333879141
15333884756
15333891409
15333897573
15333903311
15333910757
15333915884
15333922048
15333928701
15333934988
15333941702
15333946584
15333952566
15333958486
15333963674
15333972341
15333977285
15333984487
15333990102
15333996267
15334001638
15334009206
15334015981
15334022329
15334028554
15334033986
15334040700
15334048452
15334054555
15334060903
15334067373
15334072439
15334080068
15334085927
15334092275
15334099904
15334102651
15334110952
15334117299
15334122975
15334130605
15334135060
15334144399
15334150014
15334155995
15334162953
15334167165
15334174123
15334180104
15334187917
15334193044
15334198659
15334206105
15334212819
15334217824
15334223683
15334229970
15334236134
15334241750
15334249196
15334255849
15334261281
15334268910
15334273732
15334280507
15334287343
15334292775
15334301259
15334307912
15334316334
15334322499
15334329030
15334336537
15334342640
15334348561
15334354970
15334361561
15334367604
15334374073
15334378590
15334386891
15334395131
15334400746
15334408131
15334412831
15334419117
15334424733
15334432179
15334438649
15334443348
15334452198
15334458302
15334464405
15334470753
15334476429
15334482899
15334490101
15334494557
15334501087
15334508228
15334513538
15334520496
15334526600
15334533314
15334539906
15334545216
15334552540
15334558887
15334566090
15334571888
15334580250
15334586536
15334593189
15334598560
15334606190
15334611500
15334618641
15334624622
15334631458
15334638599
15334645374
15334650989
15334657886
15334662403
15334670093
15334676258
15334682056
15334690784
15334697132
15334703052
15334709583
15334716053
15334722278
15334729785
15334736621
15334743518
15334749317
15334755237
15334760608
15334768970
15334775623
15334781848
15334787708
15334795398
15334801685
15334808948
15334815967
15334821765
15334827991
15334833667
15334841052
15334848438
15334857532
15334864490
15334872668
15334881213
15334887988
15334895251
15334902942
15334909106
15334915332
15334919848
15334929858
15334936328
15334943408
15334949695
15334956347
15334962695
15334969287
15334975146
15334982653
15334989672
15334995837
15335001452
15335008960
15335014025
15335021777
15335028674
15335034716
15335041796
15335047656
15335054797
15335062304
15335068774
15335073413
15335080432
15335086474
15335092578
15335098315
15335103869
15335111559
15335117724
15335124987
15335131945
15335137072
15335146044
15335153307
15335159716
15335166308
15335171435
15335177599
15335185595
15335193407
15335200304
15335205797
15335211535
15335216906
15335224535
15335230333
15335237047
15335244005
15335247912
15335255480
15335261339
15335267992
15335275133
15335281542
15335287767
15335293627
15335300402
15335307360
15335313402
15335320238
15335326952
15335331957
15335338793
15335344896
15335351305
15335358385
15335364549
15335370531
15335377367
15335383531
15335389940
15335396532
15335402635
15335409898
15335417711
15335423448
15335429674
15335436876
15335443529
15335451097
15335456651
15335462877
15335469224
15335475877
15335482591
15335488939
15335492357
15335500291
15335506090
15335512681
15335517442
15335523790
15335529771
15335536180
15335542100
15335546739
15335553514
15335557908
15335564256
15335569810
15335575242
15335582872
15335588792
15335592515
15335598802
15335604722
15335610887
15335616380
15335623155
15335629380
15335634446
15335640245
15335645310
15335651963
15335657456
15335662522
15335668870
15335677171
15335682237
15335688523
15335695176
15335700547
15335706956
15335711472
15335718247
15335721543
15335731797
15335737473
15335742966
15335749070
15335755112
15335761887
15335767503
15335773423
15335778611
15335785630
15335790452
15335797532
15335802109
15335809250
15335815964
15335821885
15335827988
15335835312
15335840195
15335847092
15335852707
15335858750
15335866929
15335871567
15335879136
15335884934
15335891831
15335897507
15335902817
15335909897
15335916062
15335921982
15335926682
15335933945
15335939743
15335944687
15335953659
15335958298
15335964585
15335969650
15335974838
15335981369
15335987656
15335992905
15335999924
15336006210
15336012131
15336016525
15336022018
15336027695
15336033493
15336038315
15336044479
15336051437
15336056564
15336062973
15336068527
15336075241
15336081283
15336087631
15336094162
15336098801
15336104050
15336108383
15336117233
15336123337
15336129989
15336135910
15336141952
15336147140
15336152450
15336160263
15336165023
15336171066
15336175766
15336182602
15336188278
15336193954
15336200424
15336207016
15336212143
15336218368
15336224044
15336229843
15336235397
15336241134
15336245834
15336251693
15336257980
15336265609
15336271774
15336276840
15336283920
15336288558
15336294662
15336300582
15336306320
15336312911
15336318710
15336323470
15336329025
15336334640
15336340560
15336347640
15336351424
15336359298
15336366439
15336372054
15336377364
15336383285
15336389815
15336395858
15336401107
15336406783
15336411605
15336418502
15336423934
15336428267
15336435653
15336441085
15336445968
15336451766
15336457259
15336463912
15336470260
15336475570
15336481795
15336488204
15336493087
15336499129
15336503585
15336511092
15336516585
15336523726
15336529586
15336535262
15336540877
15336546675
15336552718
15336559188
15336565596
15336571700
15336576460
15336581038
15336587813
15336593123
15336599471
15336606490
15336611739
15336618636
15336624739
15336629683
15336635725
15336642989
15336648970
15336654646
15336660933
15336666670
15336672468
15336679549
15336685103
15336691145
15336697554
15336702437
15336709028
15336714644
15336720137
15336725020
15336731428
15336738081
15336744734
15336749983
15336755903
15336760786
15336766951
15336773726
15336780012
15336785749
15336792280
15336798323
15336804548
15336811384
15336815290
15336821455
15336827131
15336832746
15336838789
15336843611
15336849653
15336856123
15336863081
15336867414
15336873396
15336878584
15336884382
15336890852
15336896772
15336902754
15336908979
15336916486
15336920881
15336928693
15336935102
15336940107
15336946699
15336951520
15336958601
15336964948
15336971784
15336977033
15336984174
15336989789
15336996564
15337002607
15337008710
15337014875
15337022321
15337028364
15337034101
15337039716
15337046796
15337053327
15337060529
15337066022
15337072614
15337078717
15337084821
15337089399
15337096051
15337102887
15337111127
15337120465
15337135968
15337140912
15337146832
15337153546
15337158612
15337165814
15337172711
15337178632
15337184979
15337190045
15337202374
15337207929
15337216046
15337221051
15337228803
15337233380
15337240460
15337247967
15337253155
15337258221
15337266095
15337273419
15337280316
15337289349
15337295025
15337304486
15337312115
15337319928
15337324811
15337334271
15337340741
15337349347
15337356366
15337363202
15337371746
15337377362
15337385846
15337393231
15337401043
15337407391
15337415753
15337424481
15337429180
15337437725
15337443218
15337452069
15337458843
15337467022
15337474407
15337481365
15337488934
15337497112
15337504742
15337512493
15337519207
15337526958
15337533550
15337539593
15337544109
15337551922
15337558453
15337564617
15337572369
15337577312
15337584453
15337593304
15337598675
15337605511
15337612469
15337621013
15337628277
15337634685
15337644451
15337651653
15337658367
15337665203
15337671611
15337681133
15337688091
15337694988
15337701946
15337708721
15337714092
15337723674
15337730937
15337737712
15337744426
15337750774
15337754680
15337762004
15337769634
15337777934
15337787029
15337792644
15337802470
15337810283
15337815166
15337825481
15337835490
15337843242
15337851298
15337858501
15337865153
15337874858
15337882182
15337889628
15337895244
15337904155
15337910869
15337916118
15337926555
15337934489
15337940776
15337947551
15337954326
15337963237
15337969645
15337977336
15337984782
15337993083
15338000529
15338005290
15338011759
15338017497
15338023478
15338030070
15338033976
15338041545
15338046977
15338053752
15338062357
15338066569
15338075053
15338080241
15338086344
15338092631
15338098063
15338105692
15338110636
15338116984
15338125224
15338135416
15338147501
15338158915
15338165385
15338169840
15338177347
15338182963
15338189127
15338195292
15338201273
15338208903
15338220011
15338228068
15338233622
15338239664
15338246256
15338253092
15338259928
15338265543
15338272684
15338277567
15338286295
15338293558
15338301126
15338309610
15338316629
15338324259
15338331461
15338339456
15338347635
15338354349
15338361002
15338368143
15338376993
15338385294
15338391458
15338399515
15338406534
15338414285
15338419412
15338431314
15338437662
15338447427
15338454813
15338462564
15338468912
15338475564
15338484353
15338493570
15338498636
15338507059
15338515725
15338522195
15338529031
15338535928
15338544046
15338549905
15338557107
15338562967
15338567666
15338574014
15338578347
15338587564
15338595803
15338601785
15338612039
15338616311
15338624002
15338630654
15338635110
15338642800
15338649209
15338654214
15338660439
15338667764
15338676675
15338682351
15338688760
15338696511
15338703042
15338708779
15338717568
15338724648
15338730264
15338737405
15338743996
15338751626
15338758095
15338764565
15338770547
15338777688
15338782204
15338789895
15338796242
15338802590
15338811318
15338816567
15338825112
15338831643
15338840981
15338847939
15338854409
15338863564
15338870766
15338878273
15338884377
15338890847
15338899147
15338904274
15338914223
15338922341
15338928871
15338935768
15338942360
15338950783
15338958107
15338967690
15338974404
15338982155
15338988564
15338996376
15339003822
15339009621
15339019081
15339026405
15339031410
15339040443
15339046608
15339053505
15339059181
15339063942
15339071937
15339078041
15339083900
15339090614
15339096840
15339104591
15339110573
15339116798
15339122658
15339128761
15339135170
15339139503
15339148170
15339154457
15339161476
15339167274
15339171486
15339178444
15339184669
15339191139
15339197670
15339201637
15339208595
15339214942
15339220741
15339225746
15339233741
15339239906
15339244422
15339250587
15339257911
15339263099
15339270484
15339274391
15339281898
15339287513
15339292945
15339299049
15339304420
15339310767
15339317359
15339323646
15339329627
15339334754
15339340430
15339344398
15339352027
15339357398
15339365089
15339370460
15339377051
15339382422
15339388221
15339396277
15339401404
15339406836
15339413856
15339418433
15339424842
15339430335
15339436561
15339442847
15339446875
15339454261
15339459693
15339465674
15339473304
15339479346
15339484412
15339490454
15339496985
15339502600
15339508338
15339517066
15339523902
15339530127
15339534033
15339541297
15339547095
15339551245
15339559241
15339564429
15339571753
15339577307
15339582556
15339588660
15339594519
15339601599
15339606299
15339613806
15339618994
15339625586
15339630286
15339638403
15339642737
15339648779
15339654944
15339661352
15339667578
15339673376
15339678625
15339686072
15339692358
15339696325
15339703894
15339709204
15339715246
15339721411
15339725927
15339733496
15339738562
15339744299
15339750525
15339755652
15339761450
15339768957
15339774145
15339781713
15339786596
15339792334
15339798925
15339804480
15339812414
15339816809
15339823950
15339830602
15339836767
15339841711
15339847326
15339854467
15339860998
15339867590
15339872717
15339878210
15339884496
15339888891
15339898168
15339903234
15339909643
15339915929
15339920385
15339927831
15339934423
15339940771
15339946081
15339951452
15339958593
15339964330
15339970556
15339977331
15339982946
15339990392
15339998449
15340002965
15340010961
15340017309
15340023961
15340030553
15340036413
15340042699
15340047216
15340054906
15340060582
15340068029
15340073644
15340077733
15340085424
15340089757
15340097692
15340103795
15340108007
15340115087
15340120519
15340126500
15340132970
15340136754
15340145665
15340151830
15340158116
15340163182
15340168797
15340175877
15340179784
15340187596
15340194310
15340200047
15340205357
15340211461
15340216893
15340222752
15340229466
15340235936
15340241490
15340247410
15340254124
15340259190
15340264744
15340272923
15340278172
15340284398
15340291173
15340295933
15340301854
15340307896
15340313633
15340320225
15340325169
15340331089
15340337437
15340343480
15340349583
15340356297
15340362034
15340368443
15340373997
15340380040
15340385594
15340392247
15340397373
15340403538
15340409397
15340414524
15340422093
15340427769
15340434422
15340440708
15340445347
15340454929
15340459141
15340466648
15340472447
15340478428
15340485081
15340490513
15340498508
15340503635
15340509373
15340516819
15340523167
15340529636
15340536716
15340542210
15340548496
15340554966
15340563145
15340568516
15340574192
15340581150
15340585544
15340594150
15340599705
15340606418
15340613804
15340618503
15340626255
15340631870
15340640354
15340646579
15340650974
15340659153
15340666355
15340672092
15340678623
15340685520
15340692295
15340697422
15340705112
15340710483
15340716342
15340722690
15340729221
15340735996
15340742954
15340748874
15340756687
15340760532
15340768222
15340774387
15340780246
15340786960
15340793063
15340798862
15340805881
15340812289
15340819003
15340824802
15340831515
15340839328
15340843722
15340851108
15340857211
15340863559
15340869906
15340878146
15340882968
15340889743
15340895907
15340900546
15340906894
15340914645
15340918795
15340926303
15340932467
15340938449
15340943148
15340951022
15340956942
15340962130
15340969088
15340983004
15340991488
15340997897
15341003756
15341010653
15341016024
15341021762
15341028658
15341035128
15341042330
15341048373
15341054537
15341060214
15341065646
15341073336
15341078219
15341084750
15341091647
15341095919
15341103182
15341109347
15341116183
15341123080
15341129610
15341135958
15341140902
15341147127
15341153658
15341159701
15341164828
15341171786
15341177584
15341182711
15341188814
15341196139
15341201693
15341207857
15341213228
15341219332
15341225741
15341230135
15341237886
15341242830
15341248568
15341255892
15341260103
15341266512
15341270906
15341278841
15341284700
15341290926
15341297090
15341302523
15341308992
15341314974
15341321321
15341327242
15341332613
15341339510
15341345918
15341352144
15341358553
15341365511
15341371553
15341377290
15341382967
15341388948
15341393465
15341403108
15341407991
15341415498
15341421480
15341425752
15341434175
15341439607
15341446138
15341452302
15341458040
15341466340
15341472566
15341478975
15341484956
15341490816
15341496797
15341502839
15341509614
15341514863
15341522310
15341528413
15341533113
15341541047
15341546785
15341554292
15341561006
15341567109
15341573701
15341579682
15341587678
15341593293
15341599275
15341605989
15341612580
15341619660
15341626130
15341633210
15341639375
15341645417
15341653474
15341659944
15341665376
15341671540
15341678010
15341684480
15341691743
15341696931
15341704987
15341711335
15341718415
15341724641
15341732392
15341739716
15341744965
15341752656
15341760041
15341765595
15341771760
15341778473
15341787140
15341793488
15341799164
15341806061
15341811188
15341820405
15341828217
15341833588
15341838898
15341845368
15341850983
15341858429
15341864777
15341870148
15341876679
15341881562
15341889130
15341895661
15341902252
15341909149
15341917084
15341922699
15341929596
15341937164
15341943634
15341950043
15341956390
15341963471
15341971710
15341976776
15341984711
15341991425
15341996674
15342002838
15342010040
15342017303
15342024445
15342031830
15342038422
15342044342
15342050323
15342056000
15342060699
15342070160
15342076019
15342081451
15342088348
15342093902
15342100494
15342107513
15342113373
15342119903
15342125030
15342130706
15342138092
15342144500
15342150543
15342157745
15342162933
15342168731
15342176116
15342182952
15342189788
15342197235
15342203704
15342208282
15342216094
15342219940
15342228607
15342234954
15342240264
15342248077
15342253631
15342258025
15342265594
15342271819
15342278228
15342284393
15342291351
15342296844
15342302520
15342306426
15342313506
15342319793
15342326018
15342333526
15342339507
15342346038
15342352569
15342358916
15342364959
15342371245
15342378325
15342384307
15342390777
15342395232
15342403106
15342408477
15342414946
15342421843
15342429168
15342436919
15342443755
15342449248
15342455657
15342463835
15342468352
15342475005
15342481414
15342487639
15342494719
15342499663
15342505522
15342513091
15342519499
15342525481
15342531523
15342538298
15342544829
15342552092
15342556120
15342563139
15342568388
15342574431
15342582060
15342589690
15342594572
15342602812
15342609343
15342615202
15342622404
15342628752
15342634795
15342641447
15342648894
15342654387
15342660063
15342666777
15342673796
15342681730
15342688505
15342696013
15342701567
15342708220
15342714933
15342721647
15342725920
15342733671
15342741362
15342745756
15342752592
15342759245
15342764921
15342770475
15342776701
15342786283
15342792082
15342798429
15342805204
15342811857
15342818571
15342824430
15342830595
15342837919
15342844816
15342851103
15342859159
15342864652
15342871549
15342878507
15342885343
15342889494
15342897733
15342904386
15342910368
15342915617
15342921781
15342927946
15342934537
15342941862
15342948820
15342954435
15342959867
15342966459
15342972806
15342980070
15342987028
15342993192
15342999051
15343005704
15343010770
15343016996
15343023282
15343030240
15343036405
15343043546
15343049649
15343055509
15343061063
15343068753
15343074491
15343080289
15343086637
15343092191
15343097989
15343106595
15343112088
15343118009
15343124661
15343130277
15343138394
15343145047
15343151517
15343159573
15343165494
15343169766
15343176724
15343183011
15343189175
15343195889
15343200467
15343207791
15343213895
15343219937
15343226407
15343231961
15343237942
15343243680
15343249844
15343256619
15343264004
15343270291
15343276761
15343283352
15343290738
15343295193
15343299588
15343309292
15343313992
15343320706
15343328396
15343334622
15343338711
15343346402
15343352017
15343359158
15343366848
15343372830
15343379910
15343386929
15343391812
15343397427
15343404934
15343410977
15343417935
15343424832
15343431790
15343438198
15343443630
15343450039
15343456570
15343462673
15343469814
15343475613
15343482876
15343488796
15343494534
15343501919
15343508450
15343514614
15343521206
15343527248
15343533352
15343538113
15343547268
15343552883
15343558864
15343565822
15343570888
15343578457
15343585293
15343592617
15343597683
15343605373
15343611843
15343618679
15343625881
15343632228
15343638210
15343644619
15343650600
15343658168
15343663906
15343668361
15343676662
15343681911
15343687587
15343692653
15343697902
15343707057
15343713710
15343719753
15343726344
15343733241
15343740810
15343747035
15343754176
15343759975
15343766078
15343772487
15343779079
15343786647
15343792873
15343800929
15343808376
15343815272
15343823573
15343829311
15343836085
15343841090
15343847682
15343854274
15343862330
15343869288
15343874598
15343882289
15343887599
15343893886
15343900050
15343905726
15343914454
15343919581
15343925990
15343932704
15343938502
15343945521
15343951808
15343958094
15343965174
15343970973
15343977198
15343983363
15343989283
15343996485
15344003871
15344009303
15344016505
15344020106
15344027552
15344032069
15344040186
15344046717
15344052454
15344058497
15344064845
15344070155
15344077357
15344082545
15344089564
15344096400
15344101160
15344107508
15344112879
15344118677
15344125330
15344131739
15344139063
15344144495
15344150233
15344157557
15344162195
15344169459
15344176294
15344180201
15344186731
15344192103
15344199488
15344206202
15344212610
15344218164
15344222559
15344229700
15344235743
15344243189
15344249414
15344255701
15344261560
15344267725
15344274317
15344280542
15344288111
15344293970
15344299951
15344303919
15344310816
15344317652
15344322962
15344329431
15344335718
15344341943
15344347925
15344352869
15344360803
15344366846
15344373621
15344380762
15344385828
15344390771
15344398035
15344402795
15344410608
15344416223
15344422937
15344428674
15344433191
15344440820
15344447534
15344450891
15344459375
15344466089
15344471338
15344477685
15344484704
15344490930
15344496728
15344503137
15344508935
15344513086
15344521020
15344528283
15344532373
15344539087
15344544763
15344550256
15344558129
15344563256
15344569848
15344577661
15344582727
15344589013
15344594628
15344600915
15344608117
15344615014
15344621362
15344628381
15344635827
15344642968
15344650231
15344655908
15344661279
15344667931
15344673791
15344677880
15344685082
15344692467
15344697900
15344705163
15344710107
15344716759
15344723168
15344729333
15344736169
15344742455
15344747155
15344753014
15344760460
15344765343
15344773583
15344779809
15344786461
15344794152
15344800499
15344807946
15344815087
15344821862
15344829369
15344835656
15344840599
15344847496
15344854882
15344862877
15344869591
15344875206
15344881493
15344889305
15344895592
15344901451
15344907494
15344913658
15344919579
15344926476
15344931053
15344937523
15344941918
15344948937
15344954247
15344961632
15344967796
15344972496
15344980431
15344987694
15344995140
15345003014
15345008873
15345018089
15345023033
15345027855
15345036949
15345042503
15345049339
15345054344
15345061119
15345070030
15345074608
15345081382
15345089317
15345095848
15345102318
15345110191
15345115318
15345123191
15345128746
15345136680
15345142662
15345149009
15345156333
15345161033
15345167503
15345173118
15345179954
15345185142
15345191734
15345196800
15345203636
15345210288
15345216453
15345222740
15345228843
15345233543
15345239707
15345246177
15345252219
15345258384
15345264243
15345269126
15345275169
15345282005
15345288108
15345293418
15345299522
15345306113
15345312217
15345318076
15345324058
15345329978
15345334678
15345343833
15345349204
15345356467
15345361960
15345369224
15345374961
15345381736
15345386191
15345393393
15345398826
15345405722
15345412680
15345417319
15345422690
15345429343
15345434958
15345441672
15345448081
15345454062
15345458335
15345464743
15345469016
15345475302
15345482016
15345487937
15345493979
15345499655
15345505332
15345511069
15345516684
15345522605
15345529379
15345534079
15345541159
15345545432
15345552451
15345555380
15345563132
15345567404
15345575583
15345581808
15345586752
15345593283
15345598105
15345603659
15345609885
15345614828
15345621359
15345627402
15345633078
15345638998
15345644552
15345648581
15345654928
15345661886
15345667807
15345674460
15345679953
15345685324
15345690939
15345697043
15345701376
15345708151
15345712668
15345720602
15345724936
15345732077
15345736654
15345743673
15345748190
15345756002
15345760580
15345768026
15345772848
15345779684
15345782492
15345790548
15345796896
15345803976
15345808370
15345814840
15345820089
15345826620
15345832479
15345839376
15345845846
15345851827
15345858053
15345863912
15345870321
15345876363
15345882833
15345887289
15345894735
15345900655
15345906454
15345912740
15345918294
15345922689
15345930074
15345934408
15345941854
15345947957
15345953267
15345957540
15345965963
15345971822
15345976949
15345982930
15345990011
15345995137
15346001302
15346006673
15346013021
15346017720
15346024739
15346029134
15346037374
15346042257
15346047811
15346052449
15346058736
15346063741
15346070272
15346078389
15346083028
15346089986
15346094625
15346103719
15346109700
15346116597
15346122456
15346129414
15346133992
15346141133
15346147176
15346152913
15346158101
15346164265
15346170308
15346177449
15346182027
15346188435
15346194600
15346198628
15346205037
15346210591
15346217793
15346222310
15346229268
15346233540
15346239888
15346245564
15346251179
15346255757
15346263508
15346268635
