15211393065
15211397276
15211401244
15211405028
15211408690
15211412352
15211415892
15211419554
15211423461
15211427123
15211430418
15211434203
15211437621
15211440917
15211444823
15211448363
15211451720
15211455382
15211459349
15211464110
15211467955
15211471556
15211475706
15211479735
15211484373
15211489073
15211492979
15211497435
15211502074
15211507445
15211512572
15211518248
15211523863
15211529234
15211535216
15211541197
15211547362
15211553831
15211561583
15211568358
15211574949
15211582213
15211589232
15211597960
15211606077
15211613157
15211621153
15211627378
15211637144
15211644163
15211654051
15211662840
15211670835
15211680235
15211688169
15211701719
15211709471
15211717100
15211727598
15211735960
15211743223
15211753111
15211760252
15211770444
15211778623
15211787839
15211795286
15211804563
15211813413
15211822629
15211831541
15211838865
15211847349
15211857053
15211863828
15211873960
15211884458
15211893430
15211904111
15211914975
15211923154
15211929197
15211942258
15211949094
15211960507
15211967771
15211978269
15211987851
15211995114
15212004331
15212014340
15212023862
15212032285
15212040891
15212049069
15212058163
15212065244
15212075436
15212085507
15212095273
15212106747
15212114377
15212125058
15212132565
15212143368
15212151913
15212161984
15212168576
15212178891
15212188778
15212196835
15212204281
15212212643
15212222653
15212229489
15212240475
15212252438
15212261471
15212270931
15212277218
15212291928
15212301449
15212309628
15212320370
15212329220
15212340389
15212349056
15212358334
15212368649
15212377132
15212386105
15212394833
15212403988
15212413082
15212419430
15212430965
15212437557
15212446346
15212455623
15212465084
15212471248
15212481258
15212490413
15212501155
15212508846
15212521724
15212532283
15212541500
15212551265
15212559139
15212568965
15212583187
15212591060
15212600032
15212607356
15212617732
15212624873
15212635921
15212643306
15212653926
15212664546
15212672115
15212682613
15212689754
15212700130
15212709285
15212716609
15212723445
15212735347
15212742244
15212753596
15212760188
15212769832
15212778987
15212787532
15212796626
15212804988
15212813044
15212821955
15212830378
15212839839
15212850154
15212857722
15212865229
15212875666
15212882929
15212892329
15212902278
15212909236
15212917964
15212927424
15212936335
15212945673
15212954096
15212962153
15212971552
15212979853
15212990046
15212998102
15213006830
15213014521
15213025629
15213032892
15213039423
15213051691
15213058344
15213066584
15213075556
15213085688
15213094477
15213101374
15213109491
15213118830
15213127008
15213137690
15213145807
15213151667
15213162531
15213171747
15213178949
15213188043
15213196466
15213205438
15213213983
15213223261
15213233209
15213242365
15213249384
15213257318
15213266779
15213274530
15213283136
15213293573
15213302850
15213310968
15213320306
15213327508
15213334039
15213344720
15213351312
15213361566
15213370477
15213379205
15213388360
15213396417
15213405145
15213413446
15213421319
15213428949
15213439080
15213445916
15213455987
15213463555
15213472894
15213479486
15213489800
15213496453
15213506097
15213515252
15213525018
15213534173
15213542046
15213550957
15213559075
15213568780
15213577325
15213583001
15213593499
15213601006
15213611687
15213619012
15213625786
15213636223
15213642937
15213655083
15213661736
15213673943
15213681206
15213692376
15213701348
15213710686
15213719109
15213727410
15213735771
15213743462
15213751457
15213759880
15213768303
15213775933
15213783806
15213791741
15213800224
15213809624
15213817192
15213825493
15213833916
15213842583
15213850945
15213858818
15213866386
15213875114
15213883659
15213891838
15213899406
15213908501
15213916130
15213924614
15213931633
15213940971
15213948173
15213959770
15213968437
15213976616
15213984489
15213994255
15214000541
15214009636
15214019279
15214028190
15214036186
15214043144
15214052421
15214060234
15214070304
15214077812
15214085990
15214093437
15214101127
15214110099
15214118095
15214125968
15214134147
15214142143
15214152335
15214159904
15214169303
15214176017
15214183707
15214190543
15214198600
15214205192
15214215690
15214221061
15214231498
15214241813
15214248404
15214255973
15214262015
15214269400
15214277396
15214285453
15214291495
15214299002
15214305289
15214312613
15214319693
15214326285
15214333060
15214339347
15214346366
15214351187
15214358206
15214364859
15214370352
15214377677
15214383170
15214389273
15214394949
15214401419
15214407706
15214414542
15214418936
15214426383
15214430716
15214437735
15214443533
15214450613
15214455008
15214461356
15214467154
15214474051
15214480032
15214486075
15214491873
15214497854
15214504263
15214510733
15214516165
15214523550
15214531119
15214536184
15214542227
15214549551
15214556631
15214562735
15214568472
15214574026
15214580313
15214587820
15214595144
15214601004
15214607351
15214614187
15214619802
15214625601
15214632742
15214638723
15214644766
15214650869
15214656668
15214663198
15214669180
15214674856
15214681082
15214688284
15214694692
15214701467
15214707571
15214713186
15214718435
15214723989
15214731435
15214737722
15214744070
15214747671
15214754446
15214761282
15214767202
15214772756
15214780569
15214785818
15214791189
15214797109
15214802297
15214808706
15214815298
15214822439
15214829152
15214834157
15214841054
15214846547
15214852346
15214857717
15214864431
15214871633
15214876516
15214882802
15214888723
15214894887
15214899587
15214907888
15214913503
15214919606
15214924794
15214931020
15214936391
15214943227
15214949086
15214955373
15214961782
15214966969
15214973866
15214979054
15214984487
15214990956
15214997975
15215003896
15215009877
15215015187
15215021230
15215027089
15215033925
15215039235
15215045094
15215051320
15215056691
15215063344
15215069875
15215074025
15215079274
15215087392
15215094655
15215099415
15215105458
15215110280
15215117543
15215122853
15215128895
15215134999
15215141896
15215147816
15215153676
15215159047
15215166066
15215172291
15215177235
15215184987
15215190541
15215196461
15215201649
15215208119
15215212208
15215219776
15215226979
15215233509
15215239491
15215244068
15215251148
15215256520
15215261585
15215268849
15215274830
15215280201
15215286610
15215292835
15215299915
15215304859
15215312183
15215318714
15215323475
15215330189
15215336964
15215342640
15215347889
15215354420
15215360828
15215365345
15215371693
15215377552
15215383961
15215388965
15215395130
15215402576
15215407703
15215412891
15215419849
15215423816
15215430774
15215436634
15215443042
15215449573
15215456470
15215461536
15215468067
15215473316
15215478870
15215485096
15215492908
15215499561
15215505237
15215510059
15215516407
15215521228
15215529956
15215536060
15215542530
15215548206
15215553638
15215559192
15215565174
15215570850
15215578174
15215585132
15215590686
15215595874
15215602527
15215608081
15215613818
15215620410
15215627795
15215634082
15215640308
15215644946
15215651538
15215656848
15215661792
15215668933
15215675342
15215679492
15215686206
15215693164
15215697436
15215704089
15215711291
15215717029
15215721728
15215728259
15215734912
15215740100
15215745593
15215751880
15215759143
15215763781
15215770373
15215776294
15215782031
15215788012
15215793261
15215800219
15215806445
15215811755
15215818286
15215824145
15215829760
15215836474
15215843066
15215848803
15215855822
15215860644
15215867358
15215873278
15215878466
15215883898
15215891589
15215897570
15215904345
15215908679
15215914721
15215920763
15215927294
15215935534
15215941454
15215947008
15215952990
15215959399
15215963549
15215970263
15215977160
15215982592
15215989489
15215994372
15216000902
15216005846
15216011156
15216018725
15216025744
15216031969
15216037523
15216043688
15216048876
15216055040
15216061144
15216066881
15216073595
15216078905
15216084826
15216090380
15216096666
15216102404
15216110399
15216115953
15216122789
15216127916
15216134813
15216140673
15216145983
15216151842
15216158983
15216165331
15216170091
15216176134
15216182543
15216187181
15216194017
15216199693
15216206590
15216211778
15216217943
15216221910
15216228563
15216234972
15216241502
15216247606
15216254747
15216260423
15216265733
15216271226
15216276536
15216282945
15216288438
15216295640
15216302171
15216308153
15216312913
15216319017
15216324754
15216332811
15216339158
15216344346
15216351060
15216355027
15216361924
15216367540
15216373338
15216380357
15216386644
15216392808
15216397996
15216404466
15216411119
15216416307
15216424546
15216430894
15216435899
15216442063
15216447618
15216453782
15216459336
15216466416
15216473130
15216478440
15216484483
15216490464
15216496201
15216502061
15216508653
15216513596
15216519822
15216525803
15216532517
15216537766
15216542405
15216549851
15216555466
15216562241
15216568284
15216573777
15216579392
15216585496
15216592148
15216597275
15216605271
15216610764
15216616929
15216622727
15216628220
15216633530
15216639573
15216647324
15216652390
15216659287
15216664048
15216670334
15216675583
15216681809
15216687424
15216693833
15216699997
15216706223
15216711655
15216717820
15216724106
15216729965
15216736923
15216741623
15216748032
15216754563
15216759751
15216765183
15216772263
15216779343
15216783981
15216791062
15216795639
15216801865
15216808579
15216814011
15216821701
15216827072
15216832321
15216838974
15216843185
15216850326
15216856613
15216861069
15216868149
15216872848
15216878952
15216885483
15216891098
15216896469
15216902695
15216908310
15216914963
15216918869
15216926193
15216931808
15216937484
15216943283
15216949691
15216955795
15216960495
15216966354
15216972946
15216978622
15216984176
15216990463
15216995773
15217001754
15217006942
15217013107
15217020065
15217024459
15217031356
15217038070
15217044235
15217048934
15217055648
15217060897
15217066879
15217072372
15217078597
15217083785
15217090133
15217096359
15217102462
15217107345
15217113448
15217120040
15217125533
15217132247
15217139022
15217144149
15217149337
15217155807
15217161605
15217167647
15217171798
15217178695
15217185714
15217190536
15217196517
15217202498
15217208541
15217214705
15217220809
15217226241
15217232833
15217238082
15217243209
15217248580
15217255477
15217262435
15217268782
15217274581
15217280684
15217287215
15217291793
15217298018
15217303756
15217309432
15217316207
15217321395
15217326522
15217332686
15217339888
15217344466
15217351180
15217357222
15217363326
15217368270
15217374495
15217380965
15217386153
15217391707
15217398848
15217404219
15217410140
15217414046
15217421126
15217427229
15217433516
15217440108
15217445967
15217451399
15217456282
15217462263
15217468672
15217474837
15217480452
15217487593
15217493452
15217500288
15217506575
15217511885
15217519270
15217525557
15217531782
15217536970
15217542280
15217547468
15217553328
15217558455
15217565413
15217571394
15217577314
15217583235
15217589888
15217595991
15217601484
15217606855
15217612410
15217618574
15217623945
15217632795
15217642011
15217649641
15217659529
15217670149
15217679914
15217689802
15217698530
15217708357
15217718427
15217729414
15217738203
15217747297
15217755781
15217764204
15217775495
15217783857
15217792341
15217802778
15217811750
15217821393
15217829877
15217839887
15217848554
15217858197
15217867780
15217876874
15217887006
15217896955
15217903546
15217914716
15217922223
15217933454
15217941937
15217950116
15217958356
15217968671
15217974835
15217985455
15217996686
15218004071
15218014264
15218025128
15218034589
15218040570
15218050214
15218061322
15218070782
15218079388
15218087567
15218097516
15218105023
15218113263
15218123700
15218129742
15218141217
15218149395
15218157757
15218166058
15218178082
15218187115
15218196698
15218206707
15218215679
15218225750
15218235272
15218243695
15218253948
15218263348
15218272076
15218281475
15218288860
15218298748
15218308453
15218319134
15218327984
15218332928
15218339519
15218346050
15218350689
15218357342
15218364788
15218370281
15218377361
15218383404
15218388958
15218395977
15218400860
15218407573
15218414776
15218420452
15218427166
15218432049
15218438579
15218444133
15218451763
15218456768
15218461895
15218467510
15218473369
15218479534
15218487224
15218493084
15218498882
15218513164
15218520671
15218529094
15218536785
15218541728
15218547038
15218555095
15218562663
15218569194
15218577739
15218583720
15218589153
15218595866
15218603496
15218608745
15218615276
15218621135
15218628154
15218634990
15218642009
15218649455
15218653789
15218660808
15218667216
15218674174
15218678935
15218685344
15218693278
15218697795
15218704997
15218711711
15218717997
15218723796
15218732890
15218738200
15218744059
15218750895
15218756327
15218762675
15218768290
15218774455
15218781230
15218787211
15218792887
15218798930
15218806376
15218812174
15218818461
15218825724
15218831278
15218839396
15218844767
15218851176
15218857829
15218863932
15218871378
15218876444
15218883036
15218890788
15218895915
15218903727
15218910380
15218914713
15218922831
15218929118
15218935282
15218942545
15218948344
15218956339
15218963541
15218970865
15218977030
15218983072
15218990030
15218997172
15219003031
15219011881
15219017008
15219025431
15219031412
15219038858
15219044840
15219052042
15219058023
15219064737
15219072611
15219077555
15219084635
15219091410
15219097147
15219104776
15219112223
15219119852
15219127054
15219133707
15219140726
15219147318
15219150858
15219157572
15219163614
15219168741
15219175821
15219181070
15219187296
15219193033
15219198953
15219206216
15219213235
15219218484
15219224283
15219230203
15219235513
15219240640
15219246133
15219251443
15219257242
15219263040
15219267435
15219273904
15219281290
15219286416
15219292459
15219299051
15219306436
15219312539
15219317544
15219323221
15219330179
15219336648
15219341409
15219348733
15219353921
15219360086
15219366494
15219372659
15219377298
15219383035
15219390786
15219397195
15219402993
15219407876
15219413186
15219419229
15219426858
15219431741
15219437966
15219442483
15219449746
15219454751
15219459878
15219468057
15219473061
15219478860
15219484841
15219490640
15219496865
15219501260
15219509194
15219514504
15219520730
15219526406
15219533242
15219538918
15219544778
15219549416
15219556130
15219562234
15219569436
15219574746
15219581704
15219587014
15219592629
15219598549
15219605507
15219613564
15219619179
15219627236
15219633095
15219640542
15219647072
15219653237
15219658974
15219663857
15219670815
15219676003
15219682717
15219688881
15219693825
15219702614
15219707863
15219713295
15219719033
15219725258
15219730873
15219737404
15219743813
15219749001
15219755654
15219761513
15219767555
15219772987
15219780006
15219786842
15219792336
15219797585
15219803444
15219809975
15219816261
15219822548
15219826942
15219833595
15219839638
15219844765
15219850746
15219856361
15219863441
15219868996
15219876015
15219881203
15219887428
15219893287
15219899452
15219904762
15219909218
15219915199
15219921608
15219927284
15219932167
15219938087
15219943336
15219950355
15219956215
15219961097
15219966346
15219972389
15219977394
15219984108
15219989601
15219994850
15220000282
15220006446
15220012123
15220016822
15220022315
15220028236
15220033912
15220040321
15220044959
15220052284
15220058082
15220063880
15220069495
15220073951
15220079994
15220085731
15220091956
15220096900
15220103858
15220108558
15220115089
15220121741
15220127723
15220132239
15220138465
15220145362
15220150916
15220155677
15220160987
15220165748
15220171607
15220176429
15220182899
15220188209
15220193885
15220198829
15220205665
15220211036
15220215674
15220220618
15220226966
15220233008
15220238501
15220244117
15220250037
15220255347
15220260291
15220265662
15220272315
15220276465
15220282935
15220289160
15220293616
15220299048
15220305152
15220309302
15220316443
15220323584
15220328528
15220334509
15220340613
15220345862
15220350318
15220356482
15220363379
15220368262
15220374915
15220380530
15220385535
15220392859
15220398169
15220405066
15220410864
15220416907
15220421667
15220428870
15220435095
15220440893
15220447058
15220453284
15220459631
15220465857
15220472082
15220477820
15220484045
15220489905
15220496191
15220503576
15220508215
15220515356
15220519629
15220527319
15220533484
15220537695
15220544409
15220551001
15220558264
15220563879
15220570471
15220575537
15220583105
15220588598
15220596289
15220603857
15220609533
15220615637
15220620886
15220626013
15220633154
15220639013
15220645605
15220651708
15220656042
15220661413
15220667089
15220672460
15220678503
15220682714
15220689123
15220694616
15220700292
15220706091
15220713232
15220717443
15220725011
15220729040
15220737340
15220741430
15220749731
15220753454
15220761388
15220767003
15220771520
15220775793
15220784459
15220790319
15220796972
15220802282
15220808935
15220813573
15220820226
15220825963
15220832616
15220838414
15220845006
15220851476
15220856603
15220862767
15220868077
15220876256
15220882726
15220888219
15220895726
15220902013
15220908116
15220913854
15220921483
15220926854
15220932897
15220940160
15220945958
15220952367
15220958165
15220964513
15220968785
15220975926
15220982823
15220990331
15220994786
15221001866
15221007848
15221015294
15221020116
15221026891
15221033971
15221040562
15221045262
15221052769
15221058934
15221065343
15221071568
15221077733
15221083836
15221090367
15221096898
15221102025
15221107945
15221114537
15221119847
15221126927
15221132664
15221139439
15221145909
15221151036
15221156712
15221161961
15221170262
15221175389
15221182408
15221187962
15221193882
15221199559
15221205662
15221211460
15221217625
15221223545
15221230137
15221236057
15221242649
15221248264
15221253574
15221259312
15221265476
15221271519
15221277317
15221283299
15221290134
15221296238
15221302036
15221308262
15221315891
15221322666
15221328770
15221333103
15221339817
15221345920
15221351841
15221356235
15221363437
15221370334
15221374912
15221381870
15221388950
15221394871
15221399753
15221404087
15221413425
15221419834
15221426853
15221433262
15221438144
15221445835
15221452793
15221458042
15221465244
15221472507
15221478061
15221484531
15221489841
15221497653
15221502902
15221510166
15221516086
15221522678
15221528903
15221535312
15221541416
15221548251
15221554294
15221559787
15221566013
15221572910
15221579013
15221586154
15221591892
15221598788
15221604648
15221611118
15221617282
15221623630
15221628879
15221635287
15221640964
15221645541
15221653354
15221658542
15221665317
15221670321
15221676181
15221682651
15221688876
15221694003
15221701205
15221706454
15221713229
15221718234
15221725741
15221731601
15221736972
15221742648
15221749484
15221755343
15221760470
15221766330
15221772799
15221778475
15221785311
15221791110
15221797274
15221803195
15221809970
15221814181
15221821627
15221825961
15221832858
15221839449
15221845736
15221851656
15221856173
15221861727
15221867648
15221873324
15221880404
15221887118
15221893649
15221898837
15221905489
15221911471
15221916109
15221923434
15221930392
15221936373
15221943575
15221949496
15221955172
15221963167
15221968844
15221976473
15221982149
15221990023
15221995760
15222001070
15222006197
15222014010
15222019808
15222024935
15222030123
15222036531
15222043978
15222050264
15222056429
15222062044
15222068209
15222075472
15222081697
15222088167
15222094393
15222099886
15222105806
15222111910
15222117769
15222123750
15222129549
15222136385
15222142000
15222148531
15222152803
15222159639
15222165315
15222171968
15222178133
15222184480
15222190828
15222195406
15222202913
15222207552
15222214876
15222219636
15222227449
15222232088
15222238679
15222245210
15222251253
15222256563
15222263399
15222268526
15222274690
15222281160
15222286531
15222292940
15222299104
15222304109
15222311982
15222317048
15222324312
15222330659
15222337617
15222343904
15222349275
15222355134
15222362092
15222367890
15222374177
15222380036
15222386262
15222392549
15222398652
15222404511
15222410554
15222414887
15222421662
15222428132
15222434236
15222440095
15222446137
15222452546
15222457551
15222464997
15222471772
15222477937
15222482575
15222489106
15222495820
15222501801
15222506989
15222513886
15222519196
15222525971
15222531037
15222538056
15222543183
15222550324
15222555573
15222562165
15222567597
15222575409
15222580903
15222588166
15222594330
15222601349
15222607575
15222614472
15222620758
15222626252
15222631928
15222638581
15222644623
15222650422
15222656586
15222663849
15222669770
15222677094
15222683869
15222690460
15222695099
15222702362
15222708649
15222715912
15222722992
15222729645
15222734528
15222742035
15222748932
15222755524
15222762421
15222769135
15222775238
15222779816
15222787567
15222793121
15222800385
15222805878
15222813385
15222818939
15222826263
15222831940
15222839691
15222845184
15222851776
15222857391
15222865204
15222870331
15222877167
15222882110
15222889190
15222894989
15222901458
15222907257
15222913665
15222919464
15222924835
15222930694
15222936920
15222942840
15222949371
15222955169
15222961395
15222967376
15222974151
15222980377
15222986724
15222991180
15222997405
15223003021
15223010284
15223017120
15223022308
15223029632
15223036773
15223043182
15223048309
15223055938
15223062774
15223068755
15223073882
15223080474
15223085601
15223092254
15223099029
15223105254
15223111053
15223118255
15223123443
15223129851
15223134917
15223141143
15223146087
15223153106
15223158172
15223164336
15223169402
15223176482
15223181548
15223188506
15223193511
15223201079
15223206939
15223212249
15223218047
15223225310
15223231047
15223236174
15223241851
15223248137
15223255461
15223260222
15223266021
15223272979
15223277434
15223285063
15223291289
15223297393
15223303557
15223308074
15223314849
15223321013
15223327056
15223333281
15223340056
15223347075
15223353117
15223357817
15223363921
15223370451
15223377043
15223382109
15223387663
15223394621
15223399870
15223406401
15223413176
15223418303
15223425566
15223431425
15223439055
15223444670
15223450285
15223457548
15223462980
15223468840
15223474638
15223480314
15223486906
15223492827
15223499296
15223503752
15223510344
15223516203
15223523710
15223528593
15223536711
15223543303
15223549406
15223553740
15223561125
15223565397
15223572904
15223577116
15223584013
15223590483
15223595182
15223601469
15223607572
15223614652
15223619230
15223626371
15223631010
15223638822
15223645902
15223651823
15223656828
15223663541
15223670438
15223676420
15223683561
15223689787
15223695402
15223703519
15223709196
15223716032
15223721586
15223729032
15223734647
15223740995
15223748258
15223753690
15223758817
15223765836
15223771512
15223777921
15223784208
15223791227
15223797452
15223803434
15223809598
15223816251
15223822416
15223829007
15223835599
15223842618
15223849576
15223854215
15223859891
15223866788
15223871244
15223878141
15223884732
15223890836
15223895291
15223902310
15223908780
15223914762
15223921597
15223926358
15223933377
15223940091
15223946011
15223950467
15223954923
15223964139
15223970792
15223976651
15223982510
15223989102
15223995389
15224000333
15224006802
15224011685
15224017789
15224025052
15224031033
15224036832
15224042386
15224047513
15224054165
15224061429
15224067044
15224073025
15224079617
15224085415
15224091397
15224096890
15224102322
15224107998
15224115384
15224119717
15224126370
15224132229
15224138577
15224144375
15224150112
15224155850
15224162564
15224167385
15224175198
15224179837
15224187344
15224194241
15224200649
15224205227
15224212673
15224219143
15224225674
15224232449
15224239468
15224246060
15224251125
15224258389
15224265652
15224271694
15224276699
15224283535
15224288601
15224294582
15224301113
15224307888
15224313625
15224321499
15224328396
15224335781
15224341030
15224348781
15224355800
15224362331
15224367702
15224374965
15224380214
15224387233
15224393642
15224397976
15224404995
15224412197
15224418483
15224424770
15224431850
15224438381
15224443752
15224450466
15224456813
15224462490
15224469081
15224475490
15224482814
15224488552
15224493923
15224500575
15224507900
15224514736
15224520412
15224526637
15224531093
15224538051
15224543910
15224550807
15224557460
15224563258
15224568141
15224574306
15224580226
15224587306
15224594325
15224600246
15224605800
15224612208
15224617030
15224625331
15224631007
15224637111
15224644191
15224649867
15224656337
15224660670
15224667689
15224674525
15224681300
15224688685
15224692958
15224701014
15224707179
15224713588
15224719447
15224726222
15224730861
15224736232
15224743312
15224747340
15224754298
15224763514
15224769313
15224774867
15224783168
15224791224
15224798915
15224806727
15224812586
15224818018
15224823756
15224830531
15224835108
15224841883
15224849085
15224855494
15224860621
15224866908
15224874171
15224882166
15224889552
15224895960
15224903223
15224909876
15224914027
15224921290
15224925562
15224932337
15224939722
15224944910
15224951685
15224956446
15224963221
15224969080
15224974268
15224981104
15224986963
15224993006
15224999842
15225004053
15225011011
15225017176
15225022974
15225030115
15225036280
15225041712
15225048059
15225052210
15225059351
15225064600
15225070764
15225078211
15225083399
15225090418
15225095301
15225101953
15225106714
15225112818
15225120142
15225126123
15225131433
15225137171
15225143762
15225147974
15225154932
15225162439
15225168665
15225173669
15225181055
15225186304
15225192163
15225197229
15225203638
15225209802
15225216211
15225221460
15225227136
15225233972
15225240259
15225246118
15225251550
15225258569
15225265161
15225270044
15225275415
15225281091
15225286340
15225293725
15225301538
15225306237
15225312341
15225318444
15225323938
15225330041
15225335839
15225343225
15225348901
15225354028
15225359948
15225365258
15225370751
15225376306
15225381982
15225389306
15225394311
15225401208
15225405847
15225412377
15225417016
15225424157
15225429650
15225435449
15225440759
15225447778
15225453271
15225458947
15225465173
15225470239
15225477196
15225481774
15225488183
15225494653
15225499840
15225505334
15225513390
15225519311
15225525353
15225531823
15225538109
15225543664
15225547875
15225555016
15225563256
15225568810
15225574242
15225580834
15225586266
15225592736
15225598656
15225605797
15225611779
15225617760
15225623619
15225628319
15225634667
15225641625
15225647728
15225653221
15225660057
15225666527
15225670861
15225678185
15225682579
15225689232
15225696312
15225703087
15225708519
15225714073
15225720909
15225725792
15225731651
15225737877
15225745262
15225749657
15225755943
15225761742
15225768150
15225772789
15225778954
15225785973
15225792381
15225797813
15225802879
15225808128
15225815391
15225819359
15225827782
15225833458
15225840599
15225845238
15225851890
15225857445
15225862877
15225869529
15225875023
15225881126
15225887657
15225893577
15225899376
15225905357
15225911399
15225917015
15225923912
15225930626
15225936180
15225941429
15225947349
15225952659
15225959373
15225965904
15225972251
15225977012
15225982994
15225989097
15225993736
15226000999
15226007102
15226014060
15226019309
15226025291
15226029380
15226037437
15226041465
15226048179
15226055259
15226061424
15226067527
15226072227
15226078696
15226083396
15226089683
15226097312
15226103660
15226107688
15226114707
15226121726
15226126060
15226132773
15226139060
15226146018
15226150657
15226157554
15226162803
15226168784
15226173911
15226180625
15226187339
15226191672
15226198569
15226204429
15226209983
15226214804
15226222373
15226228293
15226234336
15226239585
15226245627
15226250754
15226256797
15226262046
15226267966
15226276084
15226281088
15226287192
15226293357
15226298789
15226305625
15226312522
15226318686
15226324729
15226330954
15226336508
15226342673
15226346945
15226353293
15226359702
15226366232
15226370932
15226377707
15226382956
15226388510
15226393759
15226401083
15226408713
15226413290
15226419577
15226425558
15226431357
15226437643
15226443503
15226451925
15226459067
15226464682
15226471396
15226477072
15226483358
15226489645
15226494467
15226501486
15226506430
15226512228
15226518881
15226523642
15226528524
15226536337
15226542623
15226548239
15226552572
15226560263
15226565084
15226572286
15226578573
15226582968
15226589376
15226595541
15226600912
15226607260
15226613912
15226619589
15226626119
15226631979
15226637899
15226644003
15226650533
15226656088
15226662008
15226668966
15226674154
15226680990
15226687215
15226692586
15226696920
15226704122
15226709127
15226716390
15226722799
15226728353
15226733724
15226739461
15226745016
15226750753
15226756124
15226762227
15226768209
15226774801
15226781026
15226787740
15226793050
15226799215
15226804769
15226810445
15226816488
15226824178
15226829000
15226835958
15226840535
15226845418
15226853109
15226859029
15226864949
15226870626
15226876241
15226883199
15226888265
15226896016
15226901570
15226908040
15226915242
15226919942
15226925313
15226931294
15226937093
15226943684
15226949178
15226955159
15226961690
15226968770
15226974019
15226980305
15226985371
15226990437
15226997090
15227002095
15227009541
15227015950
15227021931
15227027547
15227034566
15227041951
15227046406
15227053731
15227058064
15227064412
15227068867
15227075825
15227081807
15227089009
15227093953
15227099751
15227106526
15227111775
15227117451
15227124165
15227129780
15227135640
15227141682
15227145954
15227153034
15227157368
15227164082
15227169453
15227175862
15227182759
15227188618
15227194294
15227200886
15227205525
15227212483
15227218708
15227223042
15227230244
15227235371
15227243977
15227248737
15227255390
15227261433
15227268330
15227273762
15227279987
15227285969
15227292499
15227297382
15227304279
15227310627
15227315082
15227321796
15227326191
15227333271
15227338703
15227346638
15227352802
15227358295
15227363971
15227371479
15227377460
15227382465
15227389362
15227394977
15227400409
15227406269
15227412128
15227417194
15227425006
15227429462
15227436115
15227442768
15227449420
15227455036
15227461200
15227466449
15227473407
15227478839
15227484943
15227490619
15227496478
15227502704
15227507648
15227516010
15227520709
15227526752
15227534015
15227539630
15227544635
15227551959
15227557269
15227562885
15227568500
15227575763
15227581927
15227586505
15227591937
15227598590
15227602679
15227609881
15227616107
15227623248
15227629169
15227634051
15227639850
15227647540
15227651935
15227658587
15227665240
15227670123
15227676715
15227682269
15227687945
15227693988
15227700457
15227706805
15227712054
15227718585
15227723651
15227730181
15227736163
15227742999
15227747149
15227753924
15227758624
15227765277
15227770770
15227776690
15227781634
15227789141
15227794818
15227802264
15227807330
15227813494
15227820208
15227824786
15227830706
15227836810
15227843768
15227848589
15227855120
15227861590
15227866900
15227872332
15227878497
15227884478
15227890337
15227897173
15227901446
15227907427
15227913775
15227919695
15227926287
15227933245
15227938006
15227944842
15227950701
15227955950
15227962114
15227968096
15227975847
15227980547
15227986834
15227992388
15227998796
15228003984
15228010881
15228016314
15228021807
15228027300
15228032305
15228039263
15228044634
15228049761
15228056780
15228063616
15228069536
15228074114
15228080461
15228087297
15228093706
15228099321
15228104692
15228111467
15228115923
15228121172
15228128557
15228134721
15228140093
15228147173
15228153459
15228159380
15228165788
15228171587
15228177202
15228183549
15228188188
15228195756
15228201616
15228207109
15228212907
15228218950
15228225175
15228229875
15228235612
15228242326
15228249040
15228254228
15228260698
15228267106
15228271684
15228279435
15228285844
15228290971
15228298722
15228304155
15228310136
15228314958
15228321427
15228328202
15228333818
15228341752
15228347917
15228353288
15228360490
15228366593
15228372087
15228377641
15228384904
15228391557
15228397904
15228401811
15228409562
15228415605
15228421159
15228427079
15228433671
15228439774
15228445451
15228450700
15228455094
15228459916
15228465958
15228471574
15228477982
15228484513
15228490678
15228496781
15228502579
15228508683
15228515031
15228521256
15228527543
15228534134
15228539261
15228545853
15228552384
15228558182
15228562516
15228568741
15228573258
15228580399
15228584855
15228591080
15228595536
15228602311
15228607376
15228612442
15228618973
15228624100
15228630570
15228636124
15228641373
15228648270
15228653214
15228660172
15228665848
15228671402
15228675003
15228681839
15228687332
15228692276
15228697098
15228703262
15228709244
15228714981
15228720596
15228726456
15228732010
15228737259
15228742813
15228749405
15228754105
15228761368
15228767532
15228773453
15228779068
15228785904
15228790115
15228797989
15228802322
15228809769
15228816543
15228821182
15228827652
15228834244
15228840347
15228844986
15228852188
15228857193
15228864944
15228869827
15228876114
15228882949
15228889236
15228896377
15228901321
15228908157
15228914260
15228921218
15228927322
15228932632
15228940017
15228945449
15228952468
15228958084
15228964675
15228969741
15228976516
15228981582
15228987502
15228992751
15229000320
15229005386
15229012100
15229017898
15229023940
15229029678
15229035781
15229041518
15229047744
15229053481
15229059890
15229065749
15229072707
15229078933
15229084304
15229090407
15229096816
15229102981
15229109450
15229115615
15229122512
15229128493
15229135879
15229141860
15229147780
15229152114
15229158950
15229163283
15229170730
15229176894
15229182937
15229189956
15229194899
15229202407
15229209426
15229215407
15229220229
15229226454
15229232619
15229238784
15229245314
15229251174
15229257643
15229262953
15229269545
15229275282
15229279860
15229287673
15229292983
15229298903
15229305617
15229312026
15229317458
15229323866
15229328932
15229335463
15229342604
15229347609
15229352736
15229359877
15229365065
15229371107
15229376173
15229382826
15229388014
15229395582
15229400648
15229406630
15229413893
15229419935
15229425856
15229431227
15229437330
15229443983
15229449659
15229455275
15229461073
15229468580
15229473036
15229479872
15229485731
15229491591
15229497267
15229504103
15229508436
15229516249
15229520643
15229527235
15229534254
15229538954
15229545423
15229551344
15229555677
15229563795
15229568006
15229575575
15229579908
15229587110
15229594679
15229599622
15229606214
15229612623
15229619764
15229624403
15229630811
15229637220
15229642957
15229649427
15229655408
15229660657
15229667371
15229672498
15229680494
15229686353
15229692396
15229698194
15229704297
15229710340
15229715955
15229723035
15229728711
15229734449
15229739637
15229746778
15229752210
15229758375
15229765821
15229770154
15229777601
15229783765
15229788343
15229794141
15229800245
15229805982
15229812207
15229816541
15229824475
15229828809
15229836194
15229840528
15229847852
15229853955
15229859998
15229866651
15229871533
15229879041
15229884046
15229892163
15229897168
15229904431
15229909253
15229916028
15229922620
15229928662
15229933911
15229939282
15229945996
15229952039
15229958630
15229964673
15229969861
15229975415
15229981885
15229987256
15229994092
15230000195
15230005322
15230013806
15230020398
15230027051
15230033581
15230039807
15230045727
15230052014
15230057873
15230064038
15230069775
15230075146
15230080883
15230087719
15230093884
15230100293
15230104504
15230112255
15230116528
15230124035
15230129772
15230136792
15230141247
15230148266
15230154980
15230159680
15230165844
15230171948
15230177868
15230183911
15230190685
15230195202
15230201733
15230207714
15230214062
15230220532
15230225781
15230232189
15230238842
15230244579
15230251415
15230258373
15230263622
15230270519
15230277233
15230282787
15230289318
15230294811
15230302563
15230308239
15230315868
15230321483
15230329113
15230334789
15230340954
15230348095
15230353527
15230359325
15230365368
15230371166
15230377697
15230383495
15230389965
15230395885
15230401195
15230407238
15230413524
15230419261
15230425426
15230431530
15230437572
15230443370
15230449962
15230456310
15230463146
15230467967
15230474986
15230481395
15230488353
15230494640
15230501537
15230507762
15230514171
15230520519
15230527110
15230531688
15230539439
15230546092
15230552501
15230558971
15230563548
15230569347
15230576366
15230583324
15230590037
15230593883
15230602122
15230607371
15230613719
15230618907
15230625377
15230630626
15230637217
15230643260
15230648753
15230656077
15230661448
15230667979
15230673167
15230680003
15230685130
15230692210
15230697154
15230703318
15230708506
15230715708
15230721568
15230727488
15230733226
15230740061
15230745921
15230751963
15230757762
15230764109
15230770335
15230775828
15230781687
15230788523
15230794138
15230799387
15230805064
15230812876
15230818736
15230823435
15230829234
15230836192
15230841990
15230848093
15230853892
15230860056
15230866221
15230872752
15230879099
15230883982
15230891184
15230896006
15230902964
15230909861
15230915720
15230920908
15230928293
15230933237
15230939463
15230945139
15230954172
15230960581
15230966929
15230972727
15230978098
15230984446
15230991709
15230998056
15231005381
15231011911
15231016611
15231024240
15231028879
15231035288
15231041330
15231047373
15231053903
15231059274
15231065744
15231071420
15231076120
15231083444
15231088083
15231095895
15231101572
15231108957
15231116159
15231122507
15231128183
15231134592
15231141550
15231147409
15231152963
15231161020
15231166574
15231173898
15231179391
15231186838
15231192331
15231198495
15231203744
15231210336
15231215463
15231222970
15231228097
15231234384
15231239389
15231246469
15231252450
15231258920
15231264779
15231271005
15231276925
15231283334
15231289132
15231295907
15231301767
15231307870
15231314096
15231320748
15231327157
15231332101
15231338510
15231346444
15231353463
15231359994
15231364755
15231372079
15231378304
15231384774
15231390878
15231397164
15231404549
15231411569
15231418343
15231423348
15231429391
15231435921
15231441842
15231447335
15231454110
15231461373
15231466988
15231472054
15231478646
15231483651
15231490731
15231496468
15231501290
15231508553
15231513253
15231520455
15231526314
15231532418
15231537789
15231545235
15231551339
15231557076
15231562020
15231567818
15231574288
15231580330
15231586800
15231592537
15231598885
15231605416
15231609993
15231615792
15231621895
15231627632
15231635262
15231641609
15231646370
15231654000
15231658882
15231666329
15231671272
15231678169
15231685188
15231691597
15231696419
15231704231
15231709480
15231715523
15231722420
15231728462
15231733894
15231740974
15231746162
15231751961
15231758491
15231764107
15231769173
15231776070
15231781563
15231788826
15231794014
15231800422
15231805488
15231812568
15231817695
15231825020
15231831184
15231837227
15231842354
15231849434
15231855232
15231861885
15231867744
15231872627
15231879951
15231885017
15231890876
15231897407
15231903205
15231909553
15231915229
15231921272
15231929267
15231934394
15231940986
15231947639
15231953803
15231960395
15231966010
15231972785
15231978584
15231985664
15231992439
15231997871
15232003913
15232010688
15232017890
15232022834
15232029243
15232034431
15232041816
15232047675
15232053474
15232059272
15232065986
15232072028
15232078010
15232084296
15232090888
15232096869
15232103705
15232109687
15232116584
15232121528
15232128486
15232134772
15232142096
15232148383
15232154853
15232161322
15232167792
15232172248
15232179084
15232184882
15232191230
15232197028
15232203070
15232209174
15232215460
15232221625
15232227790
15232234076
15232238776
15232246344
15232251044
15232258307
15232265143
15232271185
15232275702
15232283026
15232287909
15232295355
15232302741
15232309210
15232315070
15232322211
15232327887
15232334479
15232341376
15232346320
15232353339
15232360419
15232366827
15232372443
15232378485
15232385748
15232392279
15232397284
15232403570
15232411017
15232416510
15232423956
15232428167
15232434576
15232441595
15232447760
15232453192
15232459967
15232465155
15232471807
15232477057
15232484014
15232490362
15232496893
15232501654
15232508612
15232513861
15232520513
15232525396
15232531927
15232539190
15232544073
15232550482
15232557012
15232562750
15232567999
15232573736
15232580389
15232586126
15232591131
15232597845
15232602422
15232608465
15232615179
15232621160
15232626348
15232632818
15232638616
15232643560
15232648138
15232655584
15232661382
15232667608
15232671087
15232677434
15232684331
15232688787
15232696416
15232702276
15232707708
15232712896
15232719549
15232725408
15232729497
15232735967
15232743291
15232748357
15232753667
15232759832
15232765203
15232770635
15232776982
15232783208
15232788762
15232795354
15232800176
15232805486
15232811833
15232818486
15232825566
15232831792
15232838201
15232842961
15232850591
15232855962
15232861577
15232868596
15232875920
15232882024
15232888921
15232896062
15232902226
15232909734
15232915837
15232925114
15232931462
15232939030
15232944707
15232950810
15232956425
15232963200
15232970708
15232978581
15232984074
15232991154
15232998173
15233005681
15233012394
15233019169
15233024418
15233031926
15233037541
15233045598
15233052128
15233059819
15233065983
15233073368
15233080021
15233087529
15233093510
15233100956
15233108647
15233115177
15233121525
15233129093
15233134342
15233140324
15233146610
15233154057
15233160832
15233168583
15233173893
15233180973
15233186100
15233192020
15233199040
15233204899
15233211308
15233218937
15233226627
15233233280
15233239933
15233248051
15233254459
15233260380
15233267460
15233274357
15233280582
15233287968
15233295048
15233301456
15233308841
15233316471
15233322819
15233327701
15233333988
15233338932
15233344730
15233351627
15233358036
15233365177
15233371708
15233377811
15233382999
15233389103
15233396427
15233402225
15233408756
15233415592
15233421085
15233427310
15233434329
15233439517
15233447452
15233451785
15233460330
15233465518
15233472415
15233478458
15233484744
15233490909
15233497928
15233504947
15233509402
15233516483
15233524356
15233529605
15233536685
15233542422
15233548953
15233554568
15233561709
15233568973
15233576053
15233582889
15233588626
15233596255
15233602054
15233607730
15233616153
15233623904
15233628726
15233638125
15233644290
15233650271
15233657595
15233664553
15233670108
15233677615
15233684390
15233688906
15233695254
15233701602
15233706057
15233712527
15233718875
15233725100
15233731570
15233737612
15233743960
15233748721
15233754641
15233760684
15233767520
15233772585
15233777956
15233784548
15233789431
15233796206
15233802065
15233806887
15233813540
15233820254
15233826601
15233831667
15233837710
15233843081
15233848818
15233855044
15233860720
15233866762
15233872683
15233879091
15233884707
15233890810
15233897036
15233903444
15233908755
15233914614
15233921511
15233926699
15233932375
15233939882
15233946108
15233950502
15233956484
15233962160
15233967958
15233974916
15233980104
15233985598
15233992861
15233998110
15234003603
15234009401
15234015749
15234021974
15234026735
15234033998
15234040956
15234047487
15234052858
15234058290
15234064577
15234070009
15234076296
15234082948
15234088503
15234094728
15234099977
15234107668
15234113771
15234119630
15234125734
15234133119
15234139284
15234145021
15234151186
15234156801
15234162050
15234169130
15234174013
15234181032
15234185731
15234193422
15234199830
15234205018
15234211305
15234217775
15234224428
15234230714
15234237184
15234242006
15234248475
15234253236
15234259706
15234266481
15234273256
15234278505
15234284547
15234289796
15234296815
15234302003
15234308656
15234314149
15234318666
15234323609
15234330262
15234335633
15234341676
15234347169
15234352235
15234358094
15234363038
15234370301
15234375855
15234381837
15234387391
15234393250
15234400513
15234407166
15234412293
15234419190
15234424012
15234428101
15234436951
15234441224
15234450501
15234456666
15234461426
15234468629
15234473511
15234479981
15234484864
15234490052
15234497193
15234503235
15234508484
15234514527
15234519532
15234526368
15234531556
15234538758
15234545105
15234551941
15234558106
15234563111
15234568970
15234574585
15234580323
15234586426
15234592102
15234597901
15234603821
15234610901
15234615784
15234622864
15234627503
15234634705
15234641663
15234646546
15234652954
15234659241
15234663513
15234671936
15234675842
15234683838
15234689392
15234695984
15234701477
15234706299
15234710388
15234719910
15234726440
15234732361
15234739075
15234744690
15234750915
15234756164
15234762268
15234769714
15234775513
15234782409
15234789123
15234794922
15234800476
15234806274
15234811218
15234816833
15234823425
15234828918
15234834533
15234838684
15234845337
15234849731
15234856933
15234863586
15234868713
15234876342
15234883178
15234887756
15234894043
15234899536
15234905700
15234911071
15234916931
15234922485
15234927429
15234933471
15234938537
15234945800
15234950988
15234958740
15234964965
15234970519
15234976440
15234982909
15234988769
15234994567
15235000427
15235006286
15235012328
15235018920
15235023559
15235030456
15235036681
15235043517
15235048156
15235055480
15235062743
15235067199
15235073241
15235079406
15235084777
15235090331
15235096251
15235103087
15235109313
15235114623
15235120360
15235125487
15235131652
15235136962
15235144347
15235149718
15235155028
15235160338
15235165221
15235170104
15235177001
15235182372
15235187743
15235194579
15235200438
15235206725
15235212584
15235218627
15235224913
15235231017
15235238219
15235242980
15235250060
15235254820
15235261778
15235266234
15235274107
15235278868
15235286925
15235292662
15235297118
15235303526
15235310118
15235317198
15235322325
15235329100
15235336668
15235341917
15235348204
15235353026
15235359373
15235364317
15235370482
15235375975
15235381346
15235386900
15235391783
15235398863
15235404844
15235409727
15235415037
15235422484
15235428343
15235434752
15235440428
15235445799
15235451353
15235456358
15235461851
15235468260
15235472410
15235478880
15235484739
15235490538
15235496458
15235501402
15235507383
15235513365
15235519041
15235524717
15235530149
15235536314
15235540647
15235546995
15235552122
15235558470
15235563596
15235568479
15235575376
15235580381
15235586057
15235591184
15235598020
15235603147
15235608701
15235613645
15235620115
15235624998
15235630735
15235635618
15235643186
15235647031
15235654478
15235660581
15235665708
15235671384
15235677549
15235683103
15235689573
15235694211
15235700559
15235706418
15235713254
15235717771
15235725400
15235730344
15235738828
15235745115
15235750119
15235756833
15235763425
15235768308
15235775388
15235781736
15235787473
15235792966
15235797971
15235804868
15235810178
15235817014
15235822507
15235829892
15235836118
15235841672
15235847226
15235854245
15235860471
15235866879
15235873044
15235880002
15235886105
15235891538
15235898496
15235903622
15235909238
15235915097
15235920712
15235927121
15235933224
15235938107
15235945370
15235950436
15235956601
15235963009
15235969418
15235975888
15235981808
15235988400
15235994015
15235998715
15236005978
15236011044
15236016659
15236023922
15236030209
15236035763
15236041867
15236047421
15236054928
15236060604
15236066708
15236072934
15236080258
15236085568
15236091976
15236097225
15236103451
15236108578
15236116024
15236121762
15236127438
15236132748
15236140682
15236146725
15236152706
15236158810
15236165646
15236171322
15236175655
15236179745
15236187191
15236191341
15236198360
15236204098
15236208614
15236215633
15236220638
15236226864
15236233578
15236239803
15236245113
15236251461
15236256893
15236263241
15236268123
15236273678
15236278499
15236284603
15236289547
15236296688
15236302364
15236307125
15236311886
15236318599
15236324703
15236330990
15236336910
15236343258
15236348751
15236353633
15236359188
15236365535
15236369808
15236375789
15236381343
15236387630
15236394161
15236400203
15236404537
15236411251
15236417049
15236421749
15236428157
15236435359
15236441585
15236446590
15236454158
15236459834
15236465877
15236470882
15236477046
15236482845
15236488765
15236493709
15236500606
15236506160
15236511897
15236517879
15236523677
15236529719
15236536128
15236540645
15236547298
15236551387
15236557918
15236564082
15236570247
15236576167
15236583003
15236588801
15236593684
15236600520
15236607173
15236612727
15236618403
15236624202
15236629390
15236636653
15236641963
15236647822
15236653010
15236660151
15236665950
15236673274
15236679438
15236685481
15236691584
15236696894
15236702204
15236710200
15236716242
15236722529
15236727839
15236734004
15236738398
15236744929
15236750910
15236757563
15236763850
15236770258
15236776606
15236781733
15236788142
15236794550
15236800959
15236807917
15236813715
15236820063
15236825373
15236830317
15236837458
15236842829
15236848383
15236853876
15236860834
15236865961
15236871882
15236877070
15236884272
15236890070
15236895380
15236902216
15236908564
15236914667
15236921381
15236927362
15236933771
15236938105
15236944819
15236950983
15236956598
15236960810
15236967035
15236971247
15236978327
15236983942
15236990229
15236996027
15237000849
15237007807
15237014582
15237020319
15237027216
15237033563
15237038324
15237043268
15237049310
15237053827
15237060053
15237065668
15237070551
15237076227
15237081781
15237089716
15237095697
15237100885
15237106073
15237113885
15237119928
15237125543
15237131769
15237138055
15237143548
15237149225
15237154657
15237159906
15237165704
15237172845
15237177972
15237185480
15237192315
15237197381
15237203668
15237210199
15237216607
15237223382
15237227838
15237236322
15237242913
15237247430
15237253228
15237259393
15237264215
15237268853
15237275445
15237279840
15237286920
15237291986
15237297479
15237304315
15237309625
15237316094
15237322381
15237327569
15237334344
15237339410
15237346795
15237351800
15237358514
15237364129
15237369378
15237374932
15237381402
15237387078
15237391961
15237397637
15237404168
15237410393
15237416558
15237423516
15237428521
15237434563
15237440850
15237445061
15237452386
15237458855
15237463494
15237470574
15237475274
15237482842
15237487786
15237494744
15237501824
15237508233
15237513115
15237519707
15237523308
15237530388
15237535942
15237541008
15237546135
15237553398
15237559441
15237564934
15237570977
15237576775
15237582817
15237589714
15237595207
15237601006
15237606682
15237611260
15237616875
15237622978
15237628838
15237634819
15237640740
15237646172
15237652275
15237658684
15237663506
15237671013
15237675896
15237682915
15237689384
15237696342
15237702446
15237707268
15237713860
15237720756
15237726860
15237732841
15237739372
15237746025
15237750969
15237757927
15237763359
15237768730
15237775444
15237781547
15237788444
15237793876
15237800163
15237805595
15237813041
15237818962
15237824516
15237830070
15237834953
15237840385
15237845756
15237851188
15237857292
15237863456
15237869926
15237876396
15237882926
15237887809
15237894523
15237900566
15237906791
15237913505
15237919303
15237927055
15237933341
15237940116
15237945793
15237951774
15237959220
15237966239
15237971915
15237979179
15237984184
15237991264
15237997855
15238002067
15238009208
15238015983
15238022575
15238029044
15238035880
15238042228
15238047721
15238053885
15238061515
15238067924
15238073112
15238079093
15238085563
15238090873
15238097831
15238104422
15238110770
15238116263
15238122306
15238128226
15238133048
15238139212
15238146720
15238152640
15238158133
15238163504
15238169791
15238175589
15238181937
15238189383
15238195975
15238202628
15238206900
15238213736
15238220328
15238225882
15238232230
15238238699
15238246268
15238250662
15238258475
15238265738
15238273367
15238280142
15238285880
15238291495
15238299429
15238307303
15238314688
15238320853
15238328299
15238335623
15238341421
15238347708
15238354056
15238360953
15238367422
15238374197
15238379202
15238385733
15238391348
15238397635
15238404593
15238411123
15238417959
15238423574
15238430777
15238437368
15238443594
15238450125
15238455130
15238461904
15238467092
15238472769
15238479849
15238486013
15238491690
15238496267
15238502188
15238509268
15238515554
15238522329
15238528860
15238534597
15238542227
15238546499
15238552175
15238559499
15238565969
15238573232
15238577932
15238584890
15238590261
15238596853
15238604116
15238610891
15238616689
15238624441
15238632375
15238639028
15238645925
15238653310
15238659048
15238665273
15238672109
15238678518
15238686147
15238692495
15238699880
15238705922
15238712270
15238718313
15238724904
15238731862
15238738637
15238745534
15238752858
15238758962
15238766286
15238771169
15238777333
15238784047
15238788259
15238795095
15238800527
15238807363
15238812978
15238818715
15238823476
15238829823
15238835317
15238841969
15238848012
15238855519
15238860524
15238867604
15238873036
15238879445
15238885854
15238892567
15238898488
15238906300
15238912892
15238918263
15238926320
15238932545
15238938588
15238945180
15238951344
15238958058
15238963612
15238971119
15238977284
15238984791
15238990040
15238996998
15239003529
15239011586
15239016468
15239023854
15239030262
15239037342
15239043263
15239048695
15239055104
15239060780
15239066151
15239071522
15239077259
15239082814
15239089955
15239094471
15239101490
15239106312
15239112049
15239118580
15239124073
15239130299
15239136829
15239142017
15239148487
15239154530
15239159657
15239166004
15239172108
15239178455
15239184864
15239190540
15239196278
15239203419
15239208607
15239213795
15239220753
15239227039
15239233265
15239237415
15239243091
15239247425
15239254993
15239260608
15239265369
15239272083
15239277698
15239284717
15239290516
15239295459
15239302478
15239308277
15239314075
15239320057
15239324451
15239330433
15239336414
15239343067
15239349598
15239356433
15239362293
15239367542
15239373401
15239379993
15239387317
15239392139
15239398059
15239404773
15239411914
15239422107
15239434741
15239442371
15239446826
15239454883
15239461475
15239466235
15239474048
15239479114
15239485828
15239490894
15239497668
15239503039
15239510547
15239516101
15239522693
15239528064
15239535327
15239540759
15239547046
15239552051
15239557971
15239562854
15239569812
15239575854
15239582507
15239588427
15239593921
15239599841
15239605456
15239611377
15239617358
15239623217
15239629687
15239635302
15239642138
15239648120
15239652575
15239658129
15239664050
15239670275
15239676501
15239681079
15239688769
15239696337
15239701708
15239708544
15239713915
15239719836
15239725268
15239732470
15239738451
15239744006
15239749377
15239754626
15239760058
15239765795
15239771960
15239777880
15239784228
15239790697
15239796740
15239802721
15239808825
15239815295
15239820055
15239826647
15239832506
15239838366
15239844652
15239849169
15239855334
15239859728
15239865832
15239872912
15239878771
15239883593
15239889330
15239894396
15239900866
15239905748
15239912218
15239918566
15239924425
15239929735
15239937792
15239944078
15239950487
15239956835
15239962206
15239968248
15239973802
15239979418
15239986009
15239990282
15239996507
15240001940
15240008226
15240012743
15240020677
15240026964
15240031847
15240038561
15240044969
15240049303
15240058336
15240063829
15240068407
15240075304
15240082018
15240087267
15240093919
15240099474
15240106615
15240112169
15240117540
15240124986
15240130418
15240137193
15240142564
15240148790
15240154832
15240161973
15240167772
15240172532
15240177537
15240184373
15240190538
15240197374
15240203843
15240209947
15240216111
15240222642
15240228807
15240235521
15240240220
15240247544
15240252183
15240259141
15240263536
15240270127
15240274278
15240281358
15240287583
15240295091
15240301499
15240306138
15240313035
15240319566
15240325547
15240330369
15240336106
15240342576
15240348618
15240355210
15240359422
15240366074
15240371445
15240377000
15240383958
15240389573
15240394822
15240400254
15240406968
15240412583
15240418320
15240422410
15240429612
15240436021
15240441941
15240447617
15240453538
15240459092
15240463425
15240470139
15240478562
15240484726
15240490281
15240496201
15240501877
15240509751
15240515488
15240521408
15240528366
15240533127
15240540329
15240544846
15240551682
15240558152
15240564255
15240570481
15240577927
15240582749
15240588730
15240593796
15240601242
15240606674
15240612106
15240619736
15240624985
15240630478
15240636704
15240642258
15240648361
15240653915
15240660568
15240667465
15240671921
15240677353
15240683395
15240689560
15240694138
15240700302
15240706283
15240713241
15240718063
15240725693
15240731491
15240736435
15240743698
15240749618
15240756882
15240761520
15240766769
15240773849
15240777817
15240784469
15240789901
15240796066
15240803024
15240807480
15240813705
15240819931
15240825668
15240831955
15240837509
15240845260
15240850265
15240855148
15240861557
15240866256
15240873092
15240878463
15240884506
15240892135
15240896652
15240902145
15240908187
15240913375
15240919845
15240925399
15240932052
15240938827
15240943893
15240950118
15240954879
15240960616
15240967635
15240973251
15240979171
15240986068
15240992843
15240997787
15241003158
15241009627
15241014815
15241020492
15241028365
15241034225
15241038314
15241044906
15241051009
15241055343
15241062606
15241067244
15241074080
15241080733
15241086715
15241091475
15241098372
15241103194
15241108504
15241116683
15241123336
15241130416
15241138533
15241148177
15241157149
15241166304
15241173812
15241181563
15241189925
15241199690
15241207381
15241216231
15241227095
15241237898
15241245589
15241255660
15241264693
15241274519
15241285384
15241294661
15241302962
15241314680
15241323530
15241332930
15241344282
15241353865
15241361555
15241372664
15241382917
15241396223
15241408735
15241417402
15241435774
15241452864
15241464888
15241478803
15241492536
15241508039
15241523542
15241537519
15241558027
15241575910
15241593610
15241610639
15241626996
15241636823
15241646589
15241658979
15241678876
15241698591
15241717023
15241735334
15241747907
15241756085
15241764691
15241772931
15241782392
15241790692
15241799237
15241807965
15241817182
15241825848
15241835309
15241843976
15241852826
15241861310
15241870404
15241878461
15241887250
15241896710
15241903668
15241913006
15241919354
15241928998
15241938519
15241947125
15241954205
15241963055
15241972882
15241980450
15241991131
15241999798
15242008770
15242019635
15242032147
15242041912
15242050579
15242060711
15242070050
15242080975
15242090801
15242100567
15242110088
15242118939
15242128460
15242139202
15242148296
15242157696
15242166180
15242174969
15242182598
15242187603
15242195171
15242200786
15242207195
15242212932
15242220074
15242224651
15242231487
15242238933
15242243694
15242250530
15242256756
15242262920
15242267803
15242275127
15242281292
15242287517
15242292888
15242299419
15242303447
15242311626
15242316875
15242324810
15242330120
15242336834
15242341838
15242347454
15242354106
15242360271
15242365215
15242372234
15242378948
15242385112
15242389995
15242395732
15242401958
15242408305
15242415202
15242421855
15242427715
15242432536
15242438457
15242444621
15242450786
15242456279
15242462321
15242467998
15242474040
15242480083
15242486797
15242491862
15242498759
15242503947
15242510905
15242515788
15242521281
15242527995
15242534343
15242539531
15242546306
15242552653
15242558696
15242564677
15242570903
15242575908
15242582072
15242589763
15242598552
15242605510
15242612651
15242618632
15242626139
15242631633
15242638591
15242644267
15242650798
15242658122
15242663737
15242670085
15242677775
15242682231
15242689250
15242695841
15242702189
15242707865
15242713480
15242719584
15242726908
15242733439
15242738871
15242745219
15242750590
15242755534
15242762247
15242768839
15242774149
15242779581
15242786600
15242791544
15242798685
15242804362
15242811198
15242816996
15242821329
15242829142
15242834147
15242841593
15242846598
15242853373
15242858744
15242865336
15242870890
15242877359
15242883707
15242890665
15242896402
15242902201
15242906290
15242913370
15242918497
15242925089
15242930948
15242937906
15242943399
15242948831
15242955240
15242960489
15242967691
15242973429
15242979227
15242984842
15242990946
15242997232
15243003885
15243009866
15243016214
15243022012
15243026468
15243032571
15243040994
15243048013
15243053873
15243058633
15243065836
15243071939
15243078165
15243085367
15243091043
15243096902
15243102457
15243108194
15243114114
15243119180
15243126748
15243133706
15243139383
15243144204
15243150613
15243155740
15243162637
15243168496
15243175332
15243182046
15243188333
15243195901
15243201028
15243208230
15243213418
15243219583
15243224649
15243230935
15243235818
15243243081
15243249551
15243255044
15243259988
15243267861
15243274636
15243279519
15243285134
15243292214
15243296487
