15405067862
15405074149
15405079215
15405085868
15405091544
15405097891
15405103507
15405110404
15405115897
15405120169
15405126883
15405133231
15405138724
15405144827
15405149466
15405157034
15405164114
15405168753
15405176138
15405183890
15405189566
15405197073
15405201346
15405209830
15405217398
15405224478
15405230521
15405236868
15405244803
15405248831
15405256949
15405263724
15405271292
15405277762
15405282950
15405290640
15405296682
15405303335
15405308706
15405318167
15405325003
15405331472
15405339346
15405344778
15405352285
15405359182
15405366629
15405371694
15405379934
15405386709
15405391775
15405399710
15405405142
15405414480
15405422231
15405428274
15405436147
15405444082
15405451345
15405457693
15405468679
15405475637
15405482961
15405490652
15405496694
15405505727
15405511404
15405518667
15405526784
15405532339
15405538686
15405547841
15405552541
15405562246
15405570302
15405577443
15405585561
15405593496
15405599965
15405607961
15405615163
15405622609
15405631215
15405638295
15405645497
15405653005
15405660756
15405666677
15405675710
15405684377
15405691335
15405697011
15405704701
15405712575
15405719289
15405726552
15405735829
15405741872
15405749989
15405755910
15405764516
15405770619
15405779713
15405786061
15405793690
15405801503
15405807729
15405816090
15405824147
15405830739
15405837025
15405845753
15405850392
15405859669
15405867543
15405875050
15405882374
15405890370
15405897511
15405904652
15405911732
15405920643
15405927845
15405936207
15405943837
15405951588
15405957630
15405967030
15405971546
15405981434
15405989186
15405996021
15406003407
15406009937
15406018543
15406025135
15406031605
15406038075
15406047169
15406054371
15406062305
15406069935
15406076221
15406084156
15406091663
15406097645
15406104175
15406113209
15406120838
15406129932
15406135364
15406145923
15406153614
15406161365
15406171497
15406179004
15406187427
15406193958
15406202625
15406211658
15406219654
15406227649
15406236072
15406243030
15406252491
15406259082
15406268421
15406275623
15406285144
15406292896
15406301929
15406310718
15406319202
15406324756
15406335010
15406340320
15406350574
15406357715
15406367969
15406376941
15406383899
15406392749
15406401904
15406409656
15406416370
15406427234
15406434863
15406444018
15406451037
15406461780
15406469348
15406478564
15406485888
15406497668
15406506213
15406515368
15406523303
15406532885
15406540454
15406549670
15406557360
15406565661
15406573291
15406583361
15406590991
15406599291
15406606555
15406617419
15406625353
15406633532
15406640246
15406649523
15406656847
15406665636
15406675890
15406684313
15406691271
15406701464
15406708910
15406718249
15406725085
15406734850
15406741686
15406751269
15406759508
15406770067
15406777941
15406785692
15406794909
15406802172
15406811266
15406818163
15406826708
15406835253
15406844591
15406852098
15406861498
15406868578
15406877062
15406884020
15406893114
15406901781
15406911180
15406917772
15406926927
15406935045
15406944383
15406952501
15406959520
15406965318
15406977586
15406985216
15406994432
15407003709
15407015367
15407024522
15407034715
15407046373
15407057481
15407065599
15407076158
15407083238
15407090867
15407100450
15407109910
15407118211
15407129869
15407135911
15407147508
15407153489
15407166184
15407173875
15407183763
15407192552
15407199571
15407206712
15407214219
15407222398
15407229539
15407240098
15407247483
15407255051
15407262193
15407269090
15407277024
15407284959
15407291428
15407299119
15407306748
15407314439
15407322190
15407332688
15407341172
15407349900
15407358140
15407367112
15407375535
15407383408
15407390122
15407397019
15407404038
15407412766
15407419602
15407425705
15407433091
15407439438
15407447983
15407454819
15407463669
15407472641
15407480515
15407489304
15407497238
15407504807
15407514145
15407521408
15407532578
15407542343
15407548935
15407559372
15407566635
15407576035
15407586166
15407593857
15407601425
15407608444
15407618454
15407628097
15407635361
15407643600
15407654526
15407664474
15407671493
15407677414
15407684738
15407693222
15407698471
15407705612
15407711776
15407717636
15407725021
15407731796
15407740707
15407746933
15407754257
15407761886
15407766952
15407773422
15407779403
15407785568
15407792404
15407798751
15407805282
15407810531
15407817062
15407821884
15407828292
15407834213
15407839584
15407845870
15407851058
15407858993
15407862838
15407871078
15407877181
15407883956
15407887435
15407895919
15407899276
15407907394
15407913680
15407918136
15407924117
15407930221
15407935042
15407940841
15407944442
15407952559
15407958236
15407964461
15407968978
15407975509
15407981246
15407987716
15407994246
15408001143
15408005599
15408011397
15408017379
15408021773
15408028975
15408033553
15408039107
15408045272
15408050460
15408054976
15408062422
15408067305
15408073836
15408078719
15408084273
15408089156
15408095259
15408103377
15408109053
15408115096
15408121443
15408127791
15408134016
15408140425
15408145308
15408151900
15408158797
15408164107
15408170332
15408176070
15408182234
15408187788
15408193953
15408200423
15408206343
15408212263
15408218977
15408224715
15408231001
15408235518
15408241804
15408247847
15408252669
15408258284
15408263106
15408269697
15408274458
15408280684
15408285505
15408291243
15408296248
15408301985
15408306868
15408314619
15408318525
15408326338
15408333113
15408339399
15408345503
15408349897
15408355696
15408361311
15408366133
15408371809
15408375288
15408383344
15408388593
15408394636
15408399763
15408405561
15408412519
15408418745
15408424360
15408430525
15408437666
15408442304
15408449323
15408455793
15408461164
15408467634
15408472822
15408479353
15408484663
15408491193
15408497053
15408502180
15408509565
15408514631
15408522260
15408527387
15408534406
15408540082
15408546552
15408550458
15408558393
15408564924
15408571088
15408577314
15408583417
15408587140
15408594892
15408598371
15408606610
15408610212
15408618390
15408625287
15408631696
15408637067
15408643354
15408649823
15408656110
15408660565
15408668561
15408675275
15408681561
15408686994
15408693463
15408700604
15408706891
15408712201
15408718915
15408724713
15408731244
15408737592
15408743695
15408749982
15408756268
15408762616
15408767865
15408775189
15408780621
15408786603
15408792096
15408799359
15408804852
15408811627
15408816998
15408823590
15408828900
15408836041
15408839581
15408847027
15408853009
15408859112
15408865033
15408871808
15408878338
15408883465
15408889996
15408896283
15408899945
15408909039
15408912518
15408920880
15408929058
15408935833
15408942425
15408947552
15408955426
15408962200
15408967633
15408974041
15408980816
15408985760
15408993206
15409000164
15409006451
15409013409
15409019878
15409024944
15409030926
15409037334
15409043316
15409048382
15409055157
15409060345
15409067791
15409073223
15409080303
15409085857
15409092632
15409098064
15409105633
15409111065
15409118755
15409122417
15409130901
15409137188
15409143657
15409149944
15409156780
15409164043
15409170513
15409175152
15409182293
15409186016
15409193584
15409197185
15409205730
15409210186
15409216106
15409222454
15409228313
15409233379
15409239116
15409245403
15409250347
15409257122
15409263835
15409270427
15409275005
15409282268
15409286785
15409293620
15409297893
15409303691
15409309795
15409315471
15409320354
15409326518
15409331401
15409337688
15409344218
15409349712
15409354716
15409360637
15409365581
15409372295
15409377299
15409384563
15409389201
15409395488
15409401225
15409406840
15409410380
15409416972
15409420573
15409428447
15409432048
15409439067
15409444621
15409450358
15409453898
15409461284
15409464763
15409472148
15409478129
15409484782
15409490031
15409496501
15409503154
15409509684
15409515361
15409522074
15409527568
15409533976
15409540751
15409546672
15409553019
15409559550
15409565531
15409570231
15409577738
15409582804
15409588542
15409595561
15409601725
15409606791
15409614176
15409619120
15409626261
15409631083
15409639933
15409646525
15409652506
15409657755
15409664164
15409671488
15409676249
15409683146
15409689188
15409696024
15409701029
15409708719
15409715250
15409720804
15409727213
15409732401
15409738810
15409744852
15409749979
15409756266
15409762980
15409769022
15409774088
15409781229
15409786295
15409792643
15409797586
15409804972
15409810648
15409816935
15409820475
15409828043
15409831583
15409839579
15409845743
15409851908
15409855509
15409864054
15409869913
15409875955
15409881754
15409887735
15409893778
15409900003
15409906168
15409912759
15409919412
15409926004
15409932291
15409938882
15409945963
15409950540
15409956522
15409962381
15409968240
15409972818
15409979654
15409984109
15409990091
15409996744
15410002237
15410007059
15410013467
15410019327
15410025369
15410032449
15410039163
15410044778
15410051187
15410056863
15410063150
15410068704
15410075601
15410081033
15410088235
15410093240
15410099893
15410119241
15410124612
15410128274
15410136941
15410144570
15410149697
15410155435
15410161355
15410166604
15410171487
15410178689
15410184060
15410190896
15410196389
15410203347
15410208718
15410216836
15410223489
15410229958
15410233559
15410240884
15410244607
15410251382
15410257241
15410263100
15410269387
15410274819
15410281655
15410286172
15410293191
15410297768
15410303445
15410309670
15410315529
15410321938
15410327126
15410332680
15410339699
15410345681
15410351784
15410357033
15410364480
15410369851
15410375527
15410380898
15410387978
15410393593
15410400124
15410405129
15410411904
15410416787
15410423928
15410429909
15410434853
15410439980
15410446755
15410451882
15410459572
15410463234
15410471962
15410478432
15410485146
15410491615
15410497841
15410504555
15410511452
15410517922
15410523232
15410529579
15410536232
15410542702
15410548195
15410554481
15410560707
15410566688
15410571388
15410577309
15410583229
15410589271
15410595436
15410601845
15410607277
15410614967
15410620155
15410627113
15410634193
15410640663
15410646400
15410654518
15410660438
15410666847
15410672584
15410680519
15410684486
15410692909
15410699440
15410704994
15410710426
15410718788
15410725441
15410730751
15410737525
15410744117
15410747779
15410757362
15410760841
15410770362
15410776466
15410782874
15410789161
15410795387
15410802223
15410808448
15410814369
15410819007
15410826514
15410831763
15410838172
15410844581
15410850684
15410855750
15410862769
15410867896
15410873634
15410879188
15410887366
15410893043
15410899512
15410904395
15410910560
15410915198
15410921912
15410927344
15410933326
15410936866
15410944312
15410947730
15410955665
15410961646
15410967444
15410972022
15410977942
15410981604
15410991431
15410997596
15411003882
15411009681
15411015906
15411021643
15411027503
15411033057
15411039405
15411044409
15411050513
15411057166
15411061804
15411069617
15411074683
15411081275
15411085791
15411093115
15411098425
15411104285
15411109473
15411116187
15411121497
15411127539
15411132666
15411140295
15411146887
15411152014
15411157568
15411165015
15411172400
15411178442
15411185461
15411192114
15411197851
15411203772
15411209448
15411214209
15411221045
15411228247
15411233557
15411238440
15411244787
15411251318
15411257177
15411261755
15411267920
15411274084
15411279394
15411284155
15411290319
15411296179
15411303015
15411309545
15411317907
15411323889
15411328466
15411333471
15411342565
15411348852
15411355322
15411357275
15411367529
15411374609
15411379553
15411386389
15411393469
15411400427
15411405431
15411411535
15411416845
15411424108
15411430456
15411437902
15411441930
15411450536
15411457250
15411463476
15411470190
15411475072
15411481725
15411487951
15411493078
15411499669
15411507055
15411512243
15411518468
15411524267
15411530248
15411536657
15411542882
15411548436
15411555455
15411561254
15411567601
15411573278
15411580541
15411585973
15411592748
15411596410
15411603795
15411610692
15411615270
15411621556
15411627477
15411633153
15411639134
15411645299
15411651464
15411656346
15411662450
15411667760
15411674046
15411680150
15411688085
15411693517
15411700658
15411707433
15411713231
15411719457
15411725621
15411731358
15411736302
15411742772
15411747777
15411753575
15411758580
15411765477
15411770482
15411776646
15411781834
15411788060
15411793065
15411800511
15411806370
15411812291
15411818150
15411823460
15411828587
15411836339
15411842076
15411848057
15411851780
15411859654
15411863194
15411871495
15411875035
15411883213
15411889683
15411894261
15411900914
15411905430
15411911717
15411917576
15411922764
15411929966
15411936802
15411942112
15411948338
15411952854
15411958958
15411965061
15411969761
15411976170
15411981907
15411986912
15411992283
15411998753
15412004124
15412010593
15412017124
15412022312
15412028111
15412033360
15412040195
15412045444
15412052280
15412057529
15412064732
15412070652
15412075779
15412080784
15412087620
15412093662
15412098118
15412103000
15412110447
15412117405
15412122165
15412128208
15412134250
15412139927
15412145786
15412151706
15412158298
15412163181
15412168918
15412174595
15412180454
15412185459
15412191318
15412197483
15412204380
15412209690
15412217746
15412223545
15412230442
15412237888
15412243808
15412250095
15412255893
15412261447
15412267612
15412273288
15412277316
15412283786
15412289340
15412296909
15412301914
15412307956
15412315219
15412319858
15412328403
15412335544
15412341403
15412347385
15412354098
15412359103
15412365756
15412370456
15412377536
15412383823
15412390231
15412396701
15412402438
15412407382
15412412936
15412418918
15412424899
15412429599
15412436191
15412442904
15412449069
15412454989
15412460055
15412467074
15412472140
15412481540
15412485812
15412492709
15412498263
15412504245
15412510592
15412516513
15412522921
15412529330
15412535128
15412541232
15412546969
15412551608
15412558383
15412564852
15412571078
15412577548
15412584872
15412590670
15412597445
15412600863
15412608126
15412613436
15412621005
15412627108
15412633089
15412638155
15412644198
15412650179
15412655794
15412661715
15412668185
15412673922
15412681246
15412686861
15412691622
15412697115
15412703707
15412710421
15412714144
15412722140
15412729220
15412735140
15412740023
15412745638
15412751619
15412757723
15412764193
15412770235
15412775179
15412781099
15412786592
15412792757
15412799288
15412803987
15412810762
15412815523
15412822847
15412828340
15412834993
15412842989
15412848726
15412855684
15412862459
15412869356
15412874971
15412883699
15412889803
15412896455
15412902620
15412908662
15412914095
15412920198
15412926485
15412931184
15412938875
15412945772
15412951936
15412959810
15412966218
15412972261
15412980134
15412986360
15412992219
15412999544
15413005525
15413009187
15413016572
15413020112
15413028352
15413034517
15413040620
15413044160
15413052278
15413058503
15413064485
15413068940
15413076753
15413082551
15413088594
15413093843
15413100007
15413105806
15413111970
15413117951
15413124055
15413131074
15413137605
15413143708
15413150361
15413157258
15413162080
15413170258
15413175263
15413182404
15413188813
15413195527
15413201325
15413207917
15413213960
15413220551
15413227814
15413234162
15413239960
15413247346
15413253205
15413260529
15413264558
15413272309
15413277802
15413285798
15413289155
15413296418
15413302033
15413307892
15413311555
15413318451
15413324738
15413332734
15413339203
15413344574
15413351044
15413357697
15413361237
15413369660
15413376801
15413381745
15413388337
15413394989
15413400055
15413405793
15413410553
15413416413
15413422455
15413428437
15413435456
15413440216
15413446076
15413452606
15413457977
15413462616
15413470062
15413475311
15413480988
15413487640
15413493500
15413498444
15413504852
15413510284
15413516327
15413522858
15413528473
15413533478
15413539642
15413544708
15413551483
15413556488
15413562652
15413567657
15413573334
15413578461
15413585663
15413589325
15413596344
15413601837
15413609283
15413615265
15413621673
15413626434
15413633209
15413639373
15413645660
15413650482
15413657379
15413663421
15413669281
15413674224
15413680023
15413686004
15413690582
15413697906
15413702728
15413709014
15413715362
15413720123
15413726776
15413732086
15413738372
15413744903
15413750030
15413755706
15413760772
15413766876
15413772003
15413779327
15413784454
15413790374
15413795623
15413803069
15413808074
15413814300
15413819793
15413825591
15413829070
15413836150
15413842071
15413847808
15413853240
15413857696
15413863250
15413869048
15413874969
15413881011
15413887176
15413891875
15413895476
15413903960
15413909514
15413915313
15413922393
15413929473
15413934905
15413942168
15413948272
15413954070
15413961699
15413967498
15413974334
15413979399
15413985076
15413990081
15413997161
15414000762
15414008513
15414012847
15414020110
15414025664
15414032866
15414038542
15414047209
15414054045
15414060759
15414067229
15414074126
15414079375
15414085234
15414090483
15414096343
15414102202
15414106657
15414112822
15414118681
15414124541
15414131255
15414138090
15414143462
15414150236
15414157378
15414163847
15414168669
15414175505
15414180449
15414186980
15414191862
15414197905
15414202666
15414208159
15414212980
15414219572
15414224394
15414230742
15414236601
15414244291
15414248381
15414256071
15414261686
15414267607
15414273466
15414279325
15414283659
15414289640
15414293180
15414301237
15414306486
15414312406
15414319059
15414323637
15414330107
15414336759
15414343778
15414350065
15414355314
15414359953
15414366300
15414372587
15414378141
15414383085
15414389066
15414395536
15414400053
15414406400
15414412077
15414417204
15414422575
15414428922
15414435941
15414441007
15414447294
15414453031
15414458646
15414464384
15414469999
15414473600
15414481412
15414484830
15414491666
15414497342
15414503019
15414506681
15414513334
15414519559
15414525907
15414531034
15414536893
15414542508
15414548368
15414553800
15414559903
15414566556
15414571256
15414577542
15414582303
15414590238
15414595365
15414602628
15414609586
15414615872
15414621427
15414627164
15414632047
15414639798
15414646207
15414652005
15414657742
15414664823
15414670743
15414676724
15414680509
15414688016
15414691861
15414699551
15414703214
15414710477
15414716946
15414721402
15414727444
15414733304
15414738126
15414744412
15414750821
15414757413
15414763394
15414770108
15414776211
15414782986
15414790310
15414795682
15414802701
15414809964
15414816189
15414821255
15414828518
15414833645
15414840603
15414845730
15414853238
15414858242
15414864346
15414869351
15414876004
15414881192
15414887234
15414892483
15414899563
15414904690
15414910549
15414915615
15414921536
15414926541
15414932339
15414937405
15414944668
15414950405
15414956997
15414960903
15414969082
15414975063
15414979641
15414985867
15414991970
15414998806
15415003750
15415010098
15415016933
15415022793
15415027431
15415034695
15415041653
15415047695
15415052334
15415058071
15415062832
15415068569
15415074734
15415080166
15415085537
15415092312
15415097805
15415105922
15415109524
15415118496
15415121975
15415131862
15415135402
15415144313
15415150600
15415156948
15415160610
15415167934
15415174282
15415180690
15415186611
15415193141
15415199550
15415204799
15415212306
15415217678
15415225307
15415230617
15415238490
15415243862
15415250209
15415257289
15415262966
15415270046
15415276454
15415282253
15415289211
15415295131
15415301967
15415307643
15415315639
15415322047
15415327907
15415333766
15415340114
15415343837
15415350673
15415356288
15415362208
15415365748
15415373622
15415379725
15415386378
15415392177
15415398829
15415405909
15415411220
15415414821
15415423854
15415430323
15415437098
15415443324
15415448268
15415454249
15415460597
15415467799
15415472438
15415479762
15415484828
15415490687
15415497889
15415504847
15415510707
15415517604
15415523219
15415529688
15415535182
15415541834
15415546839
15415553004
15415558985
15415564295
15415569300
15415576075
15415581934
15415586634
15415591761
15415598841
15415602625
15415611170
15415617640
15415624659
15415631495
15415636805
15415643580
15415650172
15415657130
15415662562
15415668665
15415674952
15415680445
15415686793
15415693323
15415699732
15415701929
15415711878
15415717493
15415724573
15415731287
15415737757
15415743067
15415749170
15415754236
15415759180
15415765162
15415770472
15415778223
15415783655
15415791956
15415798426
15415804346
15415810022
15415816309
15415822473
15415828821
15415834314
15415840540
15415845728
15415851648
15415857019
15415862634
15415868433
15415874780
15415880701
15415886072
15415893091
15415897730
15415905115
15415911462
15415917017
15415921960
15415927698
15415932703
15415938684
15415943750
15415950403
15415955469
15415961450
15415966516
15415973474
15415977014
15415985803
15415989404
15415997217
15416003747
15416009973
15416015771
15416020105
15416025964
15416032922
15416040063
15416045556
15416052148
15416058801
15416065698
15416070703
15416077600
15416084741
15416090417
15416097558
15416103051
15416110437
15416116418
15416121240
15416127954
15416134179
15416139001
15416145287
15416150659
15416155480
15416161157
15416165978
15416171716
15416177880
15416183740
15416188744
15416194665
15416199487
15416204919
15416209679
15416215600
15416220544
15416227868
15416234338
15416240136
15416245812
15416253075
15416259545
15416265465
15416271142
15416279198
15416283288
15416292138
15416296166
15416304406
15416311120
15416317589
15416323815
15416328209
15416334740
15416341515
15416348168
15416354821
15416360436
15416367028
15416373375
15416378319
15416385033
15416391320
15416397667
15416402672
15416409386
15416416283
15416422020
15416428368
15416434349
15416439781
15416445519
15416452294
15416459007
15416464623
15416470787
15416477257
15416483788
15416489342
15416496117
15416501732
15416507591
15416512962
15416520348
15416525902
15416533043
15416538414
15416545433
15416549156
15416557884
15416561668
15416570640
15416574364
15416583336
15416586937
15416596214
15416601707
15416608787
15416615684
15416622581
15416629112
15416634483
15416641868
15416647056
15416653709
15416660484
15416667015
15416671897
15416679649
15416684715
15416690757
15416697288
15416702964
15416707725
15416715660
15416721336
15416727439
15416732383
15416739646
15416746665
15416752281
15416759422
15416765952
15416771323
15416777122
15416782066
15416788902
15416793906
15416799461
15416804404
15416810935
15416815757
15416822410
15416826011
15416832908
15416837974
15416845603
15416852561
15416859153
15416862632
15416871604
15416877646
15416881980
15416888877
15416893760
15416900229
15416904746
15416910972
15416916770
15416922385
15416926902
15416934104
15416938620
15416944236
15416950156
15416955771
15416962485
15416968650
15416974021
15416980429
15416985434
15416992514
15416998007
15417004721
15417010214
15417016623
15417022055
15417027854
15417034384
15417040549
15417045920
15417052084
15417057517
15417063315
15417068259
15417074912
15417080466
15417087851
15417094321
15417101096
15417107748
15417112997
15417119284
15417126242
15417130209
15417137961
15417144675
15417149679
15417155783
15417162253
15417166037
15417175314
15417182333
15417187582
15417193625
15417200277
15417204916
15417210775
15417216635
15417223593
15417230734
15417236227
15417243002
15417249533
15417255697
15417260458
15417268942
15417273519
15417279867
15417286337
15417291647
15417298117
15417304220
15417309652
15417315695
15417322286
15417328451
15417333944
15417341146
15417346761
15417352987
15417358358
15417364340
15417369589
15417376669
15417381796
15417388204
15417393697
15417401388
15417405111
15417413168
15417418783
15417424581
15417428915
15417435506
15417439229
15417446676
15417452596
15417458700
15417463705
15417469564
15417474203
15417480123
15417486043
15417491842
15417497335
15417504171
15417509542
15417515828
15417521016
15417527425
15417534383
15417539449
15417546895
15417552144
15417558431
15417565023
15417571675
15417576924
15417584737
15417590047
15417596517
15417603658
15417610311
15417615621
15417621907
15417626729
15417631795
15417637959
15417643575
15417648580
15417654012
15417658467
15417664693
15417670979
15417676595
15417681661
15417687581
15417692647
15417699483
15417704427
15417710469
15417715474
15417721516
15417727437
15417735982
15417740376
15417748433
15417754719
15417760457
15417766255
15417773823
15417777913
15417786152
15417792927
15417799580
15417804280
15417811726
15417817830
15417824116
15417831074
15417836323
15417843098
15417849385
15417855549
15417860737
15417867390
15417873921
15417878926
15417884968
15417890217
15417896199
15417901570
15417907917
15417914387
15417919209
15417927082
15417932148
15417938862
15417944233
15417950215
15417955647
15417962299
15417967732
15417974140
15417979572
15417986897
15417992329
15417998371
15418003986
15418011677
15418017292
15418024555
15418028156
15418035541
15418041645
15418046528
15418051655
15418058735
15418064594
15418071430
15418075825
15418084247
15418087971
15418098346
15418105182
15418110248
15418113788
15418122211
15418128070
15418132526
15418138324
15418144062
15418149677
15418156757
15418163105
15418168232
15418175800
15418181415
15418188129
15418193805
15418199787
15418206195
15418213031
15418216937
15418225543
15418232257
15418239093
15418242938
15418251361
15418258136
15418264301
15418270038
15418274738
15418281268
15418287189
15418291827
15418297870
15418303241
15418309711
15418316913
15418323688
15418329181
15418335956
15418342792
15418347796
15418356525
15418361529
15418367999
15418374713
15418380084
15418386920
15418393451
15418398517
15418405414
15418410968
15418418841
15418424395
15418430194
15418435565
15418443133
15418449237
15418455767
15418459368
15418465838
15418471453
15418478167
15418484637
15418491351
15418497698
15418504046
15418509417
15418515277
15418520526
15418526324
15418531817
15418537493
15418543170
15418547747
15418554888
15418559405
15418565508
15418570086
15418576128
15418583392
15418590289
15418595843
15418602496
15418607378
15418614703
15418620562
15418626299
15418632403
15418639117
15418642901
15418651934
15418655657
15418664629
15418671709
15418676958
15418683550
15418690996
15418696612
15418702349
15418707354
15418713274
15418716875
15418724199
15418730608
15418736956
15418742022
15418748125
15418754290
15418758989
15418765825
15418771868
15418778887
15418784075
15418790911
15418795549
15418801958
15418808550
15418814714
15418821062
15418829790
15418836809
15418844866
15418850664
15418858720
15418866167
15418871538
15418879350
15418887407
15418895952
15418904253
15418913469
15418922990
15418932024
15418941240
15418950395
15418959794
15418968583
15418977006
15418987748
15418993852
15419002153
15419011003
15419018754
15419030290
15419039811
15419049577
15419058976
15419068681
15419080155
15419089433
15419097428
15419108720
15419116471
15419126786
15419138078
15419147538
15419156754
15419164018
15419173112
15419182511
15419191911
15419201615
15419211015
15419218888
15419229447
15419236832
15419245988
15419253251
15419263077
15419268387
15419278824
15419286271
15419296647
15419305130
15419311844
15419319169
15419331376
15419339249
15419348282
15419357376
15419365372
15419374405
15419383377
15419391922
15419400345
15419409867
15419421951
15419431473
15419440445
15419449478
15419458817
15419467911
15419478165
15419487381
15419495682
15419504837
15419513382
15419521561
15419530716
15419541092
15419549820
15419558060
15419568374
15419576248
15419582535
15419586685
15419593094
15419600418
15419605789
15419611038
15419618728
15419625015
15419631118
15419637039
15419642776
15419646804
15419653945
15419661148
15419665603
15419671768
15419677383
15419683609
15419687881
15419694839
15419701003
15419707656
15419712844
15419718887
15419723892
15419730789
15419735854
15419744582
15419750015
15419755508
15419760391
15419767043
15419770644
15419778335
15419783828
15419791457
15419794814
15419802810
15419808669
15419814468
15419818496
15419825698
15419828811
15419837234
15419843337
15419848769
15419855178
15419860732
15419866103
15419871718
15419877822
15419882522
15419889724
15419894118
15419901076
15419905471
15419912368
15419916762
15419924636
15419929396
15419936599
15419940993
15419948561
15419953322
15419960036
15419964797
15419970351
15419976393
15419981703
15419988478
15419993056
15419999709
15420004408
15420009108
15420017531
15420023818
15420029982
15420036513
15420042433
15420047133
15420052931
15420059706
15420065443
15420070143
15420075697
15420081374
15420086867
15420093214
15420099013
15420104323
15420110487
15420116957
15420121535
15420128920
15420133559
15420140517
15420146498
15420152601
15420158766
15420164137
15420170241
15420175245
15420181288
15420187269
15420192030
15420200148
15420206007
15420211378
15420216627
15420223646
15420228651
15420235914
15420241590
15420247877
15420254896
15420260511
15420265577
15420271315
15420277113
15420282728
15420288587
15420294996
15420300367
15420306837
15420312147
15420318800
15420325147
15420329847
15420337110
15420343946
15420350172
15420355543
15420361585
15420366895
15420374342
15420380262
15420387159
15420393018
15420399549
15420406934
15420413404
15420419141
15420425611
15420432203
15420437269
15420444898
15420450941
15420458021
15420461500
15420469922
15420476270
15420482435
15420487439
15420493116
15420498731
15420505750
15420510267
15420515882
15420521802
15420528516
15420536145
15420540723
15420547620
15420552137
15420559522
15420563916
15420572461
15420578382
15420585218
15420588758
15420597119
15420603040
15420609143
15420612500
15420623792
15420629163
15420634656
15420639539
15420645154
15420650586
15420656201
15420663220
15420667676
15420675244
15420679578
15420687329
15420693555
15420700330
15420705273
15420714062
15420717725
15420725415
15420732007
15420738049
15420741711
15420749463
15420753064
15420763135
15420768506
15420774670
15420780835
15420786816
15420793042
15420797253
15420803418
15420809643
15420816845
15420821972
15420828076
15420834668
15420840283
15420845349
15420853710
15420859631
15420864025
15420868725
15420875744
15420881970
15420887829
15420890942
15420899731
15420906201
15420912060
15420917980
15420924084
15420929211
15420935192
15420941357
15420947765
15420953686
15420958508
15420965344
15420970165
15420976635
15420981457
15420989086
15420994457
15421003673
15421009960
15421016491
15421022411
15421029003
15421034496
15421041149
15421046825
15421051891
15421059093
15421064220
15421071789
15421075512
15421083812
15421087291
15421097667
15421102123
15421107982
15421115062
15421119640
15421127330
15421132152
15421138439
15421144542
15421151134
15421157726
15421163219
15421169811
15421175182
15421181835
15421187450
15421194103
15421199413
15421206127
15421211925
15421216991
15421224315
15421229747
15421236522
15421243907
15421249950
15421253551
15421261424
15421264781
15421275523
15421280284
15421285777
15421291209
15421296825
15421303661
15421307933
15421314403
15421320567
15421327647
15421332347
15421338145
15421342357
15421348704
15421354747
15421360606
15421367076
15421373668
15421378856
15421385386
15421390147
15421397044
15421401866
15421410106
15421413707
15421421214
15421428111
15421433848
15421437938
15421444468
15421450938
15421457347
15421464183
15421468516
15421475230
15421479563
15421485728
15421491404
15421497508
15421503855
15421509654
15421513926
15421520762
15421526866
15421531687
15421537730
15421543711
15421548594
15421555369
15421559946
15421566904
15421572703
15421578440
15421584483
15421591257
15421597666
15421603281
15421608591
15421614146
15421619822
15421625925
15421632029
15421638437
15421644358
15421650400
15421656199
15421660410
15421667002
15421671335
15421679453
15421684397
15421691477
15421696604
15421703989
15421708933
15421714670
15421719370
15421727243
15421732859
15421738230
15421742868
15421750254
15421753488
15421761301
15421764475
15421774668
15421780466
15421786447
15421792307
15421796701
15421803110
15421808786
15421814218
15421820139
15421827036
15421831857
15421838571
15421843393
15421849130
15421855295
15421861704
15421866953
15421873178
15421878122
15421885690
15421890756
15421897348
15421902902
15421910593
15421916086
15421921823
15421925973
15421933298
15421940378
15421946481
15421952402
15421958749
15421965219
15421969491
15421976266
15421980539
15421987558
15421991830
15421999643
15422004647
15422010995
15422017709
15422023324
15422029977
15422035958
15422040658
15422047494
15422053353
15422060067
15422066049
15422072152
15422075631
15422083627
15422089791
15422098336
15422102975
15422108712
15422114388
15422120065
15422126107
15422131783
15422137582
15422144112
15422150643
15422156808
15422162118
15422168282
15422174020
15422178841
15422184762
15422191415
15422198128
15422203622
15422209481
15422214974
15422220833
15422226327
15422233651
15422237313
15422245003
15422251351
15422257332
15422261422
15422268014
15422274117
15422280221
15422286995
15422292733
15422294625
15422303475
15422308846
15422314583
15422321175
15422327584
15422333504
15422337899
15422344979
15422350228
15422356575
15422363167
15422369454
15422374703
15422380867
15422385689
15422393196
15422396736
15422403267
15422407967
15422416939
15422422859
15422429024
15422435188
15422441292
15422445564
15422452339
15422458626
15422464607
15422470589
15422476753
15422483345
15422488167
15422495796
15422500679
15422509773
15422514656
15422521614
15422526436
15422533027
15422537849
15422544746
15422549568
15422556526
15422562385
15422567878
15422571296
15422578621
15422581794
15422589668
15422595527
15422602058
15422608955
15422613166
15422620308
15422624519
15422631416
15422635627
15422642097
15422648384
15422654487
15422659248
15422664619
15422670600
15422676399
15422681098
15422687080
15422694587
15422700752
15422704414
15422711982
15422717109
15422723945
15422728828
15422737922
15422743049
15422748542
15422754768
15422760322
15422765937
15422771430
15422776618
15422782478
15422788642
15422794440
15422800239
15422806403
15422811652
15422817756
15422824531
15422830939
15422836066
15422842048
15422847602
15422852241
15422859076
15422863898
15422870734
15422875739
15422882270
15422885444
15422893439
15422899421
15422905219
15422908576
15422917304
15422923407
15422929145
15422934394
15422940192
15422946357
15422952033
15422957892
15422964301
15422970587
15422976691
15422983283
15422988043
15422995001
15423001593
15423007392
15423014227
15423019904
15423026068
15423031867
15423036627
15423042609
15423047308
15423055792
15423059454
15423066901
15423070441
15423078192
15423084601
15423090277
15423094305
15423101569
15423107855
15423113898
15423119513
15423125616
15423131903
15423138067
15423145147
15423152167
15423157660
15423163824
15423170050
15423175360
15423181646
15423188360
15423194830
15423199957
15423206793
15423211493
15423217962
15423223089
15423230352
15423233831
15423244329
15423249639
15423255377
15423261114
15423266851
15423272039
15423278143
15423285345
15423292303
15423297918
15423302313
15423308782
15423314825
15423320562
15423325262
15423332220
15423337164
15423344427
15423347845
15423355413
15423360235
15423366766
15423371709
15423379827
15423386480
15423392522
15423398687
15423404912
15423408452
15423417180
15423424077
15423429937
15423435979
15423442144
15423447332
15423453374
15423457830
15423463933
15423470220
15423475042
15423481878
15423486638
15423493413
15423498235
15423504094
15423510869
15423517034
15423520757
15423528508
15423534063
15423540349
15423546575
15423552495
15423558843
15423565312
15423571355
15423577031
15423582158
15423588262
15423594243
15423600408
15423608159
15423614507
15423619878
15423624822
15423630315
15423636418
15423642278
15423646916
15423653447
15423660466
15423666508
15423671696
15423677983
15423683110
15423690556
15423693974
15423703923
15423710148
15423714543
15423720647
15423726628
15423732915
15423738896
15423743901
15423750126
15423757268
15423761540
15423768193
15423772465
15423779362
15423783635
15423790348
15423797245
15423803837
15423808659
15423815495
15423820317
15423827275
15423832035
15423837834
15423845707
15423851567
15423854985
15423862370
15423867924
15423873539
15423876835
15423885441
15423892033
15423897709
15423903874
15423908146
15423915165
15423919499
15423926090
15423932682
15423938541
15423945133
15423951115
15423956303
15423962833
15423967838
15423974918
15423982059
15423987614
15423992741
15423999088
15424003849
15424010319
15424015751
15424022892
15424028995
15424034672
15424040897
15424045292
15424051700
15424057621
15424060917
15424071354
15424077213
15424081485
15424088504
15424094364
15424100284
15424105533
15424112735
15424118351
15424125797
15424131412
15424137943
15424143741
15424150821
15424154727
15424162479
15424167911
15424174137
15424179325
15424187747
15424191654
15424199954
15424203494
15424211307
15424217777
15424223941
15424229190
15424235416
15424241458
15424247867
15424252933
15424259402
15424266971
15424271915
15424278079
15424282596
15424289127
15424293643
15424301211
15424305850
15424312076
15424318606
15424324710
15424329715
15424336123
15424341311
15424347598
15424352603
15424358706
15424363711
15424369632
15424374637
15424381289
15424386355
15424393618
15424397158
15424403750
15424408755
15424416690
15424420840
15424428653
15424432559
15424441531
15424446536
15424452395
15424458743
15424463503
15424469485
15424475527
15424480837
15424486880
15424492922
15424498660
15424504275
15424508669
15424514346
15424520449
15424527163
15424532351
15424539309
15424544497
15424551516
15424558535
15424563784
15424570071
15424576479
15424583498
15424589663
15424594790
15424601565
15424608462
15424614443
15424619265
15424626467
15424632082
15424639589
15424645266
15424652590
15424656618
15424664126
15424670412
15424676333
15424682558
15424688295
15424693728
15424701357
15424708010
15424714357
15424718080
15424726381
15424733034
15424739015
15424743776
15424749758
15424753420
15424760622
15424767092
15424773805
15424779421
15424786012
15424792665
15424799135
15424805483
15424810243
15424817262
15424824220
15424830019
15424834901
15424842165
15424846559
15424852968
15424857362
15424863832
15424868227
15424874086
15424880434
15424886232
15424891237
15424897218
15424902040
15424907899
15424912904
15424918886
15424923891
15424930726
15424935670
15424942201
15424947877
15424955812
15424959779
15424967042
15424972963
15424978944
15424985292
15424989747
15424996156
15425002748
15425009156
15425015565
15425021363
15425027955
15425034486
15425039491
15425045472
15425051393
15425056886
15425062745
15425068788
15425073304
15425078919
15425084962
15425091004
15425095582
15425102845
15425107301
15425114320
15425122010
15425128175
15425134339
15425143006
15425146607
15425153565
15425158997
15425165162
15425171326
15425177064
15425183778
15425190186
15425197022
15425201661
15425208680
15425215333
15425220460
15425226624
15425231690
15425238099
15425245057
15425249878
15425256043
15425261231
15425268067
15425273255
15425281800
15425286927
15425292908
15425299561
15425305176
15425308655
15425315918
15425319275
15425328125
15425333313
15425338867
15425342652
15425349243
15425355347
15425361084
15425367188
15425373169
15425378723
15425384155
15425390259
15425394776
15425402344
15425406983
15425414368
15425419678
15425426086
15425430725
15425436951
15425443542
15425448608
15425453247
15425460937
15425464539
15425472290
15425478332
15425483826
15425489075
15425494690
15425500305
15425506286
15425513428
15425518188
15425524902
15425531067
15425536987
15425543030
15425549621
15425556762
15425562378
15425568786
15425574096
15425580566
15425586914
15425592041
15425598999
15425604187
15425611389
15425616272
15425623413
15425628845
15425633911
15425638916
15425647399
15425651000
15425659240
15425664977
15425670593
15425676879
15425682372
15425688049
15425694335
15425700805
15425705139
15425712524
15425716979
15425723205
15425729064
15425735168
15425742065
15425748107
15425752807
15425758727
15425764709
15425770568
15425775695
15425783752
15425789611
15425795043
15425800353
15425806090
15425811950
15425817016
15425821837
15425829711
15425833434
15425840941
15425847167
15425852843
15425858275
15425863830
15425870482
15425877013
15425882018
15425887755
15425893065
15425898619
15425904540
15425910582
15425916442
15425923033
15425928771
15425933715
15425940428
15425945128
15425951476
15425956175
15425964110
15425970519
15425974852
15425980345
15425987059
15425992857
15425998412
15426004454
15426010924
15426017516
15426022093
15426028624
15426034789
15426041014
15426047850
15426052916
15426059630
15426065550
15426071593
15426077879
15426082823
15426088377
15426094664
15426102415
15426108214
15426113768
15426117125
15426125364
15426131041
15426136595
15426139891
15426149046
15426153929
15426160032
15426166014
15426171812
15426177244
15426182798
15426189573
15426196104
15426202024
15426206785
15426214048
15426220518
15426226561
15426231748
15426238768
15426244200
15426250608
15426255430
15426262144
15426266966
15426273252
15426278684
15426286314
15426292295
15426297910
15426303282
15426308958
15426314634
15426320188
15426323545
15426332945
15426335020
15426343870
15426350156
15426354429
15426360838
15426366697
15426373716
15426380918
15426386838
15426392087
15426397581
15426403806
15426409604
15426414731
15426422117
15426426877
15426433774
15426438596
15426444822
15426449521
15426456479
15426462278
15426468442
15426474546
15426480344
15426486448
15426490842
15426496946
15426502622
15426509275
15426515317
15426522031
15426528684
15426534482
15426539182
15426546384
15426551023
15426558835
15426564145
15426571164
15426575864
15426582578
15426587277
15426593198
15426600400
15426606870
15426613034
15426617246
15426622372
15426629697
15426635495
15426641049
15426647092
15426653256
15426659726
15426665524
15426670773
15426676388
15426682370
15426686581
15426693234
15426699460
15426705563
15426710385
15426715817
15426721921
15426727719
15426732480
15426739743
15426746090
15426752743
15426757748
15426763669
15426768734
15426775448
15426780453
15426788388
15426792111
15426799984
15426806454
15426812558
15426818966
15426825070
15426830136
15426836605
15426843502
15426849667
15426854550
15426860531
15426865719
15426869747
15426876400
15426882626
15426889462
15426894711
15426899899
15426905941
15426911739
15426916500
15426924496
15426930477
15426936825
15426940426
15426949032
15426952633
15426960934
15426964291
15426973141
15426976559
15426984493
15426987789
15426996334
15427001888
15427008541
15427014339
15427019954
15427025570
15427031185
15427036983
15427042537
15427048336
15427052608
15427059322
15427065365
15427072261
15427076961
15427083553
15427090084
15427095943
15427100704
15427107540
15427114009
15427119808
15427125057
15427132564
15427137813
15427144893
15427150203
15427157833
15427162959
15427169307
15427174129
15427180904
15427186824
15427192378
15427197871
15427204036
15427208247
15427214778
15427221126
15427226802
15427232356
15427238338
15427244868
15427250972
15427257014
15427263301
15427269160
15427273616
15427280635
15427284846
15427291621
15427297969
15427304011
15427309199
15427315913
15427320674
15427326289
15427331111
15427340205
15427343928
15427351008
15427357173
15427362849
15427366267
15427373347
15427378596
15427386226
15427391108
15427396662
15427402339
15427407893
15427413874
15427419551
15427425349
15427431758
15427437007
15427443171
15427448176
15427454280
15427460200
15427464594
15427472285
15427477046
15427485163
15427489863
15427495905
15427500666
15427506648
15427511286
15427520258
15427524592
15427531855
15427537897
15427543574
15427548884
15427554438
15427559382
15427565974
15427573298
15427577692
15427584406
15427590693
15427596003
15427600336
15427606867
15427613398
15427619867
15427624872
15427630671
15427636713
15427642389
15427647089
15427654596
15427660334
15427666010
15427671747
15427677485
15427680841
15427688349
15427694880
15427700861
15427706903
15427712885
15427719049
15427724787
15427729486
15427735163
15427741083
15427746942
15427753778
15427760248
15427765985
15427770868
15427778314
15427784906
15427793146
15427796686
15427803400
15427808160
15427815912
15427821466
15427827081
15427830499
15427838556
15427845270
15427850824
15427856561
15427862115
15427866449
15427871942
15427879022
15427886224
15427892450
15427896905
15427903314
15427909356
15427915277
15427920038
15427926385
15427932977
15427938714
15427943597
15427950189
15427956964
15427962701
15427968255
15427973870
15427979608
15427986016
15427991510
15427997186
15428000909
15428008111
15428013848
15428020013
15428026483
15428032159
15428038201
15428043756
15428048699
15428054376
15428060174
15428066155
15428073663
15428078362
15428084710
15428091180
15428097466
15428102166
15428109490
15428114617
15428122491
15428127251
15428133416
15428138177
15428144097
15428148919
15428156792
15428160699
15428168633
15428174920
15428180962
15428184502
15428192254
15428198113
15428205559
15428212334
15428216729
15428222832
15428228509
15428232659
15428239739
15428245903
15428252068
15428259514
15428263848
15428270317
15428276421
15428282158
15428286858
15428293023
15428299431
15428305657
15428310784
15428317498
15428322380
15428329705
15428334526
15428342583
15428346367
15428354363
15428360527
15428366448
15428370781
15428377495
15428383782
15428390190
15428396599
15428402153
15428407829
15428416496
15428425713
15428432060
15428438042
15428444694
15428450066
15428454948
15428462028
15428466911
15428472893
15428477592
15428485100
15428491142
15428498894
15428504753
15428510978
15428518669
15428524040
15428531852
15428537285
15428544243
15428549614
15428556083
15428562736
15428569084
15428574211
15428581413
15428587333
15428592155
15428599357
15428604118
15428609123
15428616996
15428620292
15428630485
15428635795
15428641349
15428648124
15428653739
15428655631
15428664176
15428670829
15428677177
15428683341
15428689384
15428695243
15428699577
15428706779
15428712272
15428719718
15428726005
15428732902
15428738700
15428744987
15428750846
15428756095
15428761100
15428770072
15428773795
15428780997
15428787345
15428793387
15428796866
15428805167
15428811881
15428818290
15428824454
15428829154
15428835441
15428840995
15428847281
15428851493
15428858512
15428864798
15428871024
15428875907
15428882132
15428886771
15428893363
15428898062
15428904898
15428910453
15428918326
15428924246
15428930167
15428933768
15428941702
15428947928
15428954398
15428960379
15428965933
15428971182
15428976798
15428983206
15428989188
15428996695
15429001822
15429009390
15429014273
15429020682
15429025504
15429031302
15429036185
15429045096
15429048941
15429055960
15429061697
15429067374
15429073172
15429078848
15429085745
15429092276
15429098196
15429104117
15429109793
15429115896
15429122793
15429127554
15429133841
15429140249
15429147024
15429153189
15429158133
15429164175
15429169851
15429174734
15429182486
15429185904
15429192617
15429197439
15429205069
15429208425
15429215017
15429222647
15429228567
15429234976
15429239248
15429245718
15429251882
15429257620
15429262014
15429269033
15429275381
15429281362
15429286611
15429292715
15429297475
15429304189
15429308950
15429316824
15429323049
15429329031
15429332571
15429340017
15429345693
15429351614
15429356496
15429365652
15429372121
15429385305
15429396108
15429402456
15429409475
15429413076
15429423391
15429429250
15429435231
15429442312
15429447133
15429454641
15429462087
15429467092
15429471852
15429478810
15429484121
15429490529
15429493947
15429500966
15429506826
15429515309
15429520070
15429525807
15429532033
15429538137
15429543508
15429549123
15429554677
15429560353
15429567189
15429573293
15429579274
15429584279
15429589955
15429596181
15429601918
15429606923
15429614491
15429617970
15429625478
15429630360
15429636952
15429642323
15429649831
15429655141
15429660817
15429666737
15429672352
15429677113
15429682789
15429690175
15429694874
15429702687
15429707264
15429713673
15429719655
15429725392
15429729725
15429736012
15429742360
15429748219
15429754689
15429760487
15429765614
15429772633
15429777760
15429785694
15429791432
15429797413
15429803334
15429809010
15429812428
15429820179
15429826039
15429833119
15429839833
15429845387
15429851063
15429856617
15429862538
15429868824
15429875965
15429881764
15429888416
15429894947
15429901234
15429908314
15429913868
15429920765
15429926929
15429931995
15429938099
15429943165
15429949268
15429954273
15429960743
15429965687
15429971912
15429976917
15429983143
15429988209
15429993702
15429998951
15430005787
15430010731
15430017322
15430022632
15430029468
15430033008
15430040149
15430045887
15430051746
15430055530
15430062549
15430068470
15430073047
15430079151
15430084949
15430090930
15430095447
15430101673
15430108631
15430113697
15430119861
15430126453
15430132434
15430138294
15430144275
15430151294
15430155933
15430163074
15430167774
15430174732
15430181323
15430186267
15430192737
15430199329
15430203967
15430210498
15430217029
15430223437
15430228076
15430235339
15430240771
15430249072
15430254626
15430260974
15430266345
15430274097
15430279529
15430286548
15430292102
15430299304
15430304736
15430311145
15430316577
15430324206
15430329577
15430336596
15430343005
15430349353
15430353320
15430361071
15430364978
15430372668
15430378527
15430384509
15430388171
15430395861
15430399523
15430407641
15430411364
15430418261
15430423998
15430430041
15430436633
15430443896
15430446093
15430454821
15430461474
15430466479
15430472582
15430478442
15430484484
15430488818
15430494616
15430500781
15430504809
15430510729
15430516528
15430520983
15430528246
15430532702
15430538561
15430543017
15430548754
15430555956
15430562670
15430567919
15430576098
15430581530
15430587145
15430592211
15430598803
15430603808
15430610766
15430614794
15430622789
15430628710
15430634142
15430639635
15430645739
15430651232
15430659410
15430663317
15430672960
15430676928
15430685595
15430692064
15430698839
15430705126
15430711901
15430718309
15430724291
15430726366
15430734423
15430740648
15430745531
15430751512
15430757250
15430762621
15430769457
15430775377
15430782091
15430789110
15430794603
15430801439
15430808519
15430814684
15430821458
15430827318
15430832323
15430838182
15430843187
15430849168
15430854539
15430860887
15430867357
15430873155
15430878648
15430885606
15430890855
15430896287
15430901414
15430908311
15430913377
15430919298
15430924302
15430929979
15430934984
15430941697
15430946702
15430954210
15430957933
15430965196
15430968858
15430975877
15430982347
15430989061
15430995713
15431002122
15431007859
15431016099
15431022935
15431027452
15431034593
15431040757
15431047471
15431054490
15431060349
15431065354
15431071275
15431077378
15431082871
15431088792
15431095200
15431102525
15431108567
15431114426
15431121690
15431127549
15431133958
15431139695
15431146653
15431152390
15431158921
15431162644
15431170151
15431173875
15431181443
15431185105
15431192734
15431199204
15431203660
15431209946
15431215745
15431220810
15431225327
15431231736
15431237717
15431243760
15431248337
15431254441
15431260788
15431266465
15431271042
15431279038
15431284531
15431291184
15431296250
15431302109
15431307724
15431315415
15431319382
15431327988
15431334519
15431340561
15431346298
15431353745
15431357529
15431365708
15431369553
15431378403
15431382065
15431390244
15431397263
15431404037
15431408859
15431414658
15431419174
15431426132
15431429794
15431437607
15431443588
15431449325
15431453964
15431459640
15431465805
15431470260
15431476547
15431482467
15431488327
15431495041
15431500229
15431507919
15431513962
15431518600
15431526657
15431531845
15431537643
15431544235
15431549545
15431556137
15431563461
15431567184
15431574752
15431579940
15431587387
15431593978
15431599655
15431603012
15431611434
15431617233
15431623092
15431629806
15431635665
15431640548
15431647079
15431653182
15431659469
15431665633
15431669845
15431676620
15431680648
15431687301
15431691451
15431700240
15431705062
15431712020
15431717147
15431723678
15431728439
15431735030
15431739791
15431747420
15431754134
15431759078
15431765243
15431771285
15431777694
15431783614
15431790145
15431796309
15431802413
15431806746
15431813155
15431818892
15431824386
15431830367
15431838485
15431844954
15431850570
15431855635
15431863326
15431868575
15431874861
15431880294
15431887801
15431893477
15431899764
15431903243
15431910750
15431916548
15431922164
15431928145
15431934310
15431940413
15431946089
15431951827
15431957381
15431962080
15431967818
15431974349
15431980818
15431986739
15431991255
15431997298
15432003279
15432008345
15432014449
15432021040
15432027693
15432034041
15432038740
15432044112
15432048811
15432055342
15432060042
15432067854
15432074812
15432080733
15432085127
15432092390
15432095808
15432103254
15432109907
15432116255
15432122725
15432128340
15432134382
15432140425
15432145491
15432151655
15432158979
15432165937
15432171858
15432176069
15432182051
15432188093
15432193281
15432199324
15432204939
15432211225
15432217024
15432221906
15432231367
15432237226
15432243208
15432248640
15432255232
15432262068
15432268293
15432274213
15432280317
15432285932
15432292097
15432296369
15432304182
15432311750
15432316083
15432321821
15432327497
15432333234
15432339338
15432346174
15432351179
15432357770
15432362531
15432367963
15432374555
15432379438
15432384138
15432391340
15432397504
15432404279
15432407819
15432416120
15432422345
15432428449
15432435224
15432442121
15432448407
15432453962
15432459577
15432465131
15432470502
15432476178
15432481671
15432487653
15432494733
15432499127
15432505170
15432511334
15432517499
15432522321
15432527875
15432534284
15432541547
15432546674
15432553327
15432558698
15432563702
15432568402
15432576032
15432580914
15432588422
15432591657
15432599103
15432604657
15432611249
15432616925
15432625043
15432630475
15432636029
15432641400
15432647015
15432653058
15432657879
15432665082
15432672040
15432677716
15432683697
15432688519
15432694562
15432700482
15432705304
15432712262
15432717572
15432724835
15432730755
15432737347
15432743573
15432749676
15432756390
15432762677
15432769574
15432776348
15432783306
15432788677
15432795635
15432801129
15432809246
15432812908
15432821942
15432825482
15432834210
15432841168
15432847149
15432851421
15432859417
15432864544
15432870770
15432875103
15432882916
15432890240
15432895123
15432902630
15432909588
15432915630
15432920330
15432926128
15432930523
15432936687
15432942852
15432948650
15432955059
15432961590
15432966595
15432973553
15432978252
15432984539
15432989910
15432997722
15433001384
15433009319
15433012615
15433021587
15433024944
15433033001
15433040203
15433046672
15433052227
15433057842
15433063335
15433069194
15433075176
15433079509
15433085979
15433092144
15433098552
15433105449
15433110942
15433115642
15433121562
15433127483
15433134441
15433137920
15433145244
15433150066
15433156596
15433161418
15433168681
15433173625
15433182292
15433188518
15433194499
15433200053
15433206096
15433211711
15433217509
15433225200
15433231853
15433237102
15433243205
15433247905
15433254069
15433259807
15433265971
15433271708
15433278972
15433284282
15433289042
15433295939
15433300700
15433307109
15433311931
15433319987
15433326335
15433332316
15433338115
15433344218
15433350871
15433356974
15433363139
15433369548
15433375346
15433381083
15433386515
15433392314
15433398173
15433404338
15433410868
15433417582
15433423319
15433429484
15433435099
15433439921
15433445841
15433451945
15433458415
15433464335
15433470438
15433476298
15433481791
15433486613
15433494486
15433499613
15433505778
15433512003
15433518046
15433524271
15433530253
15433536661
15433542826
15433548258
15433554606
15433561808
15433566019
15433572306
15433578348
15433583964
15433588297
15433595438
15433601847
15433607767
15433612589
15433620096
15433625650
15433630777
15433635477
15433643534
15433649759
15433655680
15433661356
15433667032
15433672953
15433678690
15433684793
15433690775
15433696512
15433702188
15433707743
15433713297
15433719583
15433723795
15433730142
15433737650
15433744669
15433749979
15433757059
15433763040
15433769510
15433775919
15433782083
15433788797
15433793558
15433800882
15433805826
15433811990
15433818216
15433824319
15433829324
15433835916
15433841043
15433847879
15433853372
15433859842
15433866250
15433872415
15433879373
15433883767
15433890359
15433896707
15433902078
15433906900
15433914224
15433917825
15433925821
15433932412
15433936868
15433944253
15433949685
15433956460
15433961587
15433969705
15433973001
15433979959
15433986428
15433992837
15433998635
15434005349
15434011453
15434016274
15434023538
15434027139
15434035623
15434039285
15434049416
15434054604
15434060647
15434067239
15434072244
15434079141
15434084084
15434090859
15434097024
15434103005
15434108804
15434114602
15434120766
15434125283
15434133889
15434138894
15434145180
15434150368
15434157387
15434164162
15434169594
15434174965
15434180764
15434187295
15434193093
15434198952
15434204689
15434211586
15434218728
15434224648
15434230446
15434236733
15434241616
15434247231
15434252358
15434259133
15434266091
15434272499
15434278237
15434283730
15434288307
15434294716
15434301552
15434308449
15434313881
15434320534
15434325966
15434331642
15434337502
15434343788
15434351357
15434358009
15434363564
15434370522
15434375160
15434381325
15434389748
15434395912
15434401710
15434407814
15434414162
15434419777
15434424599
15434431496
15434436806
15434445839
15434451759
15434457680
15434463600
15434468056
15434474342
15434480263
15434487831
15434491554
15434498756
15434504432
15434509559
15434515236
15434521644
15434529152
15434534034
15434541053
15434546791
15434552406
15434558021
15434564491
15434570961
15434577125
15434584022
15434588417
15434595130
15434601539
15434606666
15434611671
15434618751
15434622413
15434630164
15434635902
15434641578
15434648170
15434654762
15434661964
15434665565
15434673438
15434679847
15434685218
15434690833
15434697425
15434703834
15434710242
15434716163
15434720924
15434727759
15434733314
15434741431
15434747169
15434753699
15434760352
15434766700
15434772376
15434777198
15434784461
15434789832
15434797095
15434802649
15434808509
15434814856
15434821082
15434825660
15434831458
15434837867
15434844764
15434850318
15434855139
15434861792
15434868262
15434874121
15434880896
15434887549
15434894873
15434899085
15434906531
15434910498
15434919715
15434927039
15434932105
15434938330
15434943884
15434950720
15434956030
15434962866
15434970313
15434975867
15434982459
15434988196
15434993628
15434999853
15435006811
15435011328
15435019873
15435023657
15435031592
15435037817
15435044043
15435051062
15435056799
15435063818
15435068884
15435075354
15435079504
15435087622
15435092627
15435099035
15435105932
15435111364
15435116919
15435123816
15435130529
15435137121
15435142736
15435148840
15435155188
15435161718
15435166723
15435173498
15435178930
15435185583
15435191015
15435197973
15435204443
15435211096
15435216772
15435223303
15435230505
15435235693
15435242407
15435247778
15435254125
15435261572
15435266760
15435271642
15435279638
15435285436
15435291967
15435297643
15435303197
15435308507
15435315771
15435322973
15435328649
15435335180
15435340307
15435349401
15435355993
15435362035
15435366186
15435373632
15435380834
15435385717
15435391698
15435397863
15435404332
15435410253
15435415807
15435421727
15435426366
15435433934
15435439611
15435446263
15435451024
15435456517
15435464025
15435470006
15435475072
15435481175
15435487645
15435494115
15435499974
15435505773
15435512303
15435517980
15435524388
15435528417
15435536046
15435542149
15435548070
15435555211
15435560887
15435568150
15435573827
15435579625
15435584996
15435591893
15435598729
15435604893
15435610509
15435614964
15435621678
15435628148
15435633519
15435638768
15435645482
15435651158
15435657139
15435664036
15435670445
15435676243
15435682042
15435688511
15435693638
15435700718
15435707310
15435713719
15435717442
15435726170
15435731480
15435737584
15435744603
15435750157
15435756810
15435763707
15435769261
15435774082
15435781040
15435787632
15435793492
15435800022
15435807224
15435812168
15435817051
15435823094
15435829807
15435835117
15435842259
15435848606
15435853428
15435860813
15435869053
15435875401
15435881077
15435887913
15435893467
15435900242
15435906223
15435911961
15435917393
15435925022
15435932468
15435937351
15435944004
15435948276
15435956028
15435961887
15435967258
15435974155
15435980198
15435985630
15435992466
15435996006
15436003147
