14902905574
14902913142
14902918147
14902926264
14902933100
14902937983
14902945857
14902951899
14902958125
14902964533
14902969233
14902977351
14902984004
14902990046
14902997797
14903003230
14903010004
14903016840
14903023920
14903029230
14903039179
14903043085
14903052058
14903058466
14903065119
14903071467
14903076960
14903084833
14903090510
14903098383
14903102472
14903111139
14903118586
14903123652
14903130182
14903136103
14903144465
14903151423
14903158381
14903165583
14903171625
14903178827
14903184259
14903192865
14903200128
14903206903
14903212885
14903220880
14903227777
14903234064
14903242487
14903247492
14903256952
14903261163
14903269647
14903278558
14903285822
14903294489
14903302118
14903308893
14903316766
14903322504
14903329217
14903338129
14903345209
14903351861
14903361017
14903368280
14903375543
14903382562
14903390680
14903399164
14903408746
14903414850
14903421991
14903429803
14903436151
14903444452
14903452447
14903456964
14903465814
14903472345
14903480889
14903487725
14903495111
14903502862
14903511773
14903518975
14903525201
14903532464
14903538201
14903545770
14903554192
14903558709
14903567864
14903575066
14903581963
14903589410
14903596978
14903604485
14903613213
14903619500
14903627923
14903633904
14903643182
14903649834
14903657830
14903665826
14903671624
14903678582
14903685235
14903691643
14903700066
14903708306
14903716912
14903723565
14903731011
14903737542
14903744805
14903752800
14903762566
14903772576
14903781548
14903791985
14903796929
14903807549
14903814873
14903824455
14903833428
14903838249
14903850517
14903858818
14903866570
14903873589
14903881279
14903887383
14903895927
14903903252
14903911858
14903918449
14903926445
14903935234
14903942009
14903950554
14903957268
14903969230
14903977470
14903982536
14903993461
14903999931
14904007560
14904015556
14904023857
14904031852
14904038994
14904046196
14904055290
14904062492
14904071098
14904076530
14904087883
14904093132
14904103813
14904108879
14904119926
14904125541
14904135673
14904143913
14904150382
14904157401
14904166496
14904174430
14904182853
14904190421
14904199271
14904206351
14904213981
14904224113
14904232963
14904239860
14904249808
14904256217
14904266349
14904273246
14904283195
14904289786
14904298148
14904306815
14904315421
14904324454
14904332328
14904338858
14904344046
14904355948
14904361136
14904372550
14904379691
14904388236
14904395438
14904406546
14904415213
14904422171
14904429495
14904438346
14904445609
14904455924
14904464346
14904473807
14904481131
14904490714
14904500113
14904507925
14904517508
14904527457
14904534964
14904544241
14904553030
14904560965
14904568045
14904576895
14904585684
14904594717
14904601797
14904610952
14904621634
14904627981
14904636953
14904644705
14904654531
14904662771
14904671499
14904679190
14904697256
14904708059
14904718191
14904726126
14904735037
14904741628
14904750417
14904757925
14904766592
14904776235
14904783743
14904792165
14904800527
14904809194
14904816579
14904824697
14904831533
14904842885
14904850698
14904859731
14904867605
14904877126
14904884145
14904891591
14904900625
14904907033
14904918874
14904924611
14904935292
14904941335
14904952687
14904960622
14904968679
14904976430
14904985219
14904992726
14905002492
14905009816
14905018666
14905026296
14905035024
14905043385
14905049916
14905057179
14905063710
14905070851
14905078114
14905085255
14905092458
14905100331
14905108022
14905114980
14905122548
14905129262
14905136830
14905143788
14905151234
14905159230
14905168019
14905175587
14905184620
14905191639
14905200062
14905208485
14905217396
14905226613
14905232594
14905241932
14905250904
14905258229
14905267628
14905276417
14905283741
14905291127
14905299732
14905307240
14905314015
14905320484
14905330555
14905337574
14905346790
14905352406
14905364307
14905373219
14905382008
14905389759
14905399220
14905407642
14905414722
14905424183
14905430958
14905439625
14905445301
14905457691
14905466419
14905473133
14905483326
14905490101
14905497913
14905505848
14905511707
14905521473
14905528248
14905536914
14905545520
14905553089
14905558643
14905566883
14905572742
14905580432
14905586475
14905595264
14905599658
14905608386
14905615100
14905621692
14905629138
14905634082
14905640918
14905647815
14905652820
14905659351
14905664661
14905670886
14905676563
14905683093
14905689197
14905694812
14905700671
14905706165
14905710803
14905719348
14905725146
14905730517
14905736255
14905741748
14905747424
14905752856
14905760547
14905766894
14905773547
14905778125
14905785083
14905789660
14905795520
14905800097
14905808520
14905814990
14905820422
14905825793
14905831286
14905836963
14905842334
14905849353
14905855578
14905862170
14905866748
14905873217
14905877978
14905883349
14905888049
14905897082
14905902758
14905908190
14905913500
14905918810
14905923876
14905930407
14905936450
14905940722
14905947436
14905951891
14905958117
14905963000
14905969042
14905975512
14905981677
14905988696
14905994982
14906000292
14906006701
14906013781
14906020068
14906025256
14906032580
14906039171
14906044909
14906049792
14906055102
14906061266
14906066210
14906071032
14906077135
14906082018
14906087511
14906092211
14906099840
14906105394
14906111071
14906118151
14906125414
14906130724
14906137255
14906142199
14906147387
14906153612
14906159594
14906164476
14906170702
14906175707
14906181932
14906186815
14906191881
14906196642
14906203050
14906207689
14906214647
14906220384
14906224779
14906229723
14906236315
14906241991
14906249254
14906254930
14906262193
14906266039
14906274522
14906278185
14906285692
14906289354
14906296800
14906300401
14906307237
14906311998
14906317674
14906322496
14906328050
14906333238
14906340074
14906343675
14906351366
14906354845
14906361497
14906366319
14906373033
14906376573
14906383470
14906387010
14906394517
14906400560
14906406236
14906409898
14906416734
14906420213
14906427537
14906434190
14906440782
14906444993
14906452806
14906456407
14906463975
14906469651
14906475328
14906478990
14906486131
14906489671
14906496873
14906500352
14906507127
14906513413
14906517869
14906522630
14906529160
14906535142
14906541001
14906544663
14906551133
14906554612
14906561326
14906566148
14906573106
14906576585
14906582993
14906589036
14906593430
14906599168
14906605027
14906608689
14906616196
14906622483
14906627000
14906630540
14906638291
14906641892
14906649949
14906653367
14906660020
14906665940
14906670518
14906676804
14906682663
14906686509
14906694321
14906698166
14906706711
14906710434
14906717881
14906721482
14906728501
14906732102
14906740097
14906745407
14906752488
14906759262
14906765610
14906770554
14906776718
14906781967
14906787888
14906793320
14906799057
14906804123
14906809921
14906816513
14906821823
14906828537
14906834763
14906840195
14906846176
14906850876
14906856613
14906861679
14906867477
14906873032
14906878586
14906883225
14906889511
14906895187
14906900131
14906906174
14906911911
14906917099
14906922836
14906929977
14906935348
14906941818
14906948410
14906954086
14906960983
14906967758
14906972702
14906980087
14906985153
14906993088
14906996750
14907004501
14907011276
14907017502
14907022934
14907028793
14907034591
14907041183
14907046981
14907051864
14907059005
14907064071
14907071456
14907077987
14907083724
14907088546
14907094161
14907101180
14907107772
14907113510
14907120529
14907126266
14907131210
14907137435
14907142684
14907149703
14907156417
14907163009
14907168807
14907174545
14907181380
14907186446
14907192428
14907197311
14907205306
14907210555
14907218551
14907224471
14907230086
14907236312
14907240951
14907248031
14907254500
14907260543
14907265609
14907272933
14907277755
14907284713
14907291060
14907297591
14907304671
14907309310
14907316573
14907321334
14907327498
14907332625
14907340071
14907345198
14907352034
14907357833
14907363814
14907370345
14907375960
14907382369
14907388777
14907394026
14907399214
14907406172
14907411116
14907418440
14907422041
14907430708
14907436446
14907442183
14907448225
14907453963
14907460677
14907467207
14907474287
14907480208
14907486922
14907492964
14907499068
14907504500
14907510237
14907516890
14907522810
14907529768
14907534712
14907541853
14907545637
14907554243
14907557966
14907566145
14907569563
14907578718
14907582136
14907591108
14907597456
14907602034
14907608809
14907615461
14907619062
14907626692
14907630354
14907638044
14907641462
14907649763
14907655928
14907661970
14907665571
14907674177
14907677778
14907686445
14907692182
14907698225
14907701887
14907709760
14907713484
14907721113
14907724653
14907732282
14907738386
14907744306
14907750837
14907757124
14907763593
14907770002
14907776228
14907781049
14907788129
14907793806
14907800031
14907806257
14907810895
14907816938
14907822797
14907829023
14907835065
14907841596
14907848493
14907854841
14907859846
14907866193
14907873090
14907879133
14907883649
14907889509
14907896528
14907901349
14907907941
14907914350
14907921247
14907927655
14907932599
14907939069
14907946027
14907951276
14907954633
14907964154
14907970563
14907976850
14907982282
14907987958
14907994428
14907999555
14908005841
14908011395
14908016095
14908021771
14908026959
14908032758
14908039411
14908044415
14908051068
14908057843
14908063825
14908069074
14908076459
14908082745
14908088055
14908094830
14908099835
14908105756
14908111432
14908117352
14908123089
14908129498
14908135663
14908142193
14908147626
14908154156
14908160626
14908166913
14908172406
14908178448
14908184857
14908189862
14908197491
14908202740
14908208966
14908213238
14908219647
14908224774
14908230450
14908236615
14908242047
14908246502
14908252362
14908256939
14908264569
14908269818
14908276104
14908282696
14908288372
14908295147
14908301800
14908306378
14908311932
14908317852
14908324566
14908329022
14908334881
14908340984
14908345318
14908351605
14908356731
14908361614
14908368816
14908373638
14908380169
14908384869
14908391766
14908399029
14908404034
14908408306
14908413921
14908420086
14908425884
14908430645
14908436931
14908441753
14908449627
14908455364
14908462505
14908467449
14908473736
14908478435
14908483928
14908488872
14908494426
14908500713
14908506084
14908511028
14908516460
14908522625
14908527019
14908533001
14908537944
14908542766
14908549968
14908555095
14908561260
14908566204
14908571880
14908576641
14908582195
14908587078
14908594280
14908600017
14908606670
14908611858
14908618022
14908623027
14908628642
14908633586
14908641460
14908645000
14908653728
14908657512
14908663860
14908668864
14908676067
14908679668
14908686259
14908691936
14908698894
14908704631
14908711162
14908716350
14908722880
14908727763
14908735087
14908738444
14908748332
14908752116
14908760295
14908763774
14908771953
14908775554
14908782878
14908786418
14908794841
14908798808
14908807475
14908814433
14908819743
14908826762
14908832499
14908837748
14908843913
14908847575
14908855815
14908859233
14908869120
14908875224
14908881816
14908887919
14908894267
14908899455
14908906657
14908913493
14908917094
14908923991
14908927470
14908934672
14908938029
14908945109
14908948466
14908955973
14908959513
14908967143
14908973734
14908978190
14908983988
14908989909
14908996317
14909002543
14909007487
14909013285
14909019327
14909023600
14909029215
14909034769
14909041910
14909046610
14909054300
14909061930
14909067911
14909073099
14909078898
14909083780
14909090738
14909094645
14909104654
14909108683
14909115946
14909119669
14909126383
14909132120
14909137552
14909141031
14909148172
14909153727
14909159525
14909165262
14909169657
14909175394
14909180948
14909187052
14909193643
14909199991
14909206400
14909212381
14909217447
14909223917
14909230447
14909235819
14909240213
14909246195
14909252298
14909257364
14909261575
14909267862
14909273904
14909280740
14909285501
14909291849
14909297586
14909303567
14909307168
14909314249
14909317789
14909325906
14909329629
14909337991
14909344766
14909349771
14909356424
14909363199
14909369302
14909376199
14909380777
14909386758
14909392495
14909398477
14909405069
14909411660
14909417520
14909424173
14909429300
14909436135
14909442544
14909447305
14909455484
14909460244
14909467385
14909473794
14909479959
14909484475
14909489358
14909495400
14909500344
14909505105
14909512246
14909517251
14909522927
14909527688
14909533852
14909538674
14909545083
14909549844
14909556435
14909560098
14909566811
14909571694
14909578896
14909582680
14909590920
14909594765
14909604104
14909608132
14909615822
14909619546
14909627236
14909630593
14909639565
14909643166
14909651650
14909658303
14909663064
14909669411
14909675698
14909681252
14909685585
14909691811
14909697365
14909702919
14909708840
14909714516
14909720436
14909726479
14909732460
14909738564
14909744912
14909751198
14909758034
14909764015
14909770729
14909776406
14909782997
14909788918
14909795510
14909800942
14909806069
14909812355
14909818825
14909824074
14909830605
14909837013
14909842262
14909850563
14909854164
14909862770
14909868874
14909875954
14909879555
14909887672
14909891457
14909899452
14909906410
14909912697
14909917885
14909923866
14909929787
14909936256
14909942726
14909948890
14909954689
14909960670
14909966408
14909972389
14909978920
14909985573
14909991798
14909996315
14910002784
14910008949
14910013343
14910019081
14910025795
14910033241
14910038551
14910044654
14910051063
14910055885
14910062110
14910066871
14910072669
14910077369
14910083717
14910089515
14910096961
14910100929
14910109474
14910113563
14910123023
14910128333
14910134559
14910138404
14910146522
14910152381
14910156776
14910163062
14910168800
14910173499
14910179115
14910184669
14910191199
14910197059
14910203406
14910209937
14910216651
14910222205
14910228980
14910235389
14910242347
14910248511
14910253394
14910260596
14910265906
14910273536
14910278235
14910286841
14910291419
14910297217
14910302039
14910310096
14910315039
14910324622
14910330176
14910336463
14910342749
14910348975
14910357642
14910364905
14910370825
14910376563
14910381018
14910388159
14910394019
14910400855
14910407141
14910412573
14910418250
14910423804
14910430396
14910436316
14910442908
14910448584
14910454810
14910458105
14910465674
14910472021
14910477637
14910483618
14910490149
14910496497
14910503027
14910510779
14910517615
14910523840
14910529150
14910535193
14910541479
14910546423
14910550940
14910557959
14910561010
14910569555
14910576880
14910582922
14910589270
14910594946
14910599951
14910607580
14910614904
14910620337
14910626196
14910633398
14910640356
14910647924
14910654150
14910660375
14910667700
14910674291
14910680273
14910687231
14910692541
14910699377
14910707006
14910713476
14910719640
14910723425
14910731603
14910738805
14910743993
14910751379
14910757909
14910764440
14910771703
14910780187
14910787389
14910792638
14910798009
14910805639
14910812108
14910818395
14910824071
14910830724
14910836400
14910843542
14910849889
14910856847
14910861791
14910868505
14910875524
14910881139
14910886571
14910892247
14910899999
14910905919
14910913121
14910919225
14910922460
14910931798
14910937230
14910942113
14910949437
14910956395
14910961400
14910969274
14910976171
14910982091
14910988622
14910993627
14910999303
14911005834
14911012486
14911018407
14911025121
14911031529
14911037450
14911043675
14911050755
14911055760
14911062779
14911068761
14911074986
14911082005
14911085728
14911094456
14911100865
14911105931
14911112584
14911117955
14911125218
14911132115
14911137852
14911145054
14911151402
14911157078
14911164036
14911167759
14911175145
14911181797
14911187657
14911194981
14911202000
14911208165
14911213108
14911218174
14911226841
14911232457
14911239476
14911246373
14911252476
14911258763
14911265599
14911271275
14911278416
14911284825
14911291172
14911296360
14911301365
14911309116
14911315891
14911321079
14911329441
14911334446
14911340672
14911347019
14911353489
14911360996
14911367283
14911374363
14911379856
14911383762
14911392795
14911400425
14911405613
14911412327
14911416111
14911425999
14911431797
14911437900
14911445164
14911451206
14911456760
14911462558
14911469089
14911475437
14911480808
14911486606
14911493625
14911498813
14911505649
14911511081
14911518772
14911526157
14911532016
14911537754
14911543857
14911548374
14911556430
14911561557
14911568149
14911573154
14911580783
14911587009
14911592319
14911598056
14911604587
14911612644
14911620029
14911625461
14911632541
14911636142
14911645053
14911652499
14911659030
14911664645
14911670139
14911676364
14911681979
14911687411
14911694369
14911697604
14911704867
14911710971
14911716830
14911723544
14911730319
14911737094
14911745212
14911752047
14911757663
14911763766
14911771090
14911777072
14911783603
14911789401
14911795382
14911802096
14911810275
14911816806
14911823642
14911829867
14911836764
14911842074
14911849276
14911857394
14911861666
14911868563
14911872164
14911879183
14911885531
14911889987
14911894930
14911901644
14911907382
14911913546
14911919039
14911924838
14911928439
14911935214
14911941073
14911946566
14911951388
14911957186
14911962618
14911968356
14911973910
14911979464
14911984286
14911990084
14911995577
14912001192
14912006624
14912011935
14912019625
14912024996
14912031405
14912038119
14912044954
14912050387
14912057100
14912066134
14912071749
14912077242
14912084139
14912090059
14912096163
14912102816
14912108919
14912114168
14912120089
14912126009
14912132357
14912139070
14912144136
14912150606
14912155611
14912161653
14912166475
14912175020
14912181063
14912186861
14912192964
14912199434
14912204805
14912209505
14912217622
14912224458
14912230318
14912236238
14912240816
14912247957
14912253694
14912260591
14912268037
14912275362
14912280977
14912286226
14912293184
14912299776
14912306978
14912314607
14912318025
14912326509
14912332490
14912338960
14912345735
14912350801
14912359773
14912365510
14912371675
14912377778
14912384004
14912389741
14912397065
14912403047
14912406648
14912413667
14912419953
14912425447
14912431550
14912437715
14912444123
14912450837
14912456880
14912464570
14912468843
14912479707
14912486543
14912492219
14912499482
14912503449
14912511323
14912518098
14912523225
14912531587
14912535310
14912542573
14912549165
14912553742
14912561066
14912567048
14912575471
14912581879
14912588227
14912593964
14912601105
14912607758
14912614899
14912620148
14912627595
14912631745
14912639985
14912646637
14912652985
14912659089
14912665864
14912672333
14912677582
14912684418
14912691376
14912697419
14912702546
14912708405
14912714692
14912721649
14912727509
14912733124
14912741181
14912747589
14912753510
14912760346
14912766632
14912772980
14912780487
14912785370
14912792511
14912798737
14912804657
14912809845
14912815704
14912823029
14912828095
14912835114
14912841766
14912846222
14912852692
14912860260
14912865021
14912870392
14912877411
14912883575
14912888824
14912895172
14912901031
14912908111
14912914520
14912920257
14912925079
14912930633
14912935699
14912943084
14912946563
14912954803
14912960785
14912966278
14912972381
14912977569
14912984527
14912989349
14912995880
14913001983
14913006988
14913012054
14913018585
14913024505
14913030853
14913038116
14913044403
14913050872
14913054595
14913061675
14913065338
14913073272
14913076751
14913085052
14913090545
14913096343
14913102691
14913107818
14913114898
14913119842
14913127776
14913131622
14913138885
14913144317
14913150726
14913157134
14913163726
14913170013
14913175323
14913181914
14913187347
14913193572
14913199859
14913205474
14913212737
14913218230
14913224212
14913229705
14913235991
14913242217
14913248748
14913254729
14913261870
14913266997
14913273101
14913278472
14913285064
14913288787
14913296843
14913303313
14913309722
14913315337
14913321135
14913327422
14913333586
14913340178
14913346160
14913352202
14913358184
14913364165
14913370085
14913375212
14913382353
14913389250
14913395964
14913401579
14913407500
14913413542
14913417754
14913424895
14913429778
14913434782
14913440764
14913445708
14913450896
14913458708
14913462492
14913471220
14913474760
14913481718
14913487944
14913494231
14913500395
14913507414
14913514372
14913518217
14913526640
14913532438
14913538542
14913544340
14913549284
14913557036
14913562101
14913568571
14913572294
14913579680
14913586699
14913592558
14913598906
14913604826
14913610929
14913617643
14913622709
14913628874
14913634306
14913639250
14913645536
14913652555
14913658354
14913663725
14913669889
14913675627
14913682035
14913687773
14913692960
14913700224
14913705961
14913711698
14913716581
14913722501
14913729948
14913735380
14913741056
14913746610
14913753629
14913759306
14913766019
14913769620
14913777616
14913783292
14913789030
14913795133
14913801481
14913807767
14913813505
14913820890
14913826688
14913832975
14913839078
14913843900
14913850309
14913855375
14913863004
14913868253
14913874845
14913880765
14913885343
14913891629
14913897062
14913905790
14913910733
14913915982
14913921598
14913928861
14913935392
14913940946
14913949124
14913954251
14913961576
14913967130
14913973050
14913979276
14913986722
14913992825
14914000089
14914004727
14914010404
14914017117
14914023343
14914029385
14914036893
14914042691
14914048856
14914054654
14914060269
14914064969
14914073209
14914078885
14914083646
14914090481
14914096280
14914102017
14914107876
14914113247
14914119534
14914124417
14914130215
14914135769
14914142727
14914148160
14914154507
14914159329
14914168911
14914175198
14914180203
14914187222
14914192410
14914200039
14914206814
14914213284
14914220303
14914226773
14914232205
14914237088
14914244351
14914250271
14914256619
14914262905
14914269131
14914274441
14914278896
14914285122
14914290371
14914297207
14914300869
14914307461
14914313381
14914319424
14914325588
14914332058
14914337978
14914344692
14914350002
14914354580
14914361172
14914366787
14914373562
14914377163
14914385708
14914392116
14914397060
14914403713
14914410000
14914417080
14914422268
14914427944
14914434353
14914441372
14914447719
14914454067
14914460964
14914467739
14914473903
14914479763
14914486538
14914493068
14914499416
14914504787
14914509182
14914515651
14914522060
14914528408
14914533596
14914540309
14914545986
14914552333
14914558010
14914563686
14914570766
14914576442
14914583400
14914589076
14914594264
14914598232
14914605678
14914609767
14914618861
14914624477
14914630275
14914635890
14914641444
14914648219
14914652614
14914659450
14914665126
14914671962
14914677577
14914683559
14914688380
14914695949
14914700038
14914707667
14914714015
14914720302
14914725001
14914731227
14914738246
14914743251
14914750026
14914755641
14914761866
14914767421
14914774012
14914777552
14914785731
14914789820
14914797572
14914803981
14914809046
14914816127
14914824061
14914830348
14914836634
14914842494
14914848536
14914855067
14914860682
14914865565
14914873438
14914880885
14914886683
14914892664
14914897913
14914904566
14914909510
14914915003
14914920069
14914926356
14914929957
14914937403
14914944788
14914950404
14914956324
14914960596
14914967676
14914973048
14914978968
14914985926
14914992701
14914997095
14915004420
14915010523
14915015284
14915021326
14915027064
14915032557
14915037195
14915044947
14915050501
14915056727
14915063501
14915068384
14915075281
14915081507
14915089014
14915094507
14915098963
14915104395
14915111292
14915114893
14915122950
14915128504
14915134668
14915140772
14915147058
14915152429
14915157312
14915162378
14915168421
14915174219
14915179407
14915186670
14915190454
14915197717
14915203027
14915210169
14915215356
14915220972
14915226465
14915232263
14915238428
14915243372
14915250085
14915256738
14915263086
14915268091
14915273828
14915279199
14915286584
14915289697
14915297876
14915305627
14915311181
14915315881
14915321435
14915326562
14915332666
14915340173
14915345544
14915353540
14915359643
14915366052
14915372094
14915377710
14915384362
14915389306
14915397302
14915401513
14915409570
14915416467
14915421411
14915428063
14915435021
14915441674
14915448388
14915455163
14915462731
14915467980
14915474084
14915479028
14915486596
14915492883
14915499413
14915504845
14915509789
14915516076
14915522729
14915527978
14915533959
14915539819
14915546105
14915550683
14915556786
14915563439
14915570641
14915574425
14915583153
14915588708
14915593651
14915600670
14915606591
14915612938
14915620446
14915626061
14915632531
14915637658
14915644005
14915651879
14915657677
14915664452
14915672997
14915680260
14915687523
14915693261
14915700402
14915705773
14915715782
14915720970
14915728295
14915733055
14915739952
14915747948
14915753624
14915759484
14915765160
14915771629
14915777184
14915782738
14915790672
14915797325
14915802452
14915813133
14915818871
14915827538
14915834679
14915841026
14915847130
14915853783
14915860313
14915865379
14915873009
14915879173
14915885338
14915892479
14915899010
14915904747
14915911339
14915917503
14915923790
14915929893
14915936241
14915943199
14915947960
14915955833
14915960472
14915968040
14915972740
14915979332
14915986290
14915991783
14915999168
14916005088
14916010826
14916017051
14916023704
14916029014
14916036582
14916042686
14916048606
14916054527
14916060447
14916067771
14916072715
14916080283
14916086021
14916091819
14916097495
14916103172
14916110984
14916116050
14916123740
14916129966
14916135825
14916141868
14916148276
14916155295
14916161033
14916167564
14916171104
14916178550
14916185203
14916190513
14916198264
14916204673
14916209983
14916216330
14916220969
14916226829
14916233481
14916237998
14916245261
14916252036
14916258262
14916262900
14916270163
14916274741
14916281211
14916287680
14916294272
14916298728
14916306235
14916311240
14916317160
14916323691
14916328269
14916334738
14916340476
14916347251
14916353537
14916358969
14916365622
14916372519
14916378195
14916385336
14916391684
14916396750
14916403647
14916408713
14916414999
14916420065
14916426718
14916432089
14916439108
14916445334
14916449911
14916454977
14916462241
14916468344
14916474448
14916480673
14916486777
14916490317
14916497824
14916501364
14916509360
14916515158
14916521200
14916524801
14916533102
14916540060
14916544699
14916550924
14916556845
14916562948
14916568991
14916575033
14916580893
14916586996
14916592855
14916598776
14916603292
14916609396
14916615438
14916622274
14916626913
14916633688
14916639608
14916645590
14916650167
14916657125
14916663229
14916670248
14916675009
14916681967
14916688558
14916694235
14916701193
14916706319
14916713155
14916720419
14916726888
14916732626
14916737569
14916744100
14916749471
14916755941
14916760946
14916768697
14916773763
14916779623
14916784627
14916792074
14916797201
14916804464
14916811422
14916817525
14916821187
14916829671
14916834920
14916840719
14916844137
14916852254
14916859395
14916865682
14916870748
14916876973
14916882833
14916888997
14916895711
14916901998
14916908589
14916913533
14916920247
14916926473
14916933064
14916939961
14916946248
14916951070
14916957845
14916964375
14916970052
14916976521
14916981160
14916987813
14916993672
14917000264
14917007466
14917012898
14917019429
14917024739
14917032368
14917038533
14917044148
14917049397
14917057332
14917060933
14917068928
14917075093
14917081135
14917084736
14917091878
14917099812
14917106404
14917111897
14917118123
14917124470
14917130818
14917137043
14917143635
14917149556
14917156331
14917163166
14917169148
14917174397
14917180317
14917186726
14917192707
14917198567
14917205036
14917210957
14917215412
14917222737
14917227375
14917234272
14917240681
14917246906
14917251606
14917258747
14917265156
14917270039
14917276447
14917282429
14917287556
14917294575
14917299519
14917305622
14917310505
14917317707
14917322712
14917328754
14917333820
14917341206
14917346394
14917352619
14917357563
14917364155
14917369404
14917376423
14917381550
14917389545
14917396503
14917402973
14917406757
14917414631
14917421772
14917428180
14917431904
14917440387
14917447223
14917452045
14917459064
14917465107
14917470539
14917476520
14917480060
14917488300
14917493610
14917499591
14917505634
14917511737
14917518268
14917524311
14917530048
14917536151
14917542255
14917546832
14917553241
14917559223
14917565692
14917571979
14917578754
14917583820
14917590472
14917596942
14917604266
14917609210
14917616962
14917623981
14917630023
14917636676
14917642047
14917648639
14917655048
14917660419
14917666522
14917672992
14917678851
14917684039
14917690997
14917696063
14917703143
14917708392
14917714435
14917719439
14917725848
14917730792
14917737445
14917742450
14917749163
14917754229
14917761798
14917766925
14917773822
14917778949
14917786395
14917790118
14917798053
14917803851
14917810076
14917817340
14917823748
14917830767
14917835467
14917842669
14917847003
14917854022
14917860064
14917865923
14917871905
14917877825
14917882403
14917889666
14917894244
14917900591
14917906634
14917913409
14917917986
14917924761
14917931292
14917937395
14917942339
14917948748
14917955828
14917962420
14917967058
14917974932
14917980486
14917987261
14917994036
14918000384
14918005694
14918013079
14918019060
14918025042
14918028765
14918036821
14918040423
14918048662
14918054888
14918061174
14918064959
14918072466
14918076189
14918084490
14918090593
14918096819
14918103594
14918109880
14918116411
14918122759
14918128862
14918135271
14918140947
14918147417
14918150835
14918160784
14918167986
14918174455
14918180559
14918186601
14918192644
14918197282
14918204668
14918209245
14918216814
14918221330
14918228777
14918233354
14918239641
14918246049
14918252092
14918256547
14918262834
14918269304
14918274431
14918280473
14918286760
14918293840
14918300126
14918307084
14918313554
14918318620
14918325822
14918332780
14918339189
14918344621
14918351274
14918356218
14918363176
14918368180
14918375199
14918380998
14918388017
14918394731
14918401261
14918405229
14918413407
14918420487
14918426774
14918432267
14918438920
14918446977
14918451615
14918458634
14918464555
14918469865
14918476029
14918481645
14918487748
14918493668
14918499711
14918506608
14918511430
14918518143
14918524369
14918531327
14918536210
14918542985
14918549699
14918556290
14918561600
14918568131
14918575211
14918582169
14918587357
14918594376
14918600907
14918606888
14918611527
14918619401
14918624405
14918630204
14918636551
14918642350
14918647355
14918654801
14918659989
14918666520
14918671585
14918678971
14918684220
14918691117
14918696915
14918702713
14918708451
14918716324
14918722428
14918728958
14918735123
14918741898
14918748306
14918754776
14918761246
14918767777
14918771561
14918779373
14918784500
14918792862
14918796463
14918805069
14918811050
14918816971
14918823074
14918828873
14918836197
14918842422
14918844559
14918853226
14918859939
14918865982
14918870987
14918876907
14918883682
14918888260
14918895096
14918901382
14918906570
14918913467
14918919632
14918925735
14918933242
14918938858
14918946182
14918951675
14918958450
14918965347
14918971817
14918977127
14918983840
14918989212
14918996719
14919002029
14919009048
14919014053
14919020706
14919025711
14919033401
14919038589
14919044143
14919049087
14919056228
14919061416
14919067764
14919072952
14919080215
14919085281
14919093154
14919096633
14919104324
14919109451
14919115798
14919120864
14919129226
14919133193
14919140761
14919144485
14919153030
14919158645
14919164687
14919168227
14919177627
14919183059
14919189467
14919195876
14919202041
14919207290
14919213088
14919219375
14919225173
14919232375
14919236953
14919243239
14919248000
14919255446
14919260390
14919267531
14919272292
14919279494
14919284743
14919290663
14919295180
14919301039
14919306716
14919313368
14919319472
14919324843
14919329421
14919335463
14919341872
14919347609
14919352797
14919360549
14919365920
14919373183
14919379164
14919385451
14919392287
14919398756
14919406020
14919409804
14919417921
14919421706
14919429579
14919436476
14919441115
14919448561
14919455214
14919461561
14919466383
14919472243
14919477370
14919485121
14919489577
14919497084
14919503859
14919510206
14919516493
14919521498
14919528456
14919531996
14919540907
14919546644
14919552443
14919558607
14919563063
14919569227
14919575941
14919583448
14919588514
14919596083
14919599745
14919608229
14919612074
14919620191
14919627394
14919634168
14919639601
14919646314
14919652418
14919657301
14919664381
14919668897
14919676649
14919683118
14919688978
14919695631
14919700513
14919707044
14919712293
14919718946
14919725721
14919731092
14919737989
14919744337
14919750135
14919756422
14919762525
14919769300
14919776014
14919781873
14919788221
14919793653
14919798780
14919806104
14919809766
14919820020
14919825635
14919830091
14919837232
14919843824
14919849195
14919856336
14919862256
14919868055
14919873975
14919879773
14919885511
14919891065
14919896863
14919903760
14919910291
14919915723
14919920606
14919928601
14919932019
14919939832
14919943311
14919952832
14919958203
14919964124
14919970471
14919976819
14919982007
14919986890
14919994275
14919999646
14920008130
14920014111
14920019971
14920025769
14920032178
14920039075
14920044324
14920051404
14920058056
14920063916
14920070447
14920076245
14920081372
14920087536
14920094189
14920100476
14920105664
14920111706
14920118176
14920122693
14920128918
14920134961
14920142041
14920146557
14920154065
14920158703
14920165112
14920171643
14920176586
14920182873
14920189953
14920194958
14920200634
14920207165
14920212170
14920218640
14920224987
14920230725
14920239269
14920245495
14920251232
14920257397
14920264172
14920270641
14920275646
14920281994
14920287975
14920294018
14920298595
14920307323
14920315746
14920321056
14920328686
14920333630
14920340465
14920347118
14920352917
14920358532
14920365002
14920371471
14920377941
14920383678
14920388622
14920396862
14920400402
14920409130
14920415172
14920419933
14920427257
14920431652
14920437999
14920444103
14920450512
14920455516
14920462841
14920466198
14920475414
14920480541
14920486583
14920493114
14920499645
14920505992
14920511058
14920517650
14920521190
14920528819
14920532176
14920542125
14920549449
14920553966
14920560375
14920566600
14920572826
14920577647
14920585643
14920589244
14920596935
14920602794
14920608836
14920615550
14920620189
14920629039
14920634227
14920641490
14920648143
14920653819
14920659740
14920665721
14920671885
14920678477
14920685435
14920690257
14920697520
14920703502
14920709178
14920715587
14920721751
14920727366
14920733104
14920739451
14920745860
14920751231
14920756114
14920764964
14920770152
14920776133
14920782420
14920788279
14920794017
14920800364
14920807933
14920811717
14920819346
14920825694
14920833689
14920844187
14920853098
14920861460
14920868357
14920879771
14920885142
14920897532
14920906321
14920916453
14920928843
14920937449
14920946787
14920954966
14920963999
14920974070
14920982920
14920991770
14921001474
14921011423
14921020578
14921029245
14921039560
14921048716
14921058908
14921068369
14921078195
14921088083
14921097605
14921106577
14921117075
14921126718
14921136240
14921143808
14921154489
14921163950
14921173044
14921182809
14921192270
14921202585
14921212167
14921221200
14921231271
14921237802
14921248971
14921255807
14921266000
14921273813
14921283700
14921291513
14921302865
14921311166
14921318979
14921329171
14921337777
14921346933
14921356088
14921366647
14921377633
14921385507
14921394845
14921403939
14921412606
14921421334
14921429818
14921440377
14921448373
14921460275
14921469186
14921478036
14921487496
14921496957
14921505196
14921515389
14921523324
14921528878
14921535287
14921540291
14921548043
14921554146
14921561349
14921567696
14921573739
14921579964
14921585640
14921591012
14921598824
14921604928
14921609566
14921616219
14921625252
14921631234
14921637581
14921644905
14921651436
14921657906
14921662911
14921670479
14921676949
14921682625
14921688851
14921696541
14921701912
14921707039
14921715828
14921721810
14921727913
14921733772
14921738533
14921745430
14921750984
14921756294
14921762093
14921767769
14921775032
14921781075
14921786263
14921791512
14921797798
14921803535
14921808357
14921818306
14921823616
14921829903
14921834541
14921839729
14921846382
14921852913
14921859077
14921866463
14921870979
14921877937
14921883980
14921889778
14921895576
14921902168
14921907966
14921914314
14921920051
14921924995
14921931038
14921939643
14921945503
14921950935
14921958076
14921962348
14921969978
14921974678
14921981452
14921987617
14921993415
14922000434
14922005134
14922011909
14922015144
14922024421
14922030219
14922036262
14922041572
14922045966
14922052314
14922059089
14922065192
14922071418
14922076118
14922083320
14922089423
14922094978
14922101508
14922106269
14922113166
14922119086
14922124396
14922130683
14922136359
14922143073
14922150031
14922155890
14922162299
14922168708
14922175300
14922182013
14922187873
14922191352
14922198310
14922201728
14922209418
14922214911
14922220771
14922227607
14922234198
14922241095
14922246100
14922252143
14922257025
14922263983
14922269232
14922277045
14922283576
14922290167
14922297492
14922303900
14922309699
14922316351
14922322455
14922329291
14922335578
14922342719
14922347785
14922353522
14922361701
14922368353
14922374213
14922380133
14922385809
14922393683
14922398688
14922407599
14922413763
14922419501
14922425299
14922429816
14922437994
14922441412
14922451178
14922457464
14922461920
14922467962
14922474798
14922480353
14922486151
14922492437
14922498480
14922505438
14922510870
14922517035
14922523260
14922530279
14922537054
14922543219
14922551702
14922555914
14922562994
14922570501
14922576849
14922583197
14922589483
14922595037
14922602728
14922608648
14922615423
14922623419
14922628057
14922635076
14922640753
14922646978
14922653936
14922659551
14922667791
14922673101
14922677862
14922686407
14922692998
14922699651
14922705572
14922713201
14922718938
14922725469
14922732549
14922737615
14922744817
14922750066
14922755437
14922762517
14922767827
14922776494
14922781865
14922788457
14922796026
14922801946
14922808294
14922815191
14922822332
14922829412
14922835454
14922841863
14922848577
14922855230
14922861821
14922867314
14922875188
14922880498
14922889348
14922896489
14922902837
14922909245
14922916326
14922921941
14922927922
14922932500
14922939519
14922946294
14922952702
14922959721
14922965764
14922971257
14922978825
14922984990
14922991277
14922996770
14923001958
14923009526
14923015507
14923021062
14923027287
14923033513
14923039555
14923046452
14923052373
14923058110
14923065190
14923071293
14923076726
14923084416
14923089787
14923097722
14923104069
14923109929
14923118107
14923123722
14923129765
14923135624
14923141911
14923147892
14923155217
14923161930
14923167790
14923175846
14923182194
14923188847
14923194767
14923201115
14923208561
14923215153
14923222111
14923229313
14923235783
14923241825
14923249455
14923255131
14923260868
14923268314
14923274235
14923280827
14923286686
14923292484
14923298893
14923304874
14923310795
14923317203
14923322208
14923329166
14923335636
14923342838
14923348942
14923355289
14923360050
14923367557
14923373661
14923379825
14923385807
14923393497
14923398563
14923405765
14923411930
14923416813
14923424320
14923429020
14923436100
14923442997
14923447330
14923455875
14923462284
14923467777
14923475406
14923481998
14923487552
14923494388
14923500369
14923505313
14923513126
14923518009
14923526187
14923533267
14923538699
14923546207
14923553470
14923560916
14923567142
14923575198
14923580630
14923586368
14923593326
14923597903
14923606082
14923612918
14923618716
14923624515
14923629886
14923637820
14923644351
14923649539
14923656680
14923663394
14923668155
14923676211
14923682498
14923688296
14923695376
14923702029
14923707644
14923714663
14923720095
14923729129
14923735537
14923741519
14923747744
14923753970
14923761111
14923767764
14923773501
14923779116
14923787417
14923791812
14923799197
14923805728
14923811404
14923818850
14923825808
14923831301
14923838259
14923842471
14923850710
14923857424
14923864260
14923870425
14923877261
14923883364
14923888918
14923895632
14923901553
14923908327
14923912722
14923921450
14923926882
14923932802
14923939150
14923944704
14923950564
14923956850
14923961550
14923969973
14923976015
14923980959
14923988283
14923993593
14924000917
14924006716
14924012697
14924018923
14924026369
14924032351
14924039125
14924046511
14924053591
14924060610
14924067018
14924074098
14924079897
14924086550
14924092958
14924100466
14924106874
14924113283
14924119325
14924123476
14924131349
14924137697
14924143190
14924149110
14924154604
14924161745
14924167726
14924173280
14924181520
14924189333
14924195314
14924201356
14924206850
14924212038
14924218751
14924224550
14924231630
14924238038
14924243226
14924250734
14924255128
14924262330
14924269044
14924275087
14924281373
14924287416
14924292848
14924301454
14924309144
14924315126
14924321046
14924326234
14924332948
14924339357
14924345277
14924351625
14924357179
14924362367
14924369447
14924375367
14924383241
14924389710
14924395326
14924402589
14924405763
14924413209
14924419557
14924425843
14924430848
14924436891
14924443848
14924447450
14924456544
14924462342
14924468568
14924475831
14924478944
14924487550
14924493409
14924499146
14924505860
14924511536
14924518616
14924524354
14924531006
14924535523
14924540711
14924549256
14924555176
14924561585
14924569520
14924573670
14924580567
14924587342
14924592103
14924599488
14924605652
14924610962
14924617554
14924623413
14924629883
14924636658
14924642517
14924648682
14924654785
14924661927
14924665161
14924673218
14924679932
14924686646
14924692566
14924696167
14924704712
14924711487
14924717041
14924726135
14924731934
14924739502
14924744629
14924749634
14924757996
14924765503
14924770996
14924776367
14924781738
14924789307
14924795776
14924800110
14924808350
14924815918
14924823486
14924828491
14924836304
14924841369
14924850342
14924856811
14924861999
14924869751
14924875732
14924881469
14924889343
14924895080
14924900268
14924905761
14924911438
14924919067
14924925903
14924932617
14924939819
14924945861
14924951904
14924958557
14924963745
14924972351
14924978942
14924985046
14924991149
14924997619
14925004028
14925011840
14925017822
14925023559
14925029968
14925035827
14925042968
14925050231
14925055480
14925061279
14925066405
14925074218
14925081176
14925085387
14925092528
14925099547
14925104797
14925110778
14925116393
14925123778
14925129149
14925134521
14925141723
14925148009
14925152831
14925161559
14925167418
14925173766
14925181640
14925187560
14925193541
14925200621
14925208068
14925213988
14925220519
14925226683
14925232299
14925238219
14925244811
14925251097
14925257994
14925263610
14925270384
14925278868
14925284606
14925290099
14925295775
14925303160
14925308470
14925314940
14925321410
14925329161
14925335204
14925341612
14925347960
14925354430
14925360960
14925365965
14925372191
14925378905
14925383971
14925389830
14925396544
14925402098
14925409727
14925417174
14925423399
14925429930
14925434691
14925442076
14925448607
14925455321
14925463316
14925469542
14925476256
14925481749
14925489012
14925494383
14925502012
14925505980
14925513548
14925519773
14925527159
14925533262
14925540403
14925546141
14925551878
14925559935
14925565733
14925572569
14925578977
14925585386
14925591245
14925596494
14925604795
14925611265
14925617674
14925625425
14925631468
14925636839
14925642698
14925649717
14925655515
14925661924
14925668150
14925673460
14925680112
14925685911
14925693601
14925701658
14925707456
14925714048
14925720212
14925726438
14925733457
14925739988
14925747312
14925754148
14925759946
14925767148
14925774411
14925781064
14925785825
14925792112
14925797971
14925806028
14925810910
14925819394
14925825803
14925830259
14925838559
14925844968
14925851499
14925858213
14925865171
14925870969
14925877255
14925883115
14925890134
14925897336
14925903012
14925909787
14925915646
14925921994
14925928891
14925936032
14925941586
14925948300
14925951901
14925961362
14925968320
14925975339
14925980832
14925988034
14925994870
14926001706
14926007199
14926013791
14926021908
14926027279
14926032406
14926038083
14926042660
14926052365
14926057614
14926062924
14926071225
14926077389
14926082455
14926090573
14926095395
14926102658
14926108090
14926115414
14926120114
14926129391
14926137204
14926141842
14926148556
14926154354
14926159848
14926166683
14926173275
14926179074
14926186520
14926190792
14926197811
14926204525
14926211361
14926217648
14926222469
14926231320
14926238583
14926242916
14926250240
14926257870
14926264828
14926271481
14926277767
14926283871
14926291622
14926297970
14926303951
14926310543
14926314998
14926322384
14926329464
14926335018
14926342708
14926348568
14926353267
14926361385
14926367489
14926373226
14926380123
14926387203
14926393001
14926400081
14926404354
14926412593
14926418758
14926423153
14926431209
14926438594
14926443660
14926451717
14926457393
14926463314
14926470943
14926476131
14926481014
14926485896
14926492305
14926497981
14926503719
14926509090
14926516719
14926521785
14926528804
14926535762
14926542415
14926547603
14926553951
14926559383
14926567561
14926574886
14926581782
14926589168
14926593440
14926602595
14926610347
14926617915
14926623103
14926629390
14926635554
14926642024
14926648738
14926655024
14926661189
14926667720
14926674373
14926679438
14926687495
14926695063
14926701838
14926707515
14926713862
14926720881
14926725032
14926733699
14926739314
14926744380
14926751582
14926759455
14926764887
14926772151
14926779902
14926785700
14926791926
14926797419
14926804377
14926808100
14926815302
14926822077
14926827876
14926832636
14926838984
14926845271
14926850520
14926856989
14926863032
14926868586
14926875422
14926879816
14926886164
14926891352
14926897517
14926902338
14926910212
14926916010
14926920466
14926926203
14926932062
14926937433
14926943415
14926949091
14926954035
14926961542
14926968012
14926973749
14926978632
14926984064
14926990229
14926996515
14927003839
14927008783
14927015131
14927019953
14927027216
14927034052
14927040399
14927045160
14927053339
14927060297
14927065607
14927072870
14927076227
14927086054
14927094232
14927101007
14927107111
14927112238
14927118097
14927126459
14927134027
14927140985
14927147699
14927151544
14927159540
14927167047
14927172052
14927179559
14927184442
14927191217
14927197748
14927203363
14927210016
14927217279
14927225763
14927231744
14927236322
14927244867
14927249933
14927256036
14927263482
14927270074
14927275628
14927281854
14927287835
14927294366
14927300897
14927307122
14927313836
14927318963
14927327081
14927332513
14927338922
14927344293
14927350885
14927356317
14927364312
14927368096
14927375848
14927382562
14927388360
14927394036
14927399774
14927406793
14927413018
14927418206
14927424615
14927430474
14927435357
14927443353
14927448296
14927455865
14927462456
14927468743
14927474847
14927481255
14927486382
14927493157
14927498711
14927505303
14927510308
14927516595
14927523003
14927530266
14927535149
14927540032
14927549370
14927555047
14927560967
14927566216
14927572075
14927578362
14927581536
14927591546
14927596917
14927602044
14927608696
14927612481
14927619011
14927625054
14927631646
14927637200
14927642998
14927649040
14927654412
14927660332
14927665825
14927673454
14927679558
14927687065
14927693657
14927700249
14927705254
14927709892
14927717278
14927723869
14927729851
14927738213
14927743950
14927750664
14927757378
14927761467
14927768608
14927775383
14927781364
14927788689
14927794792
14927801140
14927808281
14927814751
14927820915
14927826042
14927832390
14927839592
14927847465
14927853142
14927858818
14927865837
14927871452
14927877433
14927881645
14927889457
14927895683
14927901359
14927908317
14927915092
14927921501
14927928337
14927934013
14927939506
14927947502
14927951408
14927960685
14927966606
14927973442
14927979972
14927986259
14927991203
14927999137
14928006156
14928011588
14928017875
14928024101
14928030204
14928036796
14928042533
14928048331
14928056388
14928062186
14928067985
14928074943
14928080680
14928088309
14928094718
14928100394
14928107108
14928111808
14928118827
14928124747
14928130668
14928138358
14928144278
14928150748
14928158805
14928165275
14928171378
14928177482
14928183768
14928189933
14928196524
14928202079
14928207511
14928212882
14928216605
14928224173
14928229727
14928234000
14928240592
14928247000
14928253714
14928260062
14928264823
14928270926
14928276480
14928282279
14928287772
14928294547
14928299979
14928305289
14928311575
14928317008
14928323660
14928330008
14928335806
14928342215
14928347403
14928353690
14928359671
14928365469
14928369864
14928376089
14928381277
14928388418
14928392386
14928399466
14928405264
14928411795
14928418509
14928424429
14928429983
14928436331
14928442801
14928447806
14928453543
14928459402
14928464468
14928469778
14928476858
14928481863
14928489126
14928493277
14928500662
14928506826
14928513052
14928519094
14928523733
14928529287
14928535147
14928540518
14928545645
14928553823
14928557546
14928565054
14928568472
14928575125
14928581472
14928586782
14928593740
14928598989
14928605764
14928612539
14928618337
14928623159
14928629079
14928633901
14928641836
14928645803
14928654531
14928659780
14928666799
14928670400
14928677663
14928684072
14928688955
14928695608
14928700918
14928707570
14928714284
14928719655
14928724599
14928730276
14928734060
14928743032
14928747426
14928753957
14928759084
14928765798
14928771352
14928775808
14928782766
14928787465
14928793630
14928798268
14928805288
14928809804
14928815419
14928821584
14928826955
14928831777
14928836904
14928843068
14928848378
14928853200
14928860097
14928865346
14928870778
14928877553
14928883107
14928888722
14928895741
14928901418
14928907460
14928913075
14928920277
14928926015
14928932851
14928938649
14928944264
14928949391
14928957082
14928962147
14928968068
14928973805
14928980824
14928986500
14928992970
14928998585
14929006154
14929010243
14929017750
14929023305
14929030629
14929036488
14929042164
14929047596
14929056630
14929062001
14929068165
14929073231
14929080067
14929083668
14929090626
14929094471
14929102467
14929108387
14929114613
14929120777
14929125721
14929131214
14929138417
14929145436
14929151295
14929155079
14929162403
14929166065
14929173451
14929179188
14929183460
14929188221
14929195728
14929199391
14929205921
14929211964
14929217823
14929223927
14929230274
14929234303
14929241444
14929247791
14929253529
14929258289
14929264515
14929270374
14929274830
14929281299
14929287037
14929291675
14929297352
14929300831
14929307728
14929313526
14929317798
14929324940
14929329334
14929335132
14929340687
14929345020
14929350635
14929356312
14929362354
14929367664
14929373340
14929378467
14929384266
14929389026
14929394764
14929400684
14929404895
14929411975
14929416675
14929423938
14929428455
14929435169
14929441089
14929447620
14929453906
14929460742
14929465808
14929472705
14929475940
14929484302
14929490405
14929496021
14929502918
14929509876
14929515979
14929521045
14929527942
14929534473
14929539966
14929543445
14929552783
14929558276
14929564746
14929570117
14929576160
14929581897
14929586658
14929595386
14929601672
14929607409
14929613208
14929619067
14929625171
14929631091
14929637866
14929642932
14929650012
14929655383
14929661792
14929667529
14929675036
14929679919
14929685839
14929692858
14929698291
14929704577
14929709338
14929715991
14929722033
14929728686
14929735095
14929740405
14929747546
14929752551
14929759875
14929764453
14929771655
14929778430
14929784533
14929789843
14929795458
14929801257
14929807971
14929814440
14929819445
14929826403
14929831652
14929838000
14929844164
14929851183
14929856860
14929863451
14929869006
14929875048
14929880480
14929885546
14929893786
14929897082
14929906420
14929912707
14929918383
14929924181
14929929979
14929935412
14929941698
14929948290
14929953295
14929960558
14929966662
14929972521
14929978014
14929983751
14929991747
14929996813
14930003588
14930008470
14930016222
14930019457
14930028429
14930033800
14930039781
14930047167
14930053331
14930058641
14930063524
14930070421
14930077440
14930083788
14930089647
14930095873
14930101793
14930107958
14930113939
14930118456
14930125841
14930131029
14930137865
14930141344
14930149278
14930156358
14930161180
14930168504
14930175035
14930180650
14930185655
14930192003
14930199205
14930204881
14930210496
14930218248
14930224473
14930228624
14930235948
14930240709
14930247850
14930253160
14930260301
14930263841
14930271837
14930278306
14930284044
14930290269
14930294908
14930303086
14930309495
14930315599
14930320970
14930326524
14930333055
14930339280
14930344895
14930350816
14930359056
14930363694
14930369920
14930374619
14930382005
14930389268
14930396165
14930402146
14930408189
14930415635
14930421922
14930427293
14930431931
14930440232
14930446213
14930452256
14930458543
14930464036
14930470261
14930474595
14930482346
14930487473
14930493333
14930497910
14930506455
14930512314
14930518357
14930524094
14930530015
14930537156
14930544114
14930548691
14930553513
14930561203
14930564560
14930574692
14930579941
14930585556
14930592636
14930596909
14930604843
14930609909
14930616745
14930621811
14930629502
14930634873
14930640488
14930646775
14930652939
14930659104
14930665634
14930672531
14930677414
14930684494
14930690476
14930696091
14930701340
14930707382
14930713852
14930719955
14930726730
14930731735
14930738449
14930743149
14930750412
14930756760
14930762375
14930768295
14930774216
14930780502
14930786606
14930794662
14930798263
14930805710
14930811569
14930817673
14930824447
14930830429
14930836532
14930843429
14930848861
14930854965
14930860946
14930865951
14930872909
14930877609
14930885727
14930892379
14930898300
14930904525
14930910873
14930915756
14930921737
14930929489
14930936630
14930942367
14930948776
14930955245
14930960616
14930965438
14930974410
14930979598
14930985275
14930992172
14930998397
14931003585
14931010177
14931018661
14931024398
14931030318
14931037154
14931043441
14931048751
14931053512
14931062301
14931068282
14931073836
14931079818
14931086043
14931092391
14931097274
14931104659
14931111861
14931117721
14931123214
14931129378
14931136763
14931144271
14931150069
14931157760
14931164290
14931170699
14931175643
14931183028
14931188216
14931195601
14931201644
14931207686
14931215132
14931221053
14931226302
14931232344
14931239546
14931246199
14931251814
14931258345
14931265608
14931268965
14931276656
14931283980
14931289717
14931295760
14931301863
14931308272
14931313216
14931319868
14931326582
14931333174
14931340803
14931345320
14931352156
14931358321
14931363997
14931368880
14931377547
14931383650
14931390242
14931395369
14931401350
14931407149
14931411848
14931421370
14931427534
14931433333
14931440352
14931446943
14931452253
14931457319
14931466230
14931470137
14931478254
14931485029
14931491255
14931498030
14931502729
14931509870
14931516706
14931522932
14931529768
14931533979
14931541548
14931546369
14931556196
14931561750
14931567793
14931573957
14931578718
14931585981
14931590864
14931597883
14931602888
14931611005
14931617292
14931621626
14931628095
14931634260
14931641706
14931645185
14931654218
14931659711
14931665388
14931672040
14931677534
14931684675
14931689802
14931696943
14931702924
14931708539
14931715925
14931720319
14931729352
14931734357
14931742170
14931748029
14931753705
14931759504
14931765363
14931773053
14931778180
14931784711
14931791059
14931798200
14931803876
14931810285
14931817060
14931822126
14931829267
14931836591
14931842328
14931848554
14931854230
14931860761
14931867047
14931874005
14931878949
14931885236
14931891278
14931898541
14931904645
14931911298
14931916791
14931923444
14931929120
14931935651
14931941571
14931948468
14931955243
14931960919
14931965741
14931973187
14931979169
14931984845
14931992352
14931998822
14932004376
14932010663
14932016705
14932023968
14932029461
14932035687
14932041790
14932047772
14932054364
14932060284
14932065167
14932072430
14932078289
14932086102
14932092572
14932097637
14932105511
14932110699
14932118328
14932124676
14932130779
14932137982
14932144573
14932151226
14932156658
14932163738
14932170025
14932176006
14932179791
14932187176
14932192913
14932198528
14932203594
14932210979
14932217388
14932223797
14932230328
14932234905
14932241436
14932247539
14932253094
14932258770
14932267315
14932272259
14932278728
14932283794
14932290447
14932295879
14932303020
14932309429
14932315349
14932321941
14932326702
14932333843
14932338970
14932345501
14932350933
14932359234
14932366191
14932371807
14932377544
14932383403
14932389446
14932395610
14932402019
14932407146
14932414653
14932420391
14932426128
14932432170
14932438518
14932444744
14932451152
14932456767
14932462993
14932468547
14932473430
14932480815
14932484477
14932494609
14932499431
14932504802
14932511211
14932517436
14932523601
14932528545
14932535930
14932540996
14932547771
14932554484
14932560222
14932565837
14932571940
14932579387
14932585002
14932591716
14932608317
14932615581
14932621867
14932628703
14932634807
14932640849
14932647746
14932654216
14932660197
14932666728
14932673198
14932678141
14932685344
14932690226
14932697795
14932701274
14932708781
14932714579
14932720133
14932726481
14932732157
14932738017
14932744242
14932749186
14932755290
14932760905
14932766764
14932772013
14932777750
14932783488
14932788126
14932795207
14932799723
14932806254
14932811869
14932817362
14932820780
14932829508
14932835123
14932840800
14932847452
14932852946
14932857828
14932863444
14932868510
14932874125
14932879862
14932887247
14932894694
14932900065
14932906534
14932911173
14932916849
14932923197
14932928629
14932933512
14932940531
14932945414
14932950663
14932955362
14932960611
14932965494
14932971842
14932976847
14932984354
14932990702
14932996744
14933002603
14933008951
14933014627
14933022867
14933026712
14933034769
14933041605
14933047037
14933052347
14933059793
14933065531
14933070047
14933074991
14933082376
14933088663
14933093973
14933099710
14933106973
14933110880
14933119302
14933125894
14933131143
14933136331
14933143777
14933147378
14933155191
14933161050
14933166788
14933170389
14933177591
14933183145
14933189615
14933193887
14933202127
14933205972
14933214456
14933220620
14933226297
14933229654
14933237466
14933243692
14933248513
14933255471
14933261514
14933268777
14933275552
14933281839
14933287942
14933293801
14933298806
14933305642
14933309182
14933318826
14933325295
14933329507
14933336099
14933342568
14933348306
14933354348
14933361916
14933368020
14933373818
14933377236
14933386269
14933391518
14933397134
14933403603
14933410073
14933416238
14933421792
14933428139
14933431741
14933439126
14933445168
14933451089
14933458230
14933462563
14933468789
14933474526
14933480263
14933485207
14933493813
14933497597
14933506508
14933512490
14933517006
14933523537
14933529030
14933537026
14933541970
14933548867
14933554909
14933560891
14933567299
14933573281
14933579995
14933586342
14933591835
14933598244
14933603981
14933608742
14933615639
14933621987
14933628456
14933634133
14933640114
14933646034
14933652809
14933658363
14933664284
14933671425
14933677040
14933682961
14933689003
14933694618
14933700783
14933706337
14933714027
14933718422
14933725380
14933731667
14933738747
14933742348
14933750648
14933754860
14933762245
14933768715
14933773414
14933780678
14933786781
14933791542
14933797706
14933805458
14933812111
14933818031
14933824623
14933830604
14933835548
14933841652
14933848671
14933853737
14933860633
14933865394
14933872169
14933878151
14933884132
14933890968
14933896949
14933903419
14933910133
14933915992
14933920814
14933927711
14933932472
14933940772
14933947303
14933952735
14933958839
14933963355
14933970496
14933975868
14933984107
14933989967
14933996070
14934001624
14934007240
14934012550
14934018287
14934026466
14934030860
14934038306
14934042762
14934049415
14934055030
14934061011
14934068641
14934074622
14934081092
14934085486
14934092383
14934097205
14934104957
14934110022
14934117591
14934123877
14934129737
14934135169
14934141456
14934148230
14934152564
14934160559
14934165564
14934173133
14934176734
14934183875
14934190528
14934196204
14934202613
14934209082
14934215552
14934220374
14934226843
14934231604
14934238501
14934244483
14934252417
14934258460
14934262854
14934269751
14934276099
14934281226
14934288306
14934296301
14934301184
14934306982
14934313086
14934319067
14934324866
14934331152
14934339331
14934344214
14934350500
14934355871
14934362585
14934368078
14934373816
14934381506
14934387976
14934393103
