16635183060
16635188798
16635194169
16635199479
16635204667
16635210099
16635216385
16635221695
16635226761
16635231644
16635237504
16635243058
16635249039
16635254960
16635261368
16635265763
16635270829
16635276444
16635284134
16635290116
16635297379
16635304398
16635310257
16635317032
16635324051
16635330155
16635334793
16635341873
16635347061
16635353165
16635358292
16635365250
16635372025
16635377701
16635385452
16635391556
16635396622
16635402908
16635408279
16635414871
16635422195
16635429825
16635435013
16635442581
16635448563
16635455154
16635462662
16635467361
16635477676
16635483902
16635490860
16635499832
16635506058
16635511429
16635518509
16635524673
16635530044
16635536514
16635541885
16635548233
16635553238
16635559097
16635566421
16635571243
16635577896
16635583755
16635590225
16635594131
16635601638
16635608474
16635615249
16635623672
16635628494
16635635269
16635640457
16635647170
16635652969
16635660293
16635665786
16635673293
16635677139
16635685073
16635691360
16635698806
16635705520
16635712051
16635719009
16635725784
16635732314
16635737319
16635744887
16635751235
16635757888
16635764602
16635769729
16635776259
16635787246
16635792617
16635802382
16635809707
16635816359
16635824111
16635829665
16635838332
16635845107
16635852065
16635858535
16635863723
16635871535
16635877639
16635884780
16635893325
16635900527
16635908278
16635913466
16635921218
16635926589
16635933913
16635940871
16635946852
16635953749
16635960280
16635967055
16635974013
16635980177
16635985487
16635992934
16635998549
16636006850
16636013869
16636020399
16636029127
16636034865
16636043654
16636049086
16636057692
16636063307
16636073317
16636079481
16636087660
16636094130
16636101942
16636107985
16636114882
16636121718
16636130873
16636137281
16636144178
16636150404
16636157362
16636164930
16636170607
16636177687
16636183180
16636192274
16636197767
16636204420
16636211927
16636218519
16636224501
16636230970
16636238172
16636245497
16636252088
16636259168
16636266676
16636272474
16636280531
16636287367
16636295240
16636302198
16636309339
16636316419
16636323560
16636327711
16636336866
16636344068
16636351209
16636355299
16636365064
16636372877
16636378126
16636385938
16636393506
16636400770
16636408399
16636415601
16636423353
16636429700
16636435621
16636444471
16636451123
16636460035
16636467237
16636474988
16636481519
16636489514
16636498548
16636505384
16636512097
16636519788
16636526258
16636535901
16636543042
16636549939
16636556714
16636565442
16636571973
16636579297
16636586133
16636593335
16636597791
16636603467
16636608044
16636613660
16636619153
16636624402
16636629834
16636634228
16636641064
16636646374
16636652295
16636657666
16636662976
16636669995
16636675549
16636680798
16636686963
16636694226
16636698742
16636705273
16636711499
16636716748
16636723401
16636729626
16636735180
16636741528
16636747815
16636752453
16636759106
16636767102
16636774975
16636779736
16636785412
16636788708
16636793957
16636798657
16636805493
16636811779
16636817517
16636821362
16636827587
16636832165
16636836865
16636843212
16636848766
16636853161
16636859387
16636863720
16636869335
16636873852
16636879589
16636885937
16636891308
16636897594
16636903210
16636907848
16636913280
16636917492
16636923412
16636928600
16636934338
16636939953
16636945202
16636951794
16636957470
16636962231
16636968944
16636973949
16636979015
16636985119
16636992809
16636997570
16637003307
16637008373
16637013073
16637016857
16637025463
16637029552
16637035534
16637040905
16637047069
16637051769
16637057567
16637061901
16637068309
16637072521
16637079235
16637084117
16637091320
16637097423
16637099315
16637107616
16637113475
16637117565
16637122569
16637129100
16637135509
16637140514
16637146617
16637152416
16637156749
16637163280
16637167613
16637173534
16637179881
16637184215
16637189952
16637193309
16637201305
16637204662
16637211986
16637217540
16637222484
16637228648
16637233714
16637240184
16637245189
16637251781
16637257762
16637263743
16637270030
16637277843
16637283702
16637290355
16637297618
16637302195
16637309581
16637314097
16637323619
16637330088
16637337779
16637342662
16637348460
16637352794
16637358531
16637363780
16637368174
16637372813
16637379710
16637384349
16637390208
16637394236
16637399913
16637405162
16637410350
16637417613
16637422679
16637428294
16637433970
16637438304
16637441294
16637448252
16637453929
16637458323
16637464182
16637468272
16637473460
16637478343
16637483347
16637490488
16637495921
16637500681
16637508921
16637514475
16637521372
16637526011
16637532114
16637536387
16637542368
16637548472
16637552927
16637559092
16637563425
16637566660
16637575266
16637579050
16637586558
16637591257
16637596628
16637601938
16637608408
16637613230
16637618906
16637623240
16637630014
16637634531
16637640268
16637647593
16637653818
16637658823
16637665171
16637671457
16637676584
16637680857
16637686533
16637692514
16637698252
16637703134
16637708383
16637715341
16637720224
16637726206
16637731394
16637736948
16637745249
16637750131
16637756479
16637766123
16637772653
16637778513
16637789316
16637797800
16637804208
16637812753
16637819528
16637827768
16637835275
16637842599
16637850839
16637857797
16637865793
16637872262
16637880868
16637889169
16637897165
16637908029
16637916269
16637923898
16637932443
16637940011
16637953500
16637961312
16637969674
16637977548
16637986154
16637994027
16638006967
16638014169
16638022531
16638029183
16638038583
16638045785
16638054147
16638060494
16638068490
16638077950
16638086861
16638093575
16638102547
16638110848
16638118417
16638126961
16638129769
16638142098
16638150948
16638158883
16638165352
16638173592
16638180062
16638187630
16638195809
16638201668
16638209176
16638216866
16638221627
16638231881
16638239571
16638246285
16638252755
16638259835
16638266182
16638275460
16638282357
16638289803
16638298287
16638305184
16638310982
16638319588
16638325691
16638334175
16638339913
16638348702
16638355476
16638367928
16638376839
16638384407
16638390816
16638395821
16638407661
16638414619
16638422615
16638431404
16638437202
16638443733
16638455269
16638463203
16638471382
16638478889
16638485481
16638492378
16638502022
16638506721
16638517097
16638525703
16638532112
16638539497
16638548286
16638555427
16638563667
16638570564
16638579109
16638586433
16638595893
16638600654
16638609260
16638616096
16638624397
16638630012
16638639045
16638648139
16638656135
16638663032
16638670783
16638676948
16638686225
16638692023
16638701667
16638708747
16638719978
16638726936
16638737983
16638749335
16638760627
16638771796
16638777961
16638787848
16638794806
16638801581
16638809028
16638817389
16638826178
16638833686
16638841071
16638847907
16638855292
16638860846
16638868293
16638876044
16638883002
16638890876
16638900580
16638906867
16638913886
16638920661
16638927863
16638933600
16638941168
16638949896
16638956366
16638963934
16638971442
16638978827
16638984381
16638992743
16639000616
16639007208
16639011542
16639023505
16639029059
16639036322
16639043890
16639050604
16639058417
16639066656
16639074835
16639080450
16639088507
16639095831
16639103216
16639110846
16639115973
16639121588
16639126226
16639131781
16639136541
16639142645
16639146917
16639152349
16639157659
16639160833
16639168768
16639172857
16639178533
16639183782
16639189581
16639193609
16639198980
16639203070
16639209051
16639215338
16639220281
16639224432
16639227789
16639236089
16639239568
16639244573
16639250005
16639256841
16639262823
16639269170
16639273809
16639278875
16639283392
16639289861
16639294073
16639299932
16639304998
16639310369
16639316961
16639323064
16639329290
16639334844
16639340215
16639347539
16639355230
16639361944
16639370061
16639378362
16639387212
16639390996
16639402593
16639408391
16639414678
16639420781
16639426152
16639432134
16639439092
16639444768
16639448613
16639453557
16639458501
16639462712
16639469121
16639474309
16639477666
16639484746
16639492498
16639499028
16639503911
16639511357
16639516973
16639523992
16639528325
16639534795
16639538701
16639542119
16639546697
16639552495
16639557744
16639562627
16639567754
16639572453
16639577885
16639582219
16639587407
16639592534
16639596989
16639602910
16639607182
16639615727
16639620244
16639626897
16639630559
16639636967
16639641850
16639645939
16639651494
16639657048
16639664616
16639670598
16639676030
16639681462
16639683476
16639691166
16639696049
16639700627
16639705815
16639713566
16639719243
16639724980
16639729191
16639734929
16639739567
16639746098
16639752446
16639758732
16639766056
16639773259
16639778141
16639782231
16639787541
16639793644
16639799443
16639805912
16639809696
16639815006
16639820072
16639824284
16639829472
16639836064
16639840763
16639845768
16639851078
16639856754
16639860905
16639864994
16639870976
16639876347
16639880680
16639885197
16639891056
16639895878
16639900578
16639907963
16639914432
16639923588
16639930729
16639937382
16639943180
16639947452
16639954166
16639961124
16639966007
16639973026
16639976749
16639983036
16639987858
16639993107
16639998966
16640003971
16640008426
16640013858
16640018497
16640023746
16640031620
16640038211
16640044193
16640051822
16640057376
16640065616
16640070682
16640076541
16640080814
16640087223
16640092777
16640097537
16640101871
16640106204
16640109867
16640115360
16640120792
16640124820
16640129764
16640135013
16640141116
16640146610
16640152225
16640156802
16640161563
16640167178
16640172855
16640178348
16640182803
16640187625
16640192386
16640198856
16640205569
16640212466
16640219180
16640225894
16640232547
16640237369
16640244815
16640249515
16640255984
16640263370
16640269107
16640276492
16640284671
16640291018
16640297549
16640305667
16640313113
16640319339
16640328250
16640334109
16640342166
16640348330
16640356936
16640364505
16640370730
16640378482
16640386904
16640393191
16640402468
16640408206
16640416506
16640422183
16640426577
16640440005
16640446963
16640455935
16640465029
16640471377
16640479800
16640486086
16640494204
16640502444
16640507571
16640519717
16640524477
16640536074
16640540957
16640549807
16640556704
16640566530
16640578921
16640584414
16640593081
16640598879
16640606569
16640615358
16640622255
16640627626
16640635988
16640641298
16640648378
16640656008
16640661989
16640669680
16640676821
16640683351
16640690615
16640696047
16640704531
16640710817
16640720461
16640725832
16640734743
16640741213
16640749147
16640757692
16640764467
16640772462
16640778627
16640786745
16640792726
16640801942
16640808351
16640816286
16640823061
16640828432
16640835451
16640843141
16640851930
16640858156
16640865968
16640873964
16640880678
16640886110
16640893129
16640900087
16640908937
16640914735
16640923036
16640928956
16640937684
16640943544
16640952516
16640958680
16640967469
16640973329
16640981385
16640989930
16640997743
16641004457
16641012086
16641021058
16641028199
16641035157
16641044862
16641051331
16641060120
16641066712
16641075318
16641081178
16641086427
16641097962
16641103150
16641115113
16641120484
16641129578
16641134522
16641145081
16641149720
16641159913
16641168763
16641176941
16641181702
16641191102
16641199463
16641206788
16641213257
16641222901
16641229859
16641236634
16641243286
16641253174
16641260376
16641268982
16641276367
16641284668
16641292664
16641303101
16641310974
16641320557
16641332764
16641338867
16641353699
16641361450
16641371826
16641378906
16641385498
16641392273
16641401123
16641406494
16641415954
16641422912
16641429199
16641435852
16641444336
16641450989
16641459106
16641464905
16641472290
16641480468
16641486816
16641493957
16641501098
16641502929
16641511291
16641515869
16641520507
16641524292
16641530395
16641533569
16641540283
16641543884
16641551269
16641555603
16641559875
16641565124
16641569885
16641576843
16641581481
16641585632
16641591186
16641595397
16641601013
16641606201
16641612670
16641616638
16641622558
16641627502
16641633300
16641637817
16641643554
16641648864
16641652587
16641658996
16641664123
16641671203
16641676757
16641681579
16641688110
16641692992
16641698180
16641705077
16641709411
16641715575
16641721862
16641723815
16641731628
16641735839
16641742553
16641748412
16641754210
16641757689
16641764770
16641770080
16641776061
16641781005
16641787108
16641794555
16641799987
16641804442
16641810302
16641815795
16641820311
16641826354
16641830992
16641837889
16641844420
16641848815
16641854491
16641860900
16641865660
16641871154
16641877684
16641883055
16641887877
16641893553
16641899352
16641905760
16641912230
16641919310
16641926512
16641932372
16641938719
16641948302
16641952208
16641960875
16641966856
16641972533
16641977782
16641984312
16641989622
16641996519
16642001341
16642006590
16642010680
16642016234
16642022093
16642027525
16642032835
16642037657
16642043028
16642048094
16642054136
16642058897
16642064757
16642069334
16642076597
16642079954
16642086607
16642092100
16642097227
16642102110
16642108336
16642112791
16642119139
16642127745
16642132872
16642139158
16642144468
16642148985
16642155149
16642160887
16642165159
16642171812
16642177976
16642182493
16642187803
16642193785
16642198484
16642204222
16642210813
16642215696
16642223448
16642228758
16642233213
16642239195
16642243894
16642250669
16642255491
16642263059
16642269895
16642275205
16642281431
16642286741
16642292356
16642295957
16642303159
16642309690
16642314268
16642319517
16642325315
16642330930
16642336851
16642341306
16642347471
16642352415
16642359556
16642365659
16642372312
16642378049
16642382932
16642389280
16642394285
16642400083
16642406003
16642410703
16642416867
16642422666
16642428769
16642434323
16642439206
16642444272
16642449216
16642456235
16642464658
16642470456
16642474729
16642479917
16642485959
16642492002
16642496335
16642501950
16642508786
16642517209
16642521848
16642527890
16642534970
16642541806
16642546872
16642554318
16642559262
16642566586
16642572385
16642578976
16642583798
16642589108
16642593198
16642599484
16642604306
16642609799
16642614926
16642620419
16642624570
16642630368
16642635739
16642640744
16642645199
16642651791
16642656430
16642661496
16642666684
16642672726
16642679562
16642686459
16642696225
16642703671
16642711789
16642718686
16642727658
16642734127
16642743222
16642749569
16642757687
16642766476
16642773495
16642782467
16642791744
16642798031
16642805905
16642814510
16642820004
16642829891
16642837216
16642845333
16642852291
16642860226
16642869625
16642875912
16642884457
16642892818
16642899959
16642911190
16642922665
16642933773
16642945186
16642954769
16642965816
16642975155
16642987056
16642998287
16643009700
16643022213
16643031856
16643042476
16643051754
16643062068
16643072933
16643082881
16643092647
16643103694
16643114253
16643122859
16643131587
16643141109
16643150386
16643160518
16643170161
16643179195
16643188655
16643197261
16643207820
16643215388
16643224971
16643235408
16643246150
16643251948
16643263850
16643272212
16643283870
16643289607
16643301692
16643311885
16643321040
16643330195
16643337580
16643347407
16643356196
16643367304
16643374079
16643383540
16643393000
16643400752
16643410456
16643418635
16643428156
16643435603
16643442866
16643453120
16643462458
16643470637
16643479548
16643486018
16643495112
16643504145
16643511164
16643520441
16643528071
16643537592
16643546320
16643553705
16643561640
16643573298
16643581659
16643591364
16643598078
16643607965
16643618525
16643628473
16643633356
16643645502
16643653376
16643662958
16643672235
16643682978
16643694513
16643702753
16643714533
16643723505
16643733026
16643740839
16643751886
16643760309
16643770807
16643778436
16643788263
16643798944
16643802301
16643817743
16643827081
16643835687
16643846063
16643857660
16643866937
16643877313
16643884942
16643893853
16643903009
16643912286
16643923944
16643932672
16643944879
16643956719
16643968804
16643981927
16643996331
16644010980
16644021539
16644033013
16644045098
16644057122
16644069451
16644083245
16644093682
16644102654
16644112176
16644122430
16644132195
16644141533
16644150811
16644161553
16644170769
16644181939
16644190667
16644200432
16644210808
16644219963
16644231133
16644240898
16644251885
16644262322
16644271599
16644281975
16644292290
16644302239
16644314385
16644324822
16644335136
16644342827
16644356682
16644365898
16644375053
16644384453
16644394462
16644401359
16644410393
16644418388
16644424431
16644433952
16644443535
16644449455
16644458305
16644466728
16644472892
16644482475
16644489067
16644498954
16644506462
16644514518
16644522209
16644531608
16644539665
16644548515
16644555473
16644564750
16644569999
16644580741
16644588371
16644596305
16644603813
16644610954
16644620292
16644623344
16644629752
16644632560
16644638602
16644643119
16644648856
16644654716
16644659354
16644664542
16644667899
16644672538
16644677360
16644681693
16644687308
16644692435
16644696830
16644702506
16644706718
16644712760
16644717032
16644722648
16644727103
16644732230
16644739432
16644744132
16644749991
16644754386
16644760306
16644766166
16644772818
16644777030
16644781608
16644784415
16644790458
16644794974
16644800284
16644807120
16644811026
16644816275
16644821280
16644824393
16644830313
16644835440
16644839347
16644845511
16644851248
16644856497
16644860648
16644866629
16644872367
16644878043
16644882620
16644890433
16644896536
16644901602
16644906973
16644912955
16644917593
16644924307
16644928946
16644935049
16644940176
16644944693
16644948416
16644952811
16644957816
16644963065
16644969778
16644973441
16644977896
16644982840
16644987906
16644992789
16644997427
16645002066
16645006827
16645011526
16645016165
16645019400
16645024100
16645028555
16645033133
16645039297
16645043448
16645048636
16645053152
16645056936
16645062124
16645066153
16645071219
16645079275
16645083914
16645088430
16645094534
16645100027
16645105642
16645110403
16645116140
16645122915
16645128836
16645133840
16645138296
16645144155
16645149465
16645153494
16645159719
16645164663
16645172354
16645177053
16645182668
16645186697
16645192312
16645198416
16645203237
16645208853
16645214285
16645219961
16645224600
16645229971
16645235220
16645239919
16645246145
16645251882
16645258474
16645264822
16645270071
16645275442
16645280508
16645286306
16645292348
16645297780
16645304372
16645309316
16645312917
16645320424
16645326223
16645331228
16645336049
16645341726
16645349904
16645354909
16645361928
16645367788
16645372182
16645378286
16645385122
16645390065
16645395864
16645405568
16645410451
16645416982
16645422231
16645429311
16645436086
16645441274
16645447682
16645454396
16645459462
16645464101
16645471303
16645475087
16645480702
16645483571
16645492238
16645498830
16645505055
16645512013
16645520436
16645527272
16645535451
16645541920
16645550038
16645558156
16645564320
16645573231
16645579335
16645587514
16645595143
16645601063
16645609547
16645617238
16645623524
16645632802
16645639027
16645647145
16645653554
16645663380
16645673024
16645681385
16645688038
16645695668
16645701649
16645709278
16645717945
16645725636
16645734852
16645742054
16645750294
16645758412
16645765370
16645772572
16645781361
16645787647
16645796681
16645801991
16645811817
16645820118
16645828785
16645835499
16645843861
16645849476
16645859058
16645867786
16645877369
16645882801
16645892383
16645899402
16645907642
16645915577
16645922840
16645930469
16645940845
16645946399
16645955860
16645963489
16645970813
16645975940
16645987842
16645992847
16646001880
16646009265
16646017139
16646024341
16646034046
16646041675
16646049243
16646057605
16646067127
16646072193
16646081470
16646088916
16646099353
16646105213
16646115833
16646123767
16646132800
16646140247
16646147754
16646156909
16646164111
16646171191
16646181628
16646192920
16646204394
16646209949
16646223315
16646228564
16646239856
16646247485
16646254504
16646263354
16646270129
16646279956
16646286547
16646296313
16646304370
16646310961
16646319201
16646325671
16646335375
16646344897
16646352465
16646360766
16646367297
16646375781
16646385119
16646393908
16646400256
16646408801
16646416918
16646425341
16646430773
16646441210
16646448412
16646456957
16646464403
16646471789
16646480883
16646488940
16646495714
16646504198
16646510485
16646519152
16646528185
16646533373
16646544054
16646549486
16646560289
16646567492
16646575304
16646582018
16646590136
16646596788
16646604662
16646610887
16646618639
16646626940
16646634508
16646641588
16646648729
16646657945
16646665026
16646671007
16646680040
16646685961
16646694078
16646699938
16646708849
16646717271
16646725145
16646733080
16646739122
16646746935
16646754747
16646763231
16646769762
16646778184
16646783494
16646794115
16646799486
16646809984
16646817125
16646824937
16646832567
16646842637
16646849901
16646857774
16646864549
16646874070
16646880967
16646888108
16646894761
16646900987
16646905809
16646912522
16646916062
16646921983
16646926927
16646933946
16646937913
16646944749
16646954026
16646959092
16646963975
16646971787
16646979051
16646982774
16646990586
16646997605
16647005418
16647011094
16647016221
16647021409
16647026170
16647031052
16647036485
16647041795
16647047166
16647051682
16647057297
16647063279
16647068345
16647072678
16647077561
16647081711
16647086594
16647091477
16647096421
16647101243
16647106553
16647112351
16647117844
16647122300
16647130662
16647134202
16647142014
16647145432
16647152329
16647157212
16647163132
16647169907
16647175034
16647179429
16647185898
16647192002
16647196885
16647202866
16647208664
16647215622
16647221787
16647227707
16647233078
16647237412
16647244736
16647249375
16647254318
16647260849
16647266159
16647273728
16647280014
16647285446
16647291489
16647296860
16647302170
16647308090
16647313644
16647317917
16647321335
16647329208
16647332626
16647340744
16647347092
16647352280
16647358200
16647363632
16647368942
16647374130
16647379806
16647383957
16647389389
16647395309
16647400375
16647405990
16647411667
16647417709
16647421982
16647428207
16647434372
16647441269
16647447372
16647451706
16647456894
16647462814
16647469345
16647474716
16647480819
16647486068
16647492904
16647497482
16647503036
16647506942
16647514328
16647520553
16647525436
16647533309
16647538925
16647546432
16647551376
16647563156
16647570053
16647576644
16647583968
16647587509
16647593368
16647598617
16647604903
16647610641
16647614913
16647619308
16647625289
16647630111
16647635970
16647640792
16647646163
16647652023
16647656844
16647660995
16647666915
16647673568
16647678634
16647683150
16647689620
16647693831
16647700118
16647705977
16647710189
16647717025
16647723311
16647727950
16647732711
16647739547
16647743209
16647750594
16647755416
16647761031
16647766707
16647774093
16647779158
16647784713
16647790450
16647796004
16647800887
16647806929
16647813643
16647817855
16647824202
16647827620
16647834212
16647839278
16647845503
16647850325
16647857222
16647863448
16647868208
16647874129
16647880599
16647885359
16647891280
16647897810
16647902876
16647908919
16647914717
16647919234
16647922469
16647931075
16647935225
16647942671
16647948103
16647953535
16647960127
16647966109
16647971297
16647977888
16647982649
16647989180
16647995527
16648000532
16648008101
16648012495
16648020003
16648026289
16648032881
16648039351
16648044722
16648049299
16648058760
16648065229
16648076155
16648083784
16648091291
16648098371
16648106123
16648114546
16648121076
16648134260
16648145307
16648153425
16648166364
16648174238
16648184309
16648195844
16648203230
16648216047
16648221784
16648232832
16648238874
16648248334
16648255415
16648263105
16648272871
16648280134
16648286848
16648295759
16648304365
16648312116
16648320417
16648327985
16648334699
16648343793
16648353009
16648357892
16648366742
16648373883
16648384381
16648391706
16648398847
16648409101
16648416913
16648423322
16648432233
16648439374
16648448041
16648456403
16648464398
16648473859
16648480329
16648488934
16648493939
16648505475
16648510541
16648521222
16648526593
16648536542
16648543805
16648552411
16648559308
16648567303
16648573651
16648582989
16648591229
16648597821
16648606915
16648615765
16648622052
16648630108
16648638470
16648644085
16648654461
16648661969
16648670330
16648675457
16648686627
16648694683
16648700665
16648710430
16648718060
16648724469
16648733319
16648739849
16648748883
16648755230
16648763592
16648772259
16648780316
16648788799
16648796429
16648803143
16648811260
16648820049
16648828899
16648836407
16648844891
16648850750
16648858868
16648868206
16648877300
16648883343
16648893535
16648900188
16648908306
16648914470
16648922710
16648931499
16648940349
16648949321
16648956890
16648964214
16648972942
16648980144
16648989666
16648996929
16649010173
16649017803
16649026714
16649034709
16649044292
16649051555
16649060161
16649068218
16649076518
16649084941
16649092693
16649101299
16649108501
16649117168
16649125224
16649131816
16649140727
16649148540
16649155559
16649163982
16649171306
16649181682
16649188945
16649196452
16649202800
16649212504
16649218974
16649227275
16649236369
16649243388
16649251750
16649256938
16649268168
16649276225
16649282756
16649289897
16649298869
16649306071
16649314067
16649320536
16649330180
16649337077
16649347697
16649354045
16649361979
16649370890
16649377543
16649386637
16649391642
16649404337
16649410807
16649418620
16649425700
16649434794
16649442606
16649450419
16649457499
16649468058
16649477457
16649483561
16649487772
16649497477
16649501383
16649507670
16649511759
16649517740
16649522440
16649528299
16649533609
16649538126
16649543863
16649550028
16649554300
16649559732
16649565287
16649571695
16649577005
16649581278
16649586710
16649592264
16649598612
16649604105
16649609171
16649618631
16649622660
16649628214
16649633524
16649639505
16649643595
16649649332
16649654032
16649660257
16649665994
16649669168
16649676248
16649680277
16649688150
16649693643
16649698282
16649703958
16649710428
16649715799
16649722208
16649728799
16649735879
16649741251
16649749002
16649754556
16649763528
16649770181
16649775125
16649781778
16649787210
16649792520
16649797586
16649805215
16649810342
16649814554
16649819436
16649824014
16649830423
16649835428
16649841409
16649846841
16649852823
16649857339
16649862344
16649866372
16649872903
16649876931
16649882608
16649887612
16649893838
16649899270
16649903421
16649908731
16649914102
16649918679
16649921670
16649930459
16649936868
16649942727
16649946816
16649953225
16649956460
16649963174
16649966287
16649973061
16649978494
16649985024
16649990579
16649996926
16650001870
16650007302
16650012185
16650018716
16650026162
16650031655
16650036599
16650043252
16650047707
16650053750
16650058572
16650063760
16650071450
16650077798
16650084023
16650087380
16650094216
16650099099
16650104104
16650110573
16650115700
16650123452
16650128640
16650133034
16650139443
16650144265
16650150124
16650155983
16650160744
16650166115
16650171730
16650177956
16650181252
16650188515
16650191811
16650198891
16650204201
16650209633
16650214699
16650220864
16650225991
16650232949
16650237587
16650243752
16650248573
16650254738
16650260658
16650267800
16650273171
16650279274
16650284218
16650290810
16650298317
16650302528
16650312904
16650321510
16650326881
16650333534
16650341774
16650346962
16650351845
16650357826
16650364906
16650370705
16650375954
16650380836
16650386329
16650391212
16650397499
16650401222
16650407936
16650413063
16650417763
16650421058
16650429054
16650432655
16650441200
16650445289
16650453407
16650456947
16650462684
16650468177
16650474525
16650479408
16650484779
16650489418
16650495094
16650501197
16650508888
16650512306
16650525428
16650529823
16650536903
16650542762
16650549842
16650557105
16650564979
16650570228
16650576759
16650582679
16650587928
16650592872
16650602882
16650605018
16650614845
16650622169
16650627357
16650633399
16650638648
16650644202
16650653724
16650661109
16650668494
16650676734
16650683875
16650692969
16650698951
16650706336
16650715674
16650724097
16650730445
16650738868
16650744910
16650752784
16650760596
16650767981
16650774451
16650784522
16650790808
16650798682
16650805152
16650811743
16650819617
16650828406
16650835303
16650842810
16650850623
16650859961
16650868323
16650875586
16650885474
16650892737
16650901160
16650908484
16650918066
16650922827
16650931494
16650937414
16650946448
16650952307
16650960974
16650968115
16650979773
16650991308
16651000952
16651007055
16651019690
16651025244
16651034826
16651048559
16651055517
16651067236
16651076757
16651084997
16651091650
16651099707
16651107458
16651116552
16651121374
16651132665
16651142126
16651150121
16651157812
16651165746
16651172704
16651180700
16651188024
16651195715
16651203344
16651209325
16651221105
16651229406
16651236242
16651245580
16651253698
16651260656
16651270116
16651275548
16651285070
16651290624
16651301549
16651306981
16651317113
16651324560
16651332555
16651339879
16651349523
16651354955
16651365148
16651370641
16651380284
16651388036
16651395787
16651403844
16651412023
16651420690
16651428807
16651436376
16651445531
16651453221
16651461278
16651468541
16651476964
16651485021
16651493687
16651501317
16651508885
16651515843
16651523412
16651530308
16651538243
16651546849
16651555211
16651561558
16651570775
16651577061
16651586339
16651591710
16651602269
16651606968
16651616673
16651625828
16651633458
16651640538
16651648350
16651654393
16651662266
16651667027
16651677220
16651682041
16651692845
16651700962
16651708531
16651715855
16651725376
16651732578
16651739170
16651748387
16651755100
16651764195
16651770786
16651780430
16651787632
16651797764
16651809788
16651817661
16651825779
16651832432
16651841648
16651848301
16651856785
16651866001
16651874607
16651882786
16651890598
16651896885
16651905369
16651914341
16651920322
16651928989
16651936741
16651942783
16651950718
16651958591
16651965793
16651973484
16651979770
16651988071
16651996250
16652002170
16652006870
16652017246
16652025180
16652031284
16652038059
16652047031
16652053989
16652058383
16652062961
16652069125
16652072971
16652080356
16652085605
16652091342
16652097812
16652103244
16652107944
16652113620
16652118015
16652124301
16652128513
16652132480
16652137241
16652144443
16652149692
16652155002
16652160861
16652165988
16652171420
16652178317
16652185031
16652190158
16652194980
16652202121
16652205966
16652212253
16652218356
16652224337
16652232943
16652238986
16652243380
16652250644
16652256625
16652262362
16652267611
16652275790
16652281344
16652287448
16652293978
16652300326
16652305087
16652311007
16652317050
16652321993
16652326693
16652333468
16652339388
16652345675
16652352572
16652358676
16652365756
16652370821
16652377108
16652382601
16652389498
16652395358
16652401766
16652406405
16652410128
16652418978
16652423556
16652428316
16652435030
16652441500
16652447604
16652454684
16652461703
16652466707
16652471773
16652479769
16652487826
16652494478
16652503878
16652510103
16652519014
16652526461
16652533297
16652539278
16652544344
16652549349
16652554354
16652559053
16652563753
16652568087
16652573214
16652579317
16652584261
16652588655
16652593965
16652599275
16652605074
16652609957
16652615267
16652620088
16652624544
16652629915
16652635103
16652639986
16652643404
16652648775
16652653963
16652658540
16652662264
16652667574
16652671358
16652677522
16652683382
16652688997
16652694673
16652699983
16652704439
16652709383
16652714143
16652719148
16652724641
16652729707
16652736604
16652740755
16652745637
16652750947
16652754671
16652759981
16652765169
16652770784
16652777315
16652780427
16652788850
16652794038
16652799226
16652805024
16652810518
16652817720
16652822542
16652828584
16652832978
16652839509
16652846284
16652852021
16652856660
16652862580
16652867158
16652873384
16652878999
16652884431
16652889131
16652895967
16652900849
16652907807
16652912263
16652915376
16652924287
16652929170
16652933991
16652939607
16652945527
16652950654
16652956452
16652961091
16652966340
16652971894
16652978608
16652985749
16652993928
16653002412
16653010163
16653015839
16653021088
16653026276
16653034272
16653045380
16653053254
16653057282
16653063019
16653067536
16653071808
16653077607
16653085846
16653090241
16653097992
16653103241
16653107270
16653113312
16653119111
16653123993
16653127839
16653132538
16653137299
16653141938
16653146637
16653150422
16653157074
16653162323
16653169892
16653177948
16653184540
16653191437
16653199860
16653208588
16653216583
16653223236
16653229523
16653237457
16653244232
16653249787
16653256806
16653264923
16653271759
16653278046
16653285736
16653291962
16653298492
16653306427
16653312164
16653320587
16653330353
16653335663
16653347687
16653355865
16653362274
16653371124
16653380707
16653388946
16653394989
16653405609
16653412933
16653420440
16653429535
16653436248
16653444000
16653450348
16653459564
16653464080
16653472625
16653480072
16653487396
16653495697
16653502655
16653511383
16653517608
16653522491
16653533538
16653538482
16653549712
16653554595
16653564544
16653569427
16653580291
16653585479
16653595123
16653599944
16653610809
16653616302
16653630706
16653640166
16653652251
16653663177
16653671172
16653679839
16653687896
16653695098
16653702056
16653712249
16653720977
16653731047
16653740386
16653748503
16653755950
16653761687
16653769622
16653777129
16653779814
16653792876
16653798735
16653806243
16653812346
16653820281
16653828826
16653835845
16653840788
16653853362
16653860442
16653868865
16653877043
16653885710
16653893156
16653899260
16653907866
16653914763
16653923308
16653932097
16653942107
16653950896
16653958952
16653966276
16653974577
16653983549
16653991728
16653997770
16654005888
16654013945
16654021025
16654029020
16654037504
16654043058
16654053556
16654061796
16654070585
16654076078
16654085844
16654090727
16654100675
16654105924
16654115019
16654122831
16654132170
16654137113
16654146940
16654152128
16654161771
16654170072
16654177335
16654186002
16654193266
16654200162
16654207609
16654213956
16654222440
16654233243
16654242643
16654250883
16654259244
16654264371
16654274259
16654279264
16654289762
16654294767
16654304166
16654311429
16654319608
16654327359
16654334867
16654341581
16654349637
16654356961
16654366788
16654374539
16654380704
16654387540
16654395047
16654405118
16654418912
16654428922
16654438138
16654446561
16654456693
16654461087
16654467923
16654476285
16654482205
16654489468
16654496732
16654502286
16654506741
16654511563
16654516751
16654521939
16654526517
16654532315
16654537259
16654542203
16654546597
16654552701
16654558194
16654563687
16654568509
16654574734
16654579434
16654586331
16654589627
16654597928
16654601223
16654608365
16654611721
16654618618
16654622158
16654629727
16654633145
16654639492
16654643093
16654649197
16654653958
16654659939
16654665432
16654670986
16654675503
16654680508
16654686672
16654692471
16654697537
16654702908
16654707974
16654716580
16654721646
16654728176
16654734280
16654739834
16654748013
16654754421
16654759548
16654765652
16654771023
16654777920
16654784634
16654788540
16654796413
16654801479
16654807339
16654812405
16654818142
16654823330
16654830288
16654837185
16654842007
16654847866
16654856289
16654862209
16654868923
16654875088
16654880153
16654887172
16654891933
16654898830
16654904689
16654909694
16654915920
16654923244
16654931118
16654939357
16654947109
16654953823
16654956386
16654971218
16654979152
16654986598
16654993740
16655004787
16655013698
16655023708
16655032070
16655035915
16655051845
16655055263
16655068691
16655074672
16655084682
16655089992
16655104335
16655117091
16655123805
16655133937
16655143031
16655149989
16655159877
16655166957
16655172389
16655182155
16655189174
16655197352
16655205287
16655213893
16655221827
16655229823
16655237452
16655245509
16655253199
16655262233
16655270106
16655281764
16655289210
16655298243
16655306239
16655315211
16655322840
16655328883
16655337428
16655344508
16655355067
16655362940
16655369837
16655379298
16655387171
16655390589
16655405848
16655414088
16655420801
16655429713
16655436548
16655443690
16655446924
16655458521
16655467432
16655474695
16655483668
16655487208
16655497583
16655503199
16655512049
16655519556
16655525965
16655533045
16655539331
16655547876
16655554956
16655563257
16655570642
16655576929
16655584375
16655589868
16655600427
16655607630
16655614832
16655621790
16655631616
16655637964
16655643762
16655653162
16655657373
16655667871
16655674524
16655677515
16655688501
16655700769
16655706506
16655713464
16655720666
16655730493
16655733789
16655742883
16655750207
16655757409
16655764734
16655774682
16655782312
16655788720
16655798730
16655807641
16655816064
16655823938
16655830041
16655838830
16655848962
16655857934
16655867089
16655874353
16655880578
16655889611
16655899377
16655907434
16655911523
16655925195
16655936486
16655944604
16655954186
16655963708
16655971398
16655975427
16655989587
16656000024
16656011681
16656022057
16656030114
16656038720
16656050316
16656058739
16656064721
16656076012
16656081322
16656093163
16656102562
16656109215
16656114159
16656125389
16656133629
16656142540
16656147850
16656157067
16656165367
16656175682
16656183068
16656191368
16656197960
16656205162
16656213768
16656222313
16656229210
16656238365
16656244896
16656253136
16656261437
16656269920
16656277123
16656284325
16656293602
16656301109
16656309288
16656315819
16656323692
16656332725
16656341209
16656347618
16656356529
16656363365
16656369102
16656380455
16656385582
16656394432
16656403892
16656410423
16656419761
16656427330
16656434105
16656443077
16656451744
16656459922
16656468528
16656478050
16656484642
16656489585
16656500999
16656507224
16656518699
16656527610
16656534446
16656543113
16656551536
16656557700
16656567710
16656573508
16656584068
16656589378
16656598899
16656606223
16656616416
16656623679
16656630942
16656640952
16656648887
16656655356
16656663596
16656672324
16656675193
16656687095
16656693137
16656702292
16656711875
16656718528
16656723716
16656734275
16656738913
16656748191
16656754721
16656761435
16656770957
16656778220
16656786948
16656798972
16656808066
16656818686
16656826926
16656837058
16656844687
16656853293
16656861411
16656869650
16656876242
16656885458
16656894492
16656901877
16656909750
16656912436
16656923788
16656928488
16656938803
16656943625
16656953757
16656958700
16656968466
16656976156
16656983481
16656990011
16656998434
16657004965
16657012411
16657019552
16657027426
16657036032
16657043356
16657049704
16657058493
16657064474
16657073812
16657083700
16657091635
16657098593
16657107015
16657115621
16657122885
16657128744
16657138326
16657144369
16657152364
16657160787
16657167196
16657175802
16657182027
16657189901
16657196798
16657205343
16657213094
16657220907
16657227682
16657235616
16657244161
16657250081
16657258016
16657266439
16657273702
16657279928
16657284383
16657295675
16657304219
16657310567
16657318929
16657327169
16657334493
16657358419
16657364400
16657372029
16657380574
16657391011
16657398885
16657407186
16657413289
16657420186
16657424458
16657429463
16657433980
16657440205
16657445210
16657452351
16657458211
16657464619
16657471028
16657477620
16657481953
16657488789
16657495076
16657501240
16657506062
16657510640
16657515767
16657522481
16657528401
16657534627
16657539998
16657549702
16657553792
16657562581
16657570576
16657575703
16657579487
16657586323
16657590291
16657597065
16657604695
16657610127
16657616780
16657621724
16657627766
16657634602
16657640278
16657644795
16657652241
16657656819
16657662617
16657666645
16657671711
16657676716
16657681904
16657685993
16657691426
16657698139
16657702412
16657708576
16657712544
16657722248
16657728291
16657732990
16657738972
16657745442
16657751057
16657756550
16657761921
16657768452
16657773579
16657780048
16657784504
16657789753
16657794514
16657801227
16657808430
16657810627
16657819111
16657826557
16657833210
16657838215
16657844135
16657848652
16657856464
16657860309
16657866047
16657871906
16657878864
16657885639
16657891681
16657896442
16657903278
16657908649
16657915241
16657921772
16657927570
16657932392
16657937336
16657944660
16657948627
16657956623
16657960590
16657966327
16657973346
16657980243
16657986164
16657992511
16657997821
16658003497
16658008563
16658015277
16658021625
16658027179
16658034076
16658037799
16658044818
16658048846
16658057452
16658063434
16658068256
16658075458
16658080829
16658086200
16658093097
16658098346
16658103351
16658109943
16658115497
16658122455
16658128253
16658135760
16658142657
16658149554
16658151996
16658160602
16658164386
16658173114
16658177203
16658185809
16658188861
16658196002
16658199176
16658206988
16658210406
16658219195
16658222857
16658231097
16658236773
16658242022
16658245379
16658252276
16658255755
16658262835
16658269915
16658274371
16658279376
16658284686
16658290057
16658295428
16658300433
16658307208
16658314105
16658319781
16658322955
16658329424
16658334551
16658341082
16658346087
16658351397
16658357317
16658362688
16658367632
16658373858
16658379046
16658384966
16658389300
16658395281
16658401690
16658408282
16658413348
16658420367
16658424700
16658430132
16658439776
16658445818
16658452776
16658459551
16658465166
16658472307
16658477190
16658479265
16658488604
16658492327
16658500139
16658504778
16658512224
16658516008
16658523394
16658527422
16658534319
16658538897
16658544817
16658551042
16658555620
16658563249
16658569963
16658576433
16658582598
16658589800
16658594805
16658601274
16658606951
16658613237
16658619524
16658626909
16658635149
16658641618
16658651750
16658658281
16658666154
16658675249
16658678117
16658690752
16658699785
16658706316
16658711503
16658722490
16658731706
16658738359
16658745744
16658754594
16658761918
16658770036
16658776750
16658786821
16658794511
16658803239
16658810868
16658816667
16658829484
16658835282
16658847062
16658852372
16658862077
16658869462
16658879533
16658885392
16658897416
16658906144
16658914872
16658921647
16658928239
16658937150
16658943131
16658949845
16658959367
16658967973
16658974625
16658983903
16658992264
16658998978
16659006608
16659016129
16659024308
16659032609
16659040055
16659047928
16659055131
16659062333
16659072526
16659080155
16659086380
16659093888
16659101151
16659106034
16659115555
16659123551
16659130326
16659138260
16659148758
16659153702
16659164444
16659168839
16659181656
16659187454
16659196793
16659205338
16659213944
16659220718
16659229874
16659236527
16659243790
16659251602
16659259415
16659265762
16659274124
16659282547
16659289810
16659296707
16659299454
16659311722
16659314529
16659327347
16659332901
16659344009
16659349930
16659359146
16659366958
16659374588
16659379593
16659389053
16659395645
16659405410
16659412307
16659418228
16659428054
16659435928
16659442276
16659450210
16659457229
16659466995
16659474990
16659482437
16659489089
16659494338
16659504836
16659509841
16659519790
16659528640
16659536575
16659541274
16659549941
16659557815
16659565444
16659572280
16659580886
16659588271
16659595473
16659601516
16659613540
16659623611
16659632339
16659643447
16659648696
16659659804
16659665175
16659676040
16659682937
16659691787
16659701125
16659710707
16659724623
16659732070
16659741774
16659748427
16659753310
16659763808
16659768630
16659778945
16659784987
16659794325
16659803114
16659810744
16659817580
16659824904
16659831068
16659839613
16659847121
16659855116
16659864210
16659870192
16659878493
16659886732
16659893446
16659898512
16659908827
16659913710
16659924086
16659929457
16659938063
16659944899
16659953138
16659959364
16659966566
16659975294
16659982618
16659988661
16659997084
16660004286
16660009169
16660018202
16660026258
16660032850
16660036634
16660041944
16660047254
16660052626
16660058912
16660063246
16660068434
16660074537
16660079542
16660085584
16660089979
16660093153
16660101881
16660105909
16660112257
16660117140
16660122816
16660127821
16660134229
16660139784
16660144117
16660148512
16660155164
16660159681
16660164991
16660172315
16660176771
16660183301
16660187574
16660193067
16660196912
16660204359
16660207899
16660213026
16660219129
16660224622
16660229017
16660234632
16660238965
16660245740
16660250318
16660253858
16660262525
16660269178
16660273938
16660277356
16660283643
16660287000
16660294202
16660298841
16660306592
16660311597
16660324659
16660331800
16660337415
16660346265
16660353955
16660359265
16660365247
16660372449
16660380078
16660386060
16660390943
16660395764
16660400708
16660406873
16660411328
16660416394
16660422315
16660428906
16660434094
16660437573
16660446423
16660451917
16660457410
16660463391
16660470288
16660475598
16660481457
16660486340
16660494031
16660499829
16660505200
16660511731
16660516308
16660522595
16660526745
16660532971
16660538708
16660545605
16660550427
16660557568
16660563977
16660567944
16660574902
16660578625
16660586377
16660590405
16660597607
16660601391
16660609936
16660613598
16660620678
16660624096
16660630261
16660636364
16660643139
16660648876
16660654553
16660659130
16660666149
16660673046
16660675366
16660685009
16660690746
16660695324
16660699536
16660707287
16660712719
16660718700
16660722912
16660731030
16660737621
16660742199
16660746777
16660753979
16660759411
16660766125
16660770702
16660777172
16660782604
16660789928
16660794689
16660802013
16660806713
16660812633
16660817577
16660822887
16660828686
16660835033
16660840954
16660847667
16660853222
16660859935
16660864940
16660870556
16660876659
16660881664
16660890880
16660894786
16660904064
16660908275
16660914684
16660921520
16660930004
16660938182
16660943920
16660949291
16660953868
16660959789
16660964061
16660972118
16660977855
16660985118
16660991710
16660997936
16661002757
16661007762
16661013500
16661018138
16661024730
16661030711
16661035594
16661042674
16661047923
16661053600
16661059276
16661061412
16661070262
16661077769
16661083018
16661086436
16661094432
16661097850
16661103404
16661108897
16661115306
16661121715
16661128489
16661133494
16661139232
16661144603
16661151500
16661156810
16661163218
16661169383
16661175486
16661180064
16661186290
16661191905
16661198619
16661203196
16661207347
16661215953
16661221934
16661227854
16661233103
16661239512
16661244517
16661251048
16661255564
16661261851
16661269724
16661275828
16661281626
16661288401
16661293101
16661297007
16661305003
16661310984
16661317454
16661321604
16661328318
16661333323
16661339915
16661346079
16661352000
16661357066
16661363413
16661369517
16661376231
16661380747
16661386301
16661393503
16661399119
16661405039
16661411082
16661418284
16661424204
16661431345
16661436045
16661441416
16661445810
16661451731
16661457773
16661463694
16661470102
16661475840
16661481028
16661486765
16661491892
16661499277
16661505075
16661510813
16661519419
16661525766
16661532907
16661539316
16661545175
16661552561
16661557993
16661562631
16661571909
16661575876
16661585275
16661589914
16661598215
16661604013
16661611215
16661616647
16661623239
16661629770
16661634470
16661639169
16661645151
16661649606
16661655527
16661659677
16661665414
16661670480
16661677377
16661683481
16661685678
16661693246
16661697885
16661704599
16661706796
16661716806
16661720956
16661727548
16661734323
16661740671
16661745920
16661751413
16661757333
16661764047
16661769296
16661774850
16661780160
16661787484
16661792062
16661798288
16661803476
16661810067
16661815133
16661819345
16661828439
16661832711
16661839486
16661844735
16661850778
16661856027
16661862924
16661868478
16661876412
16661881783
16661885995
16661893868
16661898263
16661904000
16661910653
16661915963
16661921578
16661927499
16661932198
16661938302
16661943978
16661948312
16661953316
16661960580
16661966500
16661972726
16661977975
16661982552
16661988106
16661993294
16661999215
16662002572
16662008736
16662013009
16662023629
16662027657
16662034493
16662041573
16662046944
16662052926
16662060311
16662066475
16662072335
16662079171
16662083931
16662088631
16662093331
16662098763
16662104012
16662110970
16662114571
16662123604
16662130867
16662137886
16662144661
16662153633
16662158943
16662165962
16662169625
16662177193
16662181465
16662190254
16662194161
16662203682
16662208077
16662216133
16662219612
16662225411
16662230415
16662236580
16662240425
16662246284
16662252388
16662258491
16662263374
16662270149
16662275764
16662281990
16662289497
16662294929
16662299324
16662304939
16662310310
16662317085
16662321602
16662325142
16662332649
16662336677
16662343879
16662348091
16662355537
16662360237
16662367073
16662372200
16662377205
16662383186
16662391059
16662395759
16662401435
16662407112
16662410774
16662417915
16662424201
16662430122
16662437202
16662444282
16662448127
16662455635
16662459419
16662466743
16662473152
16662479072
16662485542
16662491340
16662495918
16662501655
16662507514
16662511359
16662518012
16662524909
16662531196
16662537238
16662541816
16662548774
16662554511
16662561347
16662566535
16662571845
16662578559
16662584663
16662592475
16662596076
16662603583
16662607123
16662613227
16662616767
16662624030
16662627753
16662633918
16662640143
16662645087
16662652778
16662657721
16662665046
16662671393
16662677863
16662684333
16662691291
16662696234
16662702826
16662705146
16662715033
16662719306
16662725775
16662736151
16662743048
16662751044
16662757025
16662763312
16662769232
16662776679
16662781745
16662788153
16662793524
16662799506
16662806220
16662812933
16662818427
16662825568
16662827582
16662838629
16662844489
16662849188
16662855597
16662860236
16662864020
16662871893
16662878729
16662883917
16662889288
16662895392
16662901495
16662908209
16662913336
16662917792
16662925055
16662931158
16662936346
16662943670
16662948309
16662954840
16662961371
16662966436
16662971014
16662976568
16662984747
16662988958
16662995855
16663000189
16663007147
16663012457
16663017889
16663023443
16663029608
16663036444
16663041448
16663047613
16663054083
16663059027
16663065801
16663070623
16663074285
16663082403
16663088323
16663096990
16663103765
16663111517
16663118108
16663123968
16663129217
16663134832
16663140630
16663146795
16663153204
16663159124
16663163763
16663170354
16663176092
16663181646
16663189031
16663193426
16663200139
16663203924
16663212407
16663216070
16663222234
16663227361
16663233465
16663238714
16663245794
16663251897
16663258489
16663263799
16663269170
16663274724
16663280523
16663287358
16663292058
16663298528
16663304753
16663311162
16663315435
16663321538
16663327947
16663332769
16663338201
16663343877
16663349004
16663354680
16663361211
16663368901
16663374028
16663380376
16663386296
16663395879
16663401677
16663407292
16663414616
16663421086
16663426274
16663431523
16663438420
16663449101
16663453007
16663460332
16663466313
16663473820
16663477727
16663483952
16663489873
16663496892
16663503117
16663508793
16663513310
16663519230
16663526310
16663531010
16663537968
16663544011
16663551152
16663555912
16663562321
16663566105
16663573674
16663579045
16663584965
16663590947
16663596257
16663600773
16663607548
16663613591
16663618779
16663624821
16663630009
16663637882
16663644718
16663650334
16663653813
16663661686
16663667484
16663674748
16663678593
16663686527
16663692753
16663699650
16663705326
16663712162
16663716373
16663722904
16663730473
16663736515
16663745121
16663753605
16663759769
16663764774
16663770695
16663775577
16663780826
16663786747
16663792667
16663799381
16663805424
16663811283
16663816227
16663822025
16663829410
16663834171
16663841312
16663846317
16663852359
16663856998
16663864017
16663868290
16663875736
16663879642
16663887455
16663894779
16663900333
16663905582
16663911502
16663917423
16663923221
16663929325
16663934513
16663942142
16663948551
16663954288
16663958011
16663965579
16663969364
16663977542
16663981448
16663989627
16663996768
16664005435
16664008975
16664016605
16664023807
16664031192
16664036807
16664042300
16664048343
16664055118
16664060306
16664067142
16664072696
16664080691
16664086001
16664091678
16664098880
16664104922
16664111514
16664116458
16664121768
16664128665
16664133548
16664138614
16664145266
16664150943
16664157718
16664163943
16664169497
16664174563
16664179690
16664186953
16664192630
16664197512
16664204043
16664208865
16664212649
16664221377
16664225711
16664233645
16664239504
16664246218
16664250735
16664257632
16664262881
16664270327
16664274050
16664280093
16664286074
16664292910
16664298586
16664303225
16664308108
16664315432
16664320376
16664327151
16664331911
16664337344
16664345156
16664350771
16664357119
16664360659
16664368960
16664373049
16664382998
16664386965
16664395022
16664401430
16664407839
16664412661
16664419985
16664425295
16664433718
16664439089
16664445437
16664452578
16664459719
16664465395
16664472170
16664477968
16664482180
16664487673
16664493959
16664498842
16664502443
16664510256
16664516542
16664520815
16664527284
16664531313
16664536501
16664544374
16664549379
16664556398
16664561525
16664566652
16664572023
16664578371
16664583498
16664589845
16664596071
16664602297
16664607668
16664613161
16664619875
16664624513
16664631532
16664639406
16664646608
16664652956
16664660219
16664665834
16664670534
16664676515
16664682619
16664687318
16664694337
16664700746
16664706849
16664711305
16664717103
16664722902
16664727784
16664733583
16664739076
16664746644
16664750184
16664756898
16664763368
16664768129
16664772584
16664779359
16664784791
16664792298
16664797486
16664804811
16664810975
16664816285
16664821412
16664828980
16664834413
16664840577
16664845704
16664852357
16664858399
16664862550
16664867799
16664874268
16664879945
16664887025
16664893678
16664899293
16664903748
16664909730
16664914552
16664919679
16664927979
16664934815
16664939515
16664944581
16664951173
16664955994
16664962830
16664967652
16664973084
16664981141
16664986878
16664993287
16664998780
16665003663
16665010926
16665016602
16665024048
16665030213
16665036988
16665041810
16665048340
16665053528
16665059449
16665066346
16665072022
16665076722
16665083435
16665088379
16665095093
16665101502
16665107117
16665111512
16665118836
16665124817
16665129029
16665137512
16665141358
16665147827
16665154297
16665159729
16665164612
16665171326
16665176758
16665183106
16665187927
16665193726
16665198303
16665204407
16665210144
16665215942
16665221558
16665228699
16665235718
16665241272
16665247375
16665253967
16665258728
16665265076
16665271728
16665278137
16665283203
16665286682
16665294922
16665302490
16665307556
16665313843
16665318298
16665325256
16665329773
16665335022
16665339111
16665345276
16665351745
16665356872
16665363037
16665368591
16665374878
16665379089
16665385559
16665388855
16665396545
16665399963
16665406738
16665412109
16665418334
16665423278
16665429748
16665435180
16665440246
16665446533
16665451537
16665457275
16665464294
16665469360
16665476928
16665482543
16665489867
16665494933
16665500854
16665507568
16665513732
16665518981
16665526550
16665532653
16665538085
16665543639
16665550719
16665556090
16665560241
16665569274
16665575927
16665580871
16665585021
16665593444
16665599486
16665604735
16665610839
16665617492
16665622435
16665629149
16665634887
16665642455
16665647216
16665654113
16665660521
16665665282
16665672179
16665678283
16665683226
16665687377
16665695983
16665700133
16665707152
16665712767
16665718810
16665724730
16665730895
16665736754
16665741698
16665747130
16665753783
16665760314
16665766600
16665774107
16665778807
16665784728
16665791747
16665798949
16665801939
16665812682
16665818419
16665827147
16665834349
16665837706
16665849119
16665854796
16665866759
16665875304
16665884459
16665893858
16665905333
16665912108
16665921324
16665927977
16665930845
16665943235
16665948546
16665956663
16665968931
16665976011
16665984556
16665992063
16665998106
16666002561
16666007810
16666014646
16666019529
16666026304
16666031736
16666038877
16666043516
16666049864
16666055845
16666059690
16666067503
16666071775
16666078611
16666084898
16666090879
16666095945
16666102171
16666108640
16666115171
16666120664
16666125303
16666132017
16666138853
16666143613
16666149290
16666154600
16666158384
16666167844
16666176572
16666181455
16666185300
16666193052
16666197263
16666204343
16666210813
16666217893
16666225095
16666232297
16666237668
16666242307
16666247556
16666255002
16666259824
16666265195
16666272092
16666278135
16666285215
16666289975
16666294797
16666301572
16666308042
16666313962
16666320432
16666325009
16666332150
16666339047
16666343869
16666348813
16666355466
16666361691
16666366879
16666371396
16666378110
16666385190
16666389951
16666396054
16666398251
16666407895
16666411679
16666419064
16666423642
16666430661
16666434323
16666441952
16666445920
16666452756
16666456296
16666464657
16666471371
16666475827
16666481442
16666486203
16666492673
16666498227
16666505368
16666511349
16666518612
16666527340
16666533993
16666541439
16666544186
16666555600
16666561703
16666568600
16666576657
16666581601
16666587887
16666594113
16666600460
16666607968
16666614926
16666621456
16666627377
16666634762
16666640682
16666647152
16666652340
16666658993
16666663632
16666670345
16666674740
16666680966
16666686092
16666691769
16666696285
16666701412
16666707088
16666711544
16666717709
16666723080
16666727474
16666733639
16666739742
16666745113
16666750423
16666755733
16666760982
16666767452
16666773311
16666778438
16666783748
16666785457
16666793819
16666799312
16666803768
16666811214
16666816524
16666819942
16666828304
16666834224
16666838802
16666844539
16666850704
16666857051
16666862850
16666870052
16666875484
16666880489
16666886959
16666891963
16666897823
16666904109
16666910884
16666918270
16666923702
16666928096
16666934810
16666939632
16666946102
16666951656
16666956539
16666962337
16666968257
16666972713
16666978145
16666984004
16666988643
16666994746
16667001643
16667006282
16667012752
16667017512
16667023982
16667028438
16667031795
16667041316
16667048152
16667052913
16667059688
16667064693
16667071712
16667077205
16667083552
16667089473
16667094172
16667103389
16667107417
16667117244
16667123225
16667131343
16667135188
16667142817
16667150081
16667158686
16667166377
16667169673
16667176448
16667180232
16667187007
16667193904
16667205134
16667209284
16667214900
16667219966
16667224726
16667229975
16667236506
16667241511
16667247187
16667250971
16667257136
16667262446
16667267268
16667273005
16667278315
16667285273
16667290339
16667295161
16667299616
16667305598
16667310480
16667316828
16667322321
16667328486
16667333552
16667340144
16667345148
16667352473
16667357416
16667363459
16667369868
16667376215
16667381281
16667386896
16667392023
16667397028
16667405390
16667412653
16667419733
16667424006
16667429255
16667435785
16667439325
16667445673
16667450495
16667456903
16667462763
16667470575
16667476252
16667481440
16667486383
16667492731
16667498224
16667503778
16667509882
16667516657
16667521173
16667526605
16667531122
16667537897
16667543451
16667548822
16667556146
16667561640
16667566644
16667571771
16667578546
16667580560
16667590143
16667595514
16667602167
16667608514
16667614801
16667620538
16667624872
16667628473
16667635614
16667641778
16667647455
16667653924
16667658624
16667663568
16667670221
16667676690
16667682367
16667687250
16667692682
16667698907
16667708185
16667713800
16667721490
16667728204
16667735345
16667740655
16667749627
16667756768
16667761529
16667765069
16667772088
16667778131
16667786126
16667790155
16667796136
16667803155
16667807916
16667811395
16667819757
16667823236
16667830499
16667833734
16667840264
16667845513
16667852044
16667856561
16667863213
16667868218
16667873589
16667879083
16667885857
16667891106
16667897210
16667902642
16667908746
16667913873
16667920953
16667925896
16667932061
16667937554
16667945183
16667950310
16667956231
16667962029
16667963982
16667972954
16667976250
16667984124
16667990410
16667995354
16667998955
16668006768
16668010796
16668017632
16668022393
16668028191
16668036492
16668041375
16668048211
16668052605
16668058953
16668063713
16668069939
16668074822
16668080986
16668087395
16668092705
16668096672
16668104851
16668111382
16668116387
16668122246
16668130058
16668136223
16668141167
16668147209
16668151909
16668160393
16668166557
16668172600
16668178032
16668182488
16668190361
16668196281
16668203300
16668209709
16668215752
16668221428
16668227287
16668234184
16668241875
16668247978
16668253898
16668262932
16668270866
16668277031
16668284660
16668287712
16668300163
16668312309
16668321159
16668326408
16668334465
16668343498
16668349968
