16808535156
16808541320
16808546264
16808551513
16808557006
16808561401
16808566161
16808570922
16808576049
16808581786
16808585754
16808590148
16808595702
16808600341
16808605285
16808609984
16808614867
16808619201
16808622069
16808627440
16808632628
16808638488
16808644774
16808650390
16808656615
16808662963
16808668334
16808675353
16808680297
16808688659
16808696227
16808704161
16808711608
16808716857
16808723571
16808732054
16808739623
16808748717
16808757384
16808770873
16808778746
16808786498
16808796874
16808805419
16808812804
16808819335
16808828307
16808834593
16808840636
16808846617
16808853026
16808859618
16808866637
16808871580
16808877867
16808884703
16808889891
16808896788
16808902281
16808908507
16808914854
16808919920
16808925230
16808930113
16808938231
16808943724
16808952330
16808958616
16808964598
16808970030
16808977781
16808987120
16808993284
16809000059
16809006529
16809011717
16809019651
16809028135
16809035826
16809041014
16809047605
16809053282
16809059996
16809066465
16809072874
16809079893
16809085203
16809092222
16809099180
16809105772
16809111082
16809119871
16809125730
16809132566
16809138670
16809144834
16809152341
16809158567
16809165281
16809173948
16809180601
16809188352
16809194150
16809202817
16809209348
16809216123
16809223142
16809228879
16809235776
16809241819
16809248411
16809254758
16809259824
16809266660
16809273923
16809280088
16809286985
16809294065
16809299863
16809309751
16809315305
16809323423
16809331052
16809341123
16809347226
16809355588
16809365110
16809372006
16809384458
16809390866
16809397275
16809403928
16809408811
16809416074
16809421933
16809430417
16809436520
16809442258
16809449094
16809454648
16809460751
16809466733
16809473752
16809481259
16809487668
16809493832
16809500546
16809508053
16809513241
16809521176
16809528500
16809533505
16809540890
16809548153
16809553219
16809559750
16809566952
16809574826
16809580258
16809587521
16809593625
16809601132
16809606808
16809609921
16809620358
16809624081
16809636105
16809642819
16809650936
16809658261
16809664486
16809667904
16809678036
16809681515
16809691769
16809695370
16809704281
16809712948
16809719357
16809724728
16809733028
16809739315
16809745235
16809753292
16809759518
16809765255
16809773556
16809780453
16809787289
16809795223
16809801632
16809805660
16809815060
16809821041
16809830501
16809836605
16809845882
16809852901
16809863216
16809867550
16809877071
16809882747
16809891414
16809897152
16809905880
16809911983
16809921627
16809927852
16809937252
16809944881
16809952632
16809958431
16809966732
16809974361
16809981685
16809987911
16809994380
16810001155
16810005977
16810012630
16810017879
16810024959
16810032954
16810038020
16810042903
16810047237
16810054134
16810058833
16810064265
16810069026
16810074947
16810078853
16810086360
16810088924
16810096553
16810100947
16810105952
16810113460
16810117671
16810120296
16810131404
16810136470
16810140620
16810145442
16810152705
16810156489
16810162471
16810167415
16810173091
16810177607
16810183101
16810187251
16810192988
16810196589
16810202143
16810206416
16810211787
16810215876
16810221919
16810226191
16810232295
16810236506
16810242732
16810246821
16810252619
16810257685
16810262263
16810268733
16810273982
16810279231
16810283930
16810288630
16810294856
16810297663
16810304804
16810309382
16810315547
16810323054
16810328486
16810332942
16810338679
16810345087
16810350520
16810354548
16810360163
16810364802
16810369929
16810376520
16810381342
16810387629
16810392451
16810397517
16810403986
16810409479
16810414667
16810420161
16810424799
16810431452
16810436091
16810441584
16810447931
16810454035
16810459406
16810466059
16810470942
16810476313
16810481379
16810484308
16810493708
16810496576
16810503473
16810508295
16810515436
16810518549
16810525995
16810530512
16810539362
16810546625
16810553217
16810557428
16810564813
16810570856
16810576593
16810581903
16810588739
16810594171
16810601862
16810607355
16810614923
16810619745
16810626825
16810630182
16810636102
16810640802
16810645197
16810651361
16810656793
16810662469
16810667474
16810671259
16810676691
16810681390
16810688409
16810692255
16810698114
16810703546
16810707757
16810713373
16810719903
16810724237
16810730707
16810736261
16810741022
16810746393
16810750970
16810757135
16810762506
16810767877
16810772760
16810777948
16810782708
16810787774
16810792840
16810797601
16810803765
16810806695
16810813287
16810818719
16810823968
16810827020
16810834771
16810839105
16810845880
16810850213
16810856744
16810863763
16810867425
16810873956
16810879144
16810884698
16810890985
16810896111
16810901055
16810906304
16810911248
16810918084
16810921563
16810929864
16810934563
16810940118
16810944451
16810950677
16810957757
16810963311
16810969048
16810973992
16810980096
16810984307
16810991326
16810996575
16811002007
16811007195
16811014275
16811018426
16811024163
16811030388
16811035760
16811040825
16811046624
16811051995
16811058281
16811064080
16811068718
16811074578
16811080742
16811086541
16811090752
16811097344
16811103386
16811112664
16811118279
16811126397
16811134697
16811142144
16811146904
16811159966
16811164360
16811183953
16811191155
16811198540
16811209038
16811216179
16811225761
16811236198
16811244560
16811253105
16811258293
16811267570
16811275383
16811285454
16811292595
16811299858
16811308220
16811315666
16811319816
16811331962
16811339287
16811347831
16811354423
16811364128
16811370475
16811378776
16811384636
16811393425
16811400016
16811409660
16811416008
16811425773
16811432182
16811441886
16811448844
16811455314
16811465202
16811472282
16811480155
16811487174
16811497611
16811505363
16811513236
16811520194
16811528312
16811534721
16811545036
16811551627
16811561271
16811567863
16811577201
16811584159
16811590812
16811600272
16811606071
16811614677
16811622245
16811630851
16811641532
16811648185
16811655326
16811665641
16811677359
16811683768
16811692252
16811702994
16811711905
16811719352
16811725333
16811734061
16811741080
16811750052
16811757071
16811763297
16811769827
16811779532
16811785758
16811795218
16811802054
16811811087
16811818778
16811827322
16811832816
16811840750
16811848807
16811856558
16811863272
16811871024
16811879752
16811888357
16811894888
16811904288
16811910635
16811920401
16811926993
16811936514
16811943228
16811952566
16811959890
16811967825
16811976980
16811986502
16811994009
16812002493
16812011953
16812019155
16812028433
16812042898
16812048941
16812059622
16812068289
16812075002
16812083242
16812090750
16812097524
16812105215
16812111807
16812119802
16812127126
16812135244
16812141958
16812149953
16812157278
16812163076
16812171682
16812180044
16812188039
16812194265
16812202871
16812209279
16812218130
16812224355
16812232778
16812238820
16812247732
16812254873
16812262807
16812272268
16812279775
16812286855
16812296926
16812305165
16812313039
16812319997
16812328847
16812335500
16812347280
16812351674
16812363881
16812368337
16812379506
16812385915
16812395192
16812402333
16812412465
16812418996
16812428700
16812438161
16812446156
16812452687
16812461476
16812467946
16812478139
16812487965
16812495778
16812502247
16812511098
16812515919
16812522633
16812529347
16812534901
16812540944
16812546010
16812551869
16812558156
16812562550
16812567555
16812574574
16812579030
16812585987
16812592213
16812598072
16812603749
16812608265
16812613636
16812621144
16812626149
16812633473
16812638111
16812644886
16812650318
16812656727
16812661427
16812667164
16812674244
16812679554
16812685230
16812691700
16812696339
16812703236
16812709828
16812716480
16812723133
16812731312
16812735462
16812742481
16812747303
16812754688
16812760303
16812768421
16812773609
16812778431
16812782825
16812787769
16812793140
16812798572
16812803577
16812810108
16812815723
16812821277
16812826710
16812832203
16812837574
16812843128
16812848804
16812855335
16812860401
16812866443
16812872181
16812877002
16812882923
16812888904
16812894519
16812899219
16812905567
16812911304
16812917408
16812921924
16812928943
16812933582
16812938648
16812946704
16812951099
16812957569
16812962085
16812968616
16812973255
16812979846
16812984790
16812992359
16812997424
16813002612
16813007861
16813014697
16813020618
16813025867
16813031543
16813038623
16813044543
16813049731
16813055041
16813060168
16813065417
16813072803
16813077380
16813083118
16813090320
16813095691
16813100513
16813106250
16813111316
16813118884
16813123462
16813129016
16813134875
16813140246
16813146533
16813151721
16813157214
16813162890
16813169482
16813175219
16813181323
16813187365
16813193957
16813200488
16813205432
16813212329
16813218981
16813225268
16813232470
16813237231
16813243579
16813250231
16813255358
16813262194
16813268786
16813275317
16813282336
16813288622
16813293444
16813301806
16813306811
16813312609
16813320178
16813324755
16813332995
16813340319
16813346545
16813352282
16813358752
16813363940
16813369189
16813372912
16813379137
16813385058
16813390307
16813394701
16813401110
16813406725
16813412401
16813418078
16813423815
16813428576
16813434130
16813440416
16813446093
16813452013
16813456225
16813462450
16813468493
16813474413
16813478807
16813485216
16813490709
16813495287
16813500902
16813506395
16813514452
16813519762
16813525194
16813530321
16813534410
16813540575
16813544969
16813551439
16813556566
16813563646
16813569444
16813574816
16813579393
16813586595
16813591478
16813597582
16813603624
16813610826
16813617418
16813623033
16813627977
16813633836
16813640184
16813645982
16813652147
16813657823
16813661790
16813667650
16813671678
16813677660
16813682603
16813690965
16813699388
16813706895
16813714525
16813722337
16813730028
16813739488
16813746141
16813755540
16813762986
16813773423
16813780503
16813787217
16813795640
16813802354
16813806199
16813818406
16813825425
16813835252
16813842332
16813850755
16813858079
16813864976
16813872544
16813882005
16813890489
16813897874
16813904343
16813913499
16813921494
16813930589
16813940903
16813948472
16813960862
16813968369
16813976487
16813984543
16813994797
16814003159
16814015122
16814022996
16814030869
16814039292
16814045823
16814055039
16814061875
16814069138
16814079270
16814087937
16814094284
16814100571
16814110154
16814116562
16814125840
16814132492
16814142380
16814149582
16814159043
16814165268
16814173447
16814179978
16814189011
16814195847
16814203659
16814211472
16814220322
16814226547
16814235031
16814242477
16814248825
16814256821
16814264633
16814272751
16814278976
16814287826
16814293625
16814301376
16814309616
16814317428
16814325241
16814331039
16814340255
16814348617
16814354965
16814362045
16814370529
16814376449
16814385727
16814392746
16814400558
16814407516
16814417770
16814424789
16814433395
16814439926
16814448043
16814457076
16814465377
16814472274
16814478622
16814488326
16814495101
16814504440
16814513168
16814519698
16814527267
16814534530
16814542586
16814550887
16814555160
16814566085
16814573531
16814582015
16814591842
16814600142
16814608504
16814614547
16814620894
16814631392
16814640426
16814647994
16814656600
16814664107
16814672774
16814679244
16814688643
16814695723
16814703536
16814712508
16814720015
16814728499
16814737593
16814749373
16814758223
16814769332
16814779097
16814789229
16814797652
16814806746
16814814986
16814822798
16814830733
16814838728
16814844832
16814851118
16814858565
16814864668
16814871870
16814878523
16814885542
16814892561
16814898787
16814906172
16814914045
16814920332
16814927839
16814935286
16814942427
16814949873
16814955305
16814964521
16814970686
16814979475
16814985090
16814993269
16814999617
16815005537
16815013105
16815025129
16815033735
16815040754
16815047834
16815054609
16815058515
16815063947
16815068342
16815073957
16815077986
16815084394
16815088972
16815094587
16815098432
16815103803
16815108625
16815114668
16815120649
16815125898
16815129926
16815135236
16815140485
16815145795
16815150678
16815154645
16815160932
16815166364
16815170881
16815174604
16815178754
16815184064
16815188093
16815194745
16815201520
16815207258
16815211164
16815217023
16815221662
16815226850
16815232587
16815237592
16815244001
16815248945
16815251630
16815259504
16815264692
16815269819
16815274579
16815279584
16815285382
16815292157
16815298322
16815303388
16815308087
16815313459
16815317609
16815324018
16815329511
16815335553
16815341290
16815346173
16815350995
16815356854
16815361859
16815368024
16815377423
16815385663
16815392255
16815400861
16815410443
16815419110
16815424725
16815430646
16815434613
16815440167
16815445050
16815450543
16815456280
16815461468
16815466778
16815472272
16815479108
16815487103
16815495282
16815498578
16815504010
16815510357
16815513714
16815518109
16815521344
16815526104
16815529278
16815534039
16815539776
16815544598
16815549298
16815554181
16815559430
16815565106
16815567974
16815575665
16815578961
16815584942
16815591107
16815595684
16815600140
16815605084
16815610455
16815614971
16815620098
16815627362
16815631390
16815638592
16815642498
16815648052
16815654034
16815659893
16815666668
16815671795
16815675274
16815682354
16815686749
16815692547
16815698162
16815701885
16815710552
16815717510
16815725994
16815732464
16815737957
16815743877
16815749248
16815756573
16815762737
16815769695
16815776409
16815782146
16815790203
16815794109
16815801739
16815806316
16815810833
16815816082
16815821026
16815826885
16815831279
16815836956
16815844341
16815849224
16815854656
16815859356
16815864177
16815870525
16815875896
16815882366
16815886638
16815892620
16815900737
16815904888
16815912517
16815918254
16815925029
16815929302
16815934917
16815941204
16815946880
16815953227
16815958354
16815962810
16815967143
16815972942
16815976665
16815981914
16815986491
16815991496
16815996257
16816001201
16816006023
16816011028
16816015727
16816020305
16816025188
16816030132
16816036113
16816038921
16816045940
16816050151
16816055644
16816061076
16816065410
16816070232
16816076579
16816082439
16816087443
16816091411
16816099406
16816107280
16816114299
16816123088
16816128520
16816137553
16816143046
16816151347
16816160136
16816167765
16816176799
16816184550
16816194499
16816201579
16816210673
16816217570
16816226176
16816233134
16816240763
16816250224
16816258158
16816265238
16816273234
16816280131
16816287455
16816296244
16816302775
16816311747
16816319865
16816326701
16816335307
16816343973
16816350748
16816359415
16816367289
16816373881
16816382303
16816392069
16816397745
16816407389
16816415690
16816423136
16816432108
16816441568
16816448832
16816458841
16816464701
16816474283
16816481974
16816491617
16816498209
16816508158
16816514444
16816524210
16816532755
16816539957
16816548258
16816555826
16816564859
16816573465
16816581949
16816593179
16816602213
16816610818
16816620096
16816628213
16816632608
16816647989
16816655618
16816663370
16816670328
16816678323
16816685220
16816692300
16816699441
16816706643
16816714822
16816720376
16816729471
16816735391
16816743509
16816751260
16816760415
16816766946
16816776223
16816782083
16816790994
16816799661
16816807962
16816814736
16816823709
16816832803
16816840981
16816850015
16816858254
16816864602
16816873086
16816881570
16816889809
16816898599
16816906228
16816914712
16816922402
16816930886
16816939553
16816948220
16816955544
16816964638
16816973000
16816981179
16816989541
16816997414
16817005593
16817013711
16817021462
16817029763
16817037087
16817044899
16817052163
16817059914
16817067482
16817073891
16817082436
16817092079
16817099770
16817106606
16817114479
16817120705
16817130898
16817137612
16817147865
16817155495
16817162758
16817171852
16817178993
16817187782
16817195046
16817204445
16817213234
16817221596
16817227821
16817236549
16817245155
16817253761
16817260536
16817271583
16817277809
16817287575
16817294716
16817302162
16817311867
16817318947
16817326881
16817337013
16817345192
16817351661
16817360878
16817375099
16817383094
16817392311
16817400733
16817410072
16817416847
16817424354
16817434547
16817441993
16817449073
16817456947
16817465614
16817472205
16817476966
16817482459
16817488441
16817492957
16817499122
16817504554
16817511390
16817517554
16817522071
16817528602
16817534461
16817538550
16817545264
16817551795
16817556800
16817562415
16817569068
16817575294
16817579749
16817585303
16817591712
16817597022
16817604896
16817609351
16817615943
16817620948
16817627662
16817632911
16817639502
16817644568
16817650184
16817655677
16817662268
16817667823
16817673682
16817680213
16817685645
16817692237
16817698035
16817704322
16817709326
16817715186
16817721594
16817726477
16817731665
16817736975
16817745215
16817751319
16817756690
16817763403
16817768591
16817773779
16817780310
16817784155
16817791602
16817797888
16817803198
16817809363
16817814490
16817819861
16817826880
16817832434
16817837622
16817843176
16817848791
16817854407
16817860327
16817864905
16817872290
16817876868
16817882666
16817889563
16817895483
16817900915
16817906469
16817910803
16817917456
16817922461
16817929724
16817935888
16817942358
16817946631
16817952734
16817958288
16817963964
16817969152
16817975439
16817983557
16817988745
16817994848
16818002355
16818008947
16818013830
16818021215
16818027746
16818035070
16818039587
16818045629
16818051367
16818056982
16818062475
16818068090
16818074011
16818079382
16818083532
16818090429
16818094457
16818101171
16818105383
16818111852
16818118444
16818123205
16818127843
16818134435
16818138708
16818145238
16818150487
16818155431
16818162450
16818167211
16818172948
16818177770
16818184240
16818189367
16818193883
16818201207
16818207738
16818213292
16818216527
16818224767
16818230565
16818235570
16818240880
16818246556
16818253942
16818259984
16818265660
16818271337
16818275914
16818283361
16818289342
16818294835
16818300267
16818305944
16818310460
16818317540
16818322118
16818328099
16818334142
16818340672
16818345921
16818352513
16818358861
16818364598
16818369115
16818375829
16818380284
16818386205
16818392613
16818398839
16818405553
16818411595
16818416051
16818425206
16818429845
16818436925
16818443577
16818449315
16818455418
16818461095
16818466954
16818472569
16818478306
16818484105
16818491734
16818497593
16818504368
16818509800
16818515172
16818521092
16818526036
16818534031
16818537571
16818545445
16818552525
16818559117
16818565281
16818573216
16818577793
16818585484
16818593540
16818599949
16818604771
16818612461
16818616978
16818623753
16818629612
16818635105
16818641148
16818648045
16818656101
16818663670
16818669590
16818677708
16818685642
16818694187
16818701206
16818710422
16818716526
16818725315
16818731480
16818739963
16818747593
16818755527
16818761387
16818769321
16818777500
16818785007
16818793674
16818801792
16818810215
16818817905
16818825046
16818832676
16818840183
16818848484
16818856357
16818864475
16818872531
16818879978
16818887729
16818894138
16818903476
16818910373
16818916721
16818926181
16818933689
16818941928
16818950107
16818957553
16818964511
16818975253
16818982700
16818990085
16818997104
16819005466
16819011996
16819022067
16819028598
16819037387
16819045688
16819052585
16819059054
16819065463
16819073947
16819081027
16819087741
16819096408
16819103732
16819111117
16819117831
16819126254
16819133395
16819141269
16819151645
16819159701
16819166110
16819174472
16819181246
16819186495
16819195040
16819201510
16819210177
16819217806
16819227755
16819234042
16819241183
16819250338
16819258029
16819264132
16819271761
16819279818
16819287936
16819296114
16819304415
16819311861
16819319857
16819327059
16819331393
16819344698
16819353304
16819364413
16819372652
16819384737
16819392550
16819402498
16819415072
16819421846
16819429659
16819438570
16819444185
16819451693
16819458895
16819465120
16819473726
16819482149
16819488802
16819494600
16819502474
16819508577
16819516268
16819525667
16819532076
16819540865
16819546419
16819554659
16819562898
16819568575
16819574983
16819584261
16819591829
16819598421
16819606416
16819613191
16819618379
16819627351
16819632722
16819640779
16819647981
16819655672
16819661409
16819669832
16819676362
16819683992
16819691011
16819699128
16819707429
16819712861
16819721895
16819727632
16819737214
16819744539
16819751802
16819760224
16819768098
16819776643
16819787202
16819796784
16819803254
16819814729
16819822236
16819831269
16819841462
16819848115
16819855317
16819864228
16819870698
16819880402
16819887544
16819897675
16819906342
16819912995
16819923249
16819929841
16819940034
16819946747
16819954987
16819964326
16819972382
16819980012
16819988007
16819994904
16820002778
16820009369
16820016510
16820023163
16820031891
16820035309
16820043732
16820049714
16820054108
16820058869
16820066498
16820073517
16820080231
16820083405
16820093537
16820100678
16820109894
16820117768
16820123017
16820130524
16820139557
16820146149
16820152069
16820157318
16820162079
16820168121
16820173248
16820178436
16820184784
16820189362
16820195892
16820204010
16820209259
16820213776
16820219452
16820224701
16820229462
16820234344
16820239044
16820245087
16820250458
16820255279
16820260895
16820265777
16820270538
16820275604
16820282074
16820288788
16820294159
16820298919
16820304596
16820308807
16820314972
16820319732
16820325348
16820332428
16820338348
16820342682
16820348907
16820355804
16820360931
16820363861
16820370636
16820375457
16820382476
16820387786
16820392852
16820397491
16820404083
16820408294
16820414153
16820420623
16820426910
16820433746
16820437774
16820444183
16820449310
16820454925
16820460540
16820465911
16820472137
16820478606
16820484954
16820489776
16820493438
16820499847
16820505218
16820511199
16820519561
16820526458
16820531646
16820536651
16820542327
16820547088
16820552642
16820559173
16820566375
16820571990
16820578521
16820583526
16820588836
16820594939
16820599334
16820605986
16820613494
16820618987
16820623565
16820629058
16820635527
16820641509
16820645903
16820651580
16820658965
16820666777
16820671233
16820678618
16820684416
16820692229
16820697783
16820705229
16820711699
16820718291
16820725005
16820729582
16820734831
16820740019
16820746001
16820752348
16820758940
16820763762
16820769988
16820775969
16820781401
16820786528
16820790739
16820796233
16820803007
16820809233
16820813505
16820819365
16820824858
16820830046
16820835539
16820839628
16820845976
16820851347
16820860502
16820867521
16820876249
16820883268
16820891020
16820905119
16820913664
16820921598
16820929655
16820938871
16820949308
16820956816
16820963591
16820972319
16820979948
16820987882
16820995573
16821003813
16821013700
16821021879
16821033598
16821044218
16821053617
16821061552
16821070463
16821079069
16821087064
16821095121
16821102811
16821111051
16821119230
16821127286
16821136137
16821145536
16821153104
16821161588
16821169706
16821177640
16821187406
16821193693
16821203092
16821212613
16821218656
16821229520
16821236112
16821245572
16821253873
16821264493
16821276456
16821283536
16821293973
16821300992
16821313382
16821322049
16821335416
16821346402
16821353604
16821367703
16821383878
16821395169
16821405789
16821419034
16821429288
16821441861
16821453213
16821465115
16821475979
16821485562
16821495022
16821505398
16821512661
16821525113
16821535672
16821546597
16821555447
16821565090
16821576199
16821586819
16821597622
16821605984
16821616482
16821626309
16821636807
16821646145
16821656399
16821665859
16821673977
16821683437
16821693020
16821703152
16821712612
16821723720
16821735012
16821744106
16821753628
16821763210
16821772304
16821783779
16821792873
16821803188
16821812587
16821823207
16821832485
16821842739
16821852077
16821862209
16821871059
16821880825
16821892482
16821901637
16821912013
16821923488
16821930629
16821943935
16821950771
16821962062
16821973720
16821982021
16821992152
16822002895
16822013148
16822022609
16822032558
16822042018
16822053126
16822064418
16822072474
16822081630
16822094203
16822104091
16822111049
16822123195
16822134181
16822142482
16822152919
16822163111
16822171351
16822183924
16822193507
16822202601
16822212794
16822223109
16822232325
16822243067
16822259181
16822268275
16822280299
16822291285
16822298670
16822308314
16822317835
16822323572
16822332789
16822340052
16822345972
16822354822
16822362147
16822367701
16822375696
16822381556
16822389002
16822394983
16822401697
16822409143
16822414331
16822422144
16822427332
16822436792
16822442224
16822451075
16822456995
16822465296
16822471949
16822478784
16822485498
16822493067
16822498804
16822506677
16822512476
16822520044
16822526880
16822533045
16822540552
16822547144
16822553796
16822561426
16822568445
16822576074
16822583337
16822590478
16822597131
16822604150
16822609155
16822616418
16822623315
16822630090
16822637414
16822646387
16822655115
16822660791
16822667688
16822674463
16822683191
16822687219
16822698510
16822702661
16822712182
16822720605
16822728418
16822736291
16822744043
16822749902
16822758020
16822764978
16822776757
16822782983
16822793603
16822797814
16822807397
16822810388
16822818139
16822822778
16822829308
16822834435
16822839318
16822842126
16822849816
16822854699
16822860436
16822867455
16822873132
16822877282
16822883324
16822887658
16822893822
16822899438
16822904565
16822909203
16822915002
16822919396
16822926415
16822932824
16822938866
16822943627
16822949853
16822956811
16822962853
16822967736
16822975487
16822979638
16822985863
16822990319
16822995995
16823000512
16823005516
16823010216
16823015038
16823019066
16823024865
16823030968
16823036095
16823039940
16823045189
16823048973
16823054894
16823058739
16823064720
16823068749
16823075646
16823081505
16823086998
16823092125
16823097435
16823103722
16823109032
16823111717
16823118675
16823125328
16823129173
16823134667
16823140160
16823144371
16823150597
16823156639
16823162376
16823168358
16823172935
16823179466
16823184837
16823193077
16823197899
16823203026
16823207603
16823215416
16823220482
16823226890
16823231041
16823238365
16823241722
16823248985
16823254844
16823260399
16823265770
16823272300
16823278526
16823282921
16823288780
16823293907
16823300499
16823306785
16823317649
16823323143
16823330528
16823337059
16823344444
16823349266
16823355979
16823362998
16823368675
16823373924
16823379844
16823385581
16823389976
16823396324
16823402305
16823407127
16823413169
16823418113
16823426658
16823433616
16823438926
16823445518
16823450401
16823459190
16823464500
16823471152
16823477012
16823482383
16823488120
16823493369
16823499534
16823507896
16823514487
16823520713
16823528220
16823535850
16823541526
16823547690
16823554709
16823561057
16823566184
16823569663
16823575828
16823580222
16823584372
16823590964
16823596579
16823601035
16823606467
16823611228
16823616965
16823621115
16823627219
16823632407
16823638388
16823643576
16823647300
16823653769
16823659629
16823665366
16823670066
16823676108
16823680564
16823687216
16823691977
16823697165
16823700766
16823706992
16823711814
16823716757
16823722250
16823727561
16823732443
16823739035
16823745261
16823749899
16823755331
16823759665
16823765036
16823769553
16823774252
16823780783
16823786154
16823792868
16823798117
16823803671
16823808005
16823814047
16823818930
16823824545
16823829611
16823836874
16823840414
16823846701
16823851584
16823858298
16823862265
16823868063
16823873373
16823880453
16823885153
16823890158
16823893148
16823903280
16823910604
16823920614
16823928305
16823936605
16823942526
16823950216
16823958090
16823966024
16823974447
16823979940
16823991537
16823999044
16824007223
16824014730
16824020712
16824028585
16824038595
16824046224
16824055990
16824064779
16824073385
16824080221
16824088094
16824096212
16824105916
16824115987
16824123373
16824135335
16824144246
16824158712
16824165853
16824170797
16824184896
16824192037
16824201070
16824208150
16824214986
16824218953
16824230367
16824237142
16824245320
16824252767
16824261434
16824270711
16824278462
16824284261
16824291280
16824299153
16824306783
16824316182
16824321309
16824330098
16824336263
16824345601
16824351888
16824360432
16824367024
16824374043
16824379170
16824390828
16824394246
16824405476
16824409260
16824419026
16824425313
16824434956
16824442036
16824448689
16824454976
16824464070
16824469502
16824478718
16824484211
16824491169
16824499714
16824506672
16824513325
16824520771
16824526875
16824535847
16824541645
16824551045
16824560932
16824569111
16824575642
16824583882
16824589863
16824598591
16824605061
16824613423
16824619709
16824629414
16824635517
16824641987
16824650776
16824656818
16824666035
16824671223
16824681049
16824689594
16824699177
16824704731
16824714069
16824720722
16824727497
16824734394
16824742389
16824751789
16824760212
16824767841
16824775654
16824782978
16824790302
16824796833
16824804889
16824814289
16824821003
16824828876
16824836689
16824842914
16824851825
16824857624
16824865619
16824873126
16824882526
16824893634
16824902545
16824912006
16824919879
16824928729
16824940692
16824952777
16824960651
16824968951
16824975299
16824985980
16824990253
16824999896
16825007342
16825016986
16825021075
16825031573
16825037799
16825045855
16825052020
16825061480
16825067889
16825076312
16825082232
16825090472
16825098956
16825106524
16825115069
16825124102
16825130999
16825140277
16825146746
16825155169
16825163775
16825172442
16825178668
16825185382
16825195025
16825202410
16825209612
16825216631
16825224688
16825230547
16825239764
16825245684
16825254900
16825261858
16825268328
16825272906
16825279681
16825284380
16825289141
16825294573
16825300188
16825305193
16825310198
16825317888
16825323015
16825327288
16825332598
16825339739
16825347063
16825352434
16825359270
16825365130
16825370195
16825376604
16825381914
16825386187
16825391008
16825398699
16825404619
16825410295
16825415422
16825422014
16825426104
16825431597
16825436968
16825443315
16825449175
16825455706
16825460710
16825465532
16825468706
16825475725
16825481584
16825487261
16825494646
16825500566
16825503496
16825509599
16825514421
16825521684
16825526201
16825531816
16825536760
16825543413
16825547929
16825552690
16825559404
16825565569
16825573198
16825579240
16825584123
16825592058
16825597429
16825606584
16825610734
16825620073
16825626115
16825633256
16825640031
16825645891
16825651750
16825657670
16825663896
16825669023
16825675676
16825681474
16825691606
16825696916
16825702165
16825708024
16825713823
16825719499
16825725785
16825732499
16825738481
16825744462
16825748735
16825755693
16825760392
16825765641
16825770951
16825776933
16825783525
16825788590
16825793534
16825799638
16825804521
16825811479
16825816056
16825821793
16825828935
16825834428
16825839494
16825844682
16825851273
16825856217
16825862138
16825867020
16825872636
16825877824
16825883927
16825888505
16825895158
16825899735
16825906510
16825912614
16825916581
16825925187
16825931046
16825936783
16825940629
16825947342
16825951981
16825958939
16825962723
16825968400
16825974076
16825981278
16825987259
16825992814
16825997574
16826003678
16826009415
16826013443
16826020829
16826026810
16826031998
16826036454
16826043289
16826048966
16826055680
16826059525
16826067215
16826070694
16826078751
16826083817
16826090103
16826095841
16826101517
16826108170
16826113358
16826119156
16826125015
16826130997
16826136063
16826143997
16826147354
16826155655
16826160538
16826166824
16826174149
16826184097
16826190994
16826198563
16826203506
16826209976
16826217483
16826222122
16826229568
16826235794
16826242141
16826248977
16826253433
16826259781
16826265762
16826269973
16826277054
16826282486
16826286697
16826292556
16826298599
16826302505
16826308670
16826313613
16826319839
16826323806
16826330459
16826335342
16826340103
16826345596
16826350418
16826355545
16826361404
16826368850
16826373855
16826377029
16826383987
16826390701
16826396194
16826400710
16826404922
16826412246
16826418594
16826423476
16826430129
16826434707
16826439956
16826446120
16826451186
16826457351
16826462722
16826473098
16826477676
16826487746
16826494338
16826503554
16826509963
16826520156
16826528029
16826536025
16826544631
16826550979
16826560927
16826567031
16826574416
16826583266
16826591201
16826599746
16826608168
16826615737
16826624037
16826630446
16826639907
16826649123
16826655715
16826664382
16826671584
16826680068
16826686843
16826696303
16826702284
16826711867
16826719130
16826726881
16826734389
16826742690
16826749281
16826758498
16826766981
16826775038
16826781386
16826790114
16826799086
16826806715
16826813795
16826821791
16826829359
16826837172
16826847242
16826852125
16826862562
16826869093
16826877394
16826886366
16826892347
16826901258
16826910109
16826917494
16826926405
16826935926
16826947828
16826954908
16826967909
16826976393
16826985121
16826992323
16827001173
16827010877
16827019544
16827026502
16827033216
16827043653
16827050306
16827060255
16827066846
16827075574
16827081129
16827090589
16827099195
16827105604
16827112989
16827119947
16827126600
16827137098
16827145398
16827153455
16827160901
16827168897
16827176831
16827185132
16827192151
16827201245
16827207898
16827216443
16827223401
16827233289
16827239270
16827246289
16827255017
16827260266
16827272534
16827278394
16827287488
16827293408
16827302075
16827309583
16827316907
16827325269
16827332410
16827340100
16827346936
16827355237
16827362317
16827369885
16827377820
16827384289
16827393201
16827400159
16827409680
16827418347
16827425854
16827432873
16827440136
16827449719
16827456311
16827464306
16827472058
16827480786
16827487378
16827496533
16827505688
16827512890
16827522534
16827529980
16827539440
16827548596
16827555065
16827563122
16827572277
16827581677
16827588940
16827597851
16827607189
16827612255
16827624462
16827633068
16827642223
16827651196
16827657909
16827664379
16827674755
16827681286
16827691051
16827698070
16827707531
16827714184
16827720714
16827730907
16827738964
16827746471
16827755993
16827764721
16827772716
16827781810
16827789318
16827798412
16827805736
16827816722
16827824413
16827832836
16827839611
16827851146
16827858776
16827866710
16827872814
16827883495
16827890086
16827897594
16827903514
16827911815
16827916332
16827923045
16827927135
16827933055
16827937450
16827943614
16827947887
16827954356
16827958934
16827965099
16827970531
16827976085
16827982188
16827988048
16827992686
16827998607
16828003917
16828009105
16828013194
16828019114
16828024791
16828031627
16828036937
16828039988
16828048472
16828051585
16828059581
16828064036
16828071116
16828074962
16828082713
16828087352
16828093272
16828099681
16828104502
16828110362
16828115184
16828122691
16828127635
16828132640
16828137522
16828144480
16828150096
16828155162
16828159739
16828165354
16828172190
16828178050
16828183054
16828187876
16828193919
16828199290
16828205698
16828211497
16828216929
16828223460
16828229136
16828235239
16828241343
16828246287
16828253916
16828258005
16828266245
16828271250
16828277415
16828284556
16828289011
16828296213
16828301218
16828308481
16828312815
16828319040
16828323191
16828331797
16828336619
16828344248
16828349680
16828356394
16828362864
16828366831
16828374765
16828382029
16828387949
16828392527
16828398935
16828405344
16828412241
16828418100
16828425974
16828433420
16828443247
16828450205
16828458444
16828464914
16828473215
16828477731
16828486398
16828493784
16828498605
16828505075
16828509226
16828514597
16828519296
16828524545
16828531503
16828536569
16828541452
16828546884
16828552194
16828556528
16828563547
16828568796
16828574106
16828578989
16828584543
16828590158
16828595529
16828599740
16828605539
16828611032
16828616708
16828623178
16828629403
16828634775
16828640085
16828646676
16828652780
16828657357
16828664987
16828671212
16828677255
16828683175
16828687509
16828694223
16828699533
16828706185
16828711068
16828717111
16828722909
16828729440
16828733285
16828740914
16828744088
16828750985
16828755502
16828762826
16828768563
16828774178
16828780099
16828784676
16828791085
16828794808
16828801522
16828806771
16828812814
16828818368
16828823434
16828829537
16828835336
16828839913
16828845834
16828850899
16828856759
16828861520
16828868294
16828873360
16828878060
16828884774
16828889657
16828895333
16828900033
16828908333
16828913399
16828920479
16828926461
16828931893
16828937020
16828942696
16828947762
16828953682
16828958565
16828965889
16828971932
16828977486
16828982003
16828987130
16828994088
16828999398
16829005196
16829010933
16829017769
16829023995
16829030342
16829035591
16829043953
16829049507
16829056221
16829064461
16829070748
16829078743
16829084236
16829088265
16829094307
16829099068
16829104134
16829108955
16829115486
16829120613
16829129036
16829138130
16829144844
16829148750
16829161079
16829165474
16829175362
16829183418
16829191292
16829198067
16829205513
16829211372
16829219734
16829225654
16829235420
16829241279
16829250618
16829256538
16829264290
16829272651
16829280891
16829288276
16829296882
16829304206
16829311470
16829321296
16829329475
16829336738
16829343086
16829351570
16829358039
16829367256
16829373725
16829383552
16829392158
16829400153
16829406440
16829415595
16829422370
16829431953
16829439033
16829446479
16829456061
16829463203
16829471137
16829479438
16829487128
16829494941
16829504218
16829512824
16829521796
16829528266
16829539374
16829545844
16829553901
16829563788
16829572760
16829579535
16829589850
16829597724
16829609503
16829617316
16829625189
16829635077
16829642218
16829647894
16829659003
16829665106
16829674628
16829678595
16829689948
16829697516
16829706244
16829714606
16829722418
16829728522
16829737006
16829743231
16829752631
16829758856
16829767645
16829776984
16829783331
16829791693
16829800482
16829809637
16829816412
16829827032
16829833807
16829842291
16829850592
16829860357
16829867987
16829875494
16829882208
16829890448
16829894049
16829904425
16829909613
16829917486
16829924444
16829931829
16829941900
16829952276
16829971319
16829983221
16829996526
16830007513
16830018621
16830028326
16830038641
16830048162
16830058050
16830065252
16830071538
16830080083
16830088323
16830096868
16830107061
16830114995
16830123357
16830130864
16830137883
16830144903
16830151250
16830159429
16830165715
16830172490
16830179631
16830186589
16830194707
16830200505
16830207280
16830215398
16830222661
16830228826
16830236638
16830242681
16830251348
16830259465
16830267156
16830273198
16830280156
16830288945
16830295781
16830302007
16830308904
16830315129
16830322270
16830328618
16830336308
16830344426
16830351384
16830360234
16830367009
16830374211
16830380803
16830387028
16830393925
16830403691
16830410466
16830417241
16830424077
16830431340
16830441472
16830446415
16830455571
16830460331
16830472721
16830479374
16830485295
16830494145
16830498600
16830504826
16830512944
16830519657
16830526066
16830532475
16830539860
16830544193
16830551701
16830557194
16830563786
16830568974
16830574223
16830579777
16830583927
16830589298
16830593876
16830598454
16830602360
16830606632
16830610783
16830613956
16830618534
16830625065
16830629581
16830633915
16830639896
16830644657
16830649174
16830653568
16830659122
16830664371
16830671390
16830675785
16830680424
16830686039
16830690006
16830694950
16830699772
16830705875
16830711124
16830716739
16830721378
16830725773
16830730961
16830734684
16830740604
16830747440
16830751651
16830757267
16830763370
16830766727
16830772586
16830777042
16830783145
16830788822
16830796390
16830800357
16830806644
16830811771
16830817020
16830822574
16830828311
16830834049
16830840152
16830845218
16830850345
16830856387
16830860477
16830866153
16830870914
16830879154
16830885318
16830890994
16830896304
16830901981
16830906558
16830912357
16830917545
16830923648
16830929080
16830935977
16830941775
16830946841
16830951846
16830957400
16830960391
16830967410
16830972720
16830979312
16830983829
16830989261
16830995914
16831000247
16831006228
16831011294
16831016665
16831023868
16831030398
16831034427
16831040347
16831045474
16831052676
16831060977
16831067385
16831074038
16831082156
16831087527
16831093997
16831100527
16831108462
16831113528
16831119143
16831126162
16831131472
16831138003
16831144045
16831149355
16831155520
16831162234
16831168582
16831173586
16831179263
16831184206
16831188601
16831194033
16831201601
16831206484
16831213076
16831217776
16831222781
16831225710
16831234255
16831238283
16831247561
16831252138
16831258730
16831261904
16831269900
16831274538
16831281985
16831287722
16831294314
16831299196
16831306643
16831313296
16831319094
16831322207
16831329592
16831334780
16831340944
16831347536
16831352602
16831359804
16831366823
16831371584
16831376650
16831382448
16831387453
16831395754
16831401003
16831406557
16831412355
16831418825
16831424196
16831430666
16831436708
16831442568
16831448732
16831455202
16831460817
16831466188
16831471010
16831476442
16831481691
16831486635
16831493227
16831497743
16831504945
16831509096
16831517458
16831521608
16831527650
16831534914
16831539552
16831543764
16831550172
16831554994
16831560304
16831565675
16831570497
16831576112
16831580446
16831585634
16831591981
16831596010
16831605531
16831612977
16831620851
16831630433
16831639100
16831649781
16831658326
16831667543
16831675782
16831680848
16831694825
16831700502
16831716920
16831725099
16831734620
16831741700
16831750367
16831759583
16831768800
16831775575
16831785401
16831791871
16831801514
16831809144
16831816285
16831820679
16831832947
16831837403
16831849793
16831854066
16831863709
16831870057
16831879700
16831886353
16831897400
16831904053
16831911988
16831920411
16831928772
16831937500
16831943665
16831953003
16831958985
16831968933
16831976929
16831984436
16831988587
16832000428
16832004700
16832016907
16832023926
16832031922
16832038330
16832047302
16832055908
16832061646
16832071167
16832078186
16832087769
16832094421
16832104675
16832112000
16832119385
16832125793
16832136597
16832140747
16832152283
16832159851
16832167847
16832174560
16832183533
16832190552
16832199219
16832207641
16832213318
16832223144
16832230652
16832240051
16832247924
16832255554
16832263244
16832270446
16832277832
16832285583
16832292907
16832301513
16832308105
16832318115
16832324706
16832334167
16832343261
16832350891
16832359924
16832366882
16832377013
16832385131
16832393310
16832402099
16832410278
16832419006
16832427673
16832436340
16832444518
16832454284
16832461303
16832469787
16832478820
16832484801
16832493285
16832499206
16832509154
16832519774
16832531005
16832542968
16832551940
16832559020
16832567565
16832577513
16832585387
16832594603
16832600280
16832609618
16832615721
16832623168
16832631774
16832637694
16832643553
16832653014
16832661376
16832669249
16832676146
16832683409
16832690611
16832700377
16832707945
16832715086
16832723936
16832730955
16832737242
16832746764
16832751829
16832759276
16832768065
16832776854
16832784056
16832791136
16832798338
16832807799
16832813597
16832822386
16832831114
16832838072
16832844725
16832854490
16832860472
16832869932
16832876890
16832887388
16832894041
16832901914
16832909971
16832919615
16832925840
16832935911
16832943235
16832950865
16832959165
16832967039
16832974912
16832982481
16832991209
16832999509
16833008237
16833015806
16833021055
16833027830
16833033628
16833040647
16833045347
16833050474
16833057493
16833063108
16833069700
16833075742
16833081785
16833086973
16833089963
16833097898
16833102231
16833109739
16833115415
16833121030
16833126889
16833131894
16833138364
16833144468
16833150693
16833156430
16833161618
16833166684
16833174253
16833178586
16833185178
16833190122
16833195127
16833200925
16833208615
16833213315
16833221311
16833225766
16833233640
16833238767
16833245847
16833250852
16833258237
16833265134
16833272214
16833278745
16833284421
16833290402
16833296506
16833301450
16833307370
16833313962
16833319821
16833323849
16833329159
16833335263
16833338803
16833344845
16833349789
16833356808
16833361569
16833367367
16833372555
16833377926
16833383725
16833388486
16833393124
16833400143
16833405636
16833410763
16833413998
16833422055
16833426449
16833433896
16833438412
16833445248
16833453122
16833457943
16833463742
16833469601
16833474301
16833480099
16833486386
16833491329
16833499325
16833504330
16833509457
16833514401
16833520626
16833527035
16833532528
16833537106
16833543575
16833548947
16833555599
16833562985
16833568844
16833574886
16833578548
16833585690
16833589962
16833597103
16833602108
16833607418
16833613216
16833618343
16833623653
16833631161
16833636776
16833642025
16833647335
16833653683
16833658382
16833664486
16833668941
16833675472
16833681942
16833688167
16833694942
16833701229
16833705990
16833711971
16833717891
16833722652
16833729122
16833735042
16833739742
16833745601
16833752193
16833757442
16833762569
16833767452
16833775020
16833780452
16833786190
16833793209
16833798946
16833805110
16833809871
16833816219
16833821346
16833827205
16833834285
16833840694
16833848079
16833853511
16833859432
16833865291
16833871700
16833877132
16833882686
16833889095
16833894832
16833899532
16833904720
16833910823
16833916499
16833921748
16833927425
16833932674
16833938899
16833943599
16833949092
16833953792
16833957942
16833964473
16833969478
16833974299
16833978755
16833984920
16833989436
16833997065
16834002070
16834007197
16834011409
16834017390
16834025020
16834030452
16834034663
16834040156
16834045405
16834051326
16834057856
16834062190
16834068476
16834074336
16834079035
16834084895
16834091548
16834097346
16834102900
16834108332
16834113825
16834120295
16834126093
16834131709
16834137202
16834143427
16834149470
16834154475
16834160761
16834167475
16834173640
16834178462
16834185053
16834189692
16834195612
16834202021
16834206232
16834214655
16834218745
16834225275
16834229975
16834236445
16834242365
16834247736
16834254328
16834260676
16834265803
16834273493
16834276301
16834284846
16834287958
16834296564
16834301813
16834306391
16834314631
16834320612
16834326899
16834331781
16834337885
16834344477
16834349665
16834355402
16834362604
16834368952
16834373651
16834378534
16834385004
16834391596
16834396417
16834401361
16834406671
16834413812
16834419428
16834425714
16834432184
16834437738
16834443720
16834448480
16834456354
16834462763
16834470758
16834479242
16834484552
16834489557
16834495660
16834500787
16834506158
16834511102
16834517816
16834523004
16834527826
16834533502
16834540643
16834546442
16834551996
16834559137
16834564447
16834567132
16834575433
16834581048
16834586175
16834589227
16834597955
16834603692
16834611200
16834614251
16834621454
16834626214
16834633600
16834638971
16834644708
16834651849
16834658319
16834665094
16834670648
16834675836
16834681451
16834685907
16834693414
16834699151
16834705255
16834709832
16834717095
16834721673
16834728204
16834733209
16834739617
16834744378
16834751275
16834757012
16834761956
16834768060
16834772637
16834779412
16834784478
16834789849
16834796990
16834801812
16834807305
16834814324
16834819634
16834824700
16834830254
16834835869
16834843255
16834848748
16834854485
16834859673
16834865838
16834871819
16834877556
16834882378
16834888360
16834895745
16834900322
16834907708
16834912285
16834918816
16834923333
16834930291
16834936943
16834943352
16834949211
16834953911
16834960869
16834966057
16834972588
16834977959
16834983330
16834990776
16834996392
16834999382
16835008904
16835011772
16835018791
16835025017
16835030571
16835036125
16835046074
16835052849
16835058037
16835064446
16835070305
16835075798
16835083794
16835091118
16835097466
16835101921
16835108147
16835112724
16835118034
16835123588
16835129265
16835135979
16835141533
16835147880
16835153007
16835159416
16835163322
16835169792
16835174492
16835181511
16835187248
16835194206
16835197807
16835203850
16835208732
16835215263
16835220451
16835225517
16835232719
16835238273
16835244316
16835249626
16835255973
16835261100
16835267326
16835272758
16835278007
16835283866
16835288688
16835294853
16835299430
16835306449
16835310966
16835317619
16835325797
16835332206
16835337211
16835342460
16835348380
16835352714
16835359977
16835366203
16835371024
16835375907
16835382926
16835388236
16835394157
16835398612
16835405875
16835411124
16835417045
16835425346
16835430778
16835436576
16835441398
16835444511
16835453544
16835456473
16835463309
16835471000
16835477042
16835481681
16835489249
16835494498
16835500541
16835506400
16835512015
16835518302
16835523429
16835529654
16835534110
16835541434
16835546744
16835552115
16835558890
16835565421
16835572501
16835577872
16835582816
16835588675
16835594535
16835599967
16835604422
16835610160
16835615470
16835623770
16835629080
16835638114
16835644766
16835651541
16835659964
16835668936
16835678458
16835687796
16835693655
16835698721
16835705679
16835710928
16835714590
16835721426
16835725577
16835731619
16835735586
16835742911
16835748221
16835754141
16835760550
16835766226
16835772940
16835778250
16835782889
16835787710
16835793448
16835799490
16835804861
16835811026
16835816153
16835823233
16835828054
16835834890
16835840200
16835844900
16835852468
16835858206
16835863577
16835870596
16835875906
16835881338
16835886892
16835894338
16835900076
16835903372
16835911611
16835915518
16835924246
16835931387
16835936086
16835942434
16835947073
16835953298
16835959280
16835965322
16835970510
16835978567
16835983205
16835988393
16835994619
16836001272
16836007375
16836012929
16836017202
16836024526
16836029592
16836036672
16836041494
16836047780
16836055166
16836060659
16836065542
16836069936
16836077688
16836084768
16836092092
16836097219
16836103505
16836106740
16836115041
16836121816
16836128774
16836136098
16836142934
16836147695
16836152333
16836159841
16836165212
16836169973
16836176442
16836182851
16836187551
16836194753
16836199391
16836204457
16836210744
16836217519
16836223012
16836229726
16836233693
16836242726
16836247975
16836253774
16836260426
16836266896
16836272694
16836280080
16836284901
16836291066
16836296620
16836301869
16836310170
16836314625
16836323231
16836329335
16836334523
16836339650
16836343739
16836349660
16836355580
16836360707
16836366932
16836372853
16836377858
16836384511
16836389393
16836394032
16836400380
16836404469
16836411366
16836417836
16836423329
16836428151
16836434803
16836439015
16836444203
16836449940
16836455677
16836459828
16836466664
16836473866
16836479725
16836484059
16836489491
16836494923
16836501026
16836505604
16836511463
16836515736
16836521412
16836527699
16836533314
16836538990
16836545582
16836551319
16836556019
16836562977
16836567982
16836573963
16836580677
16836587086
16836591236
16836598988
16836603260
16836608936
16836614735
16836621693
16836627308
16836631763
16836638050
16836644642
16836649830
16836654590
16836661487
16836666492
16836672413
16836677356
16836683338
16836688526
16836695118
16836703174
16836709034
16836715015
16836722095
16836727771
16836733631
16836738636
16836745655
16836751636
16836758106
16836762867
16836768726
16836775989
16836782703
16836788684
16836796497
16836801746
16836808032
16836813587
16836818897
16836824146
16836829334
16836835864
16836841724
16836847339
16836851001
16836858386
16836863269
16836873218
16836879382
16836885181
16836890674
16836897082
16836905505
16836914538
16836920154
16836928577
16836933581
16836939624
16836946033
16836952563
16836957629
16836965381
16836971057
16836975268
16836979480
16836986804
16836992297
16836999377
16837004748
16837010852
16837016650
16837020922
16837026477
16837030505
16837038134
16837043017
16837048388
16837053149
16837060900
16837065783
16837071398
16837077380
16837084094
16837087634
16837094042
16837100756
16837106371
16837112841
16837118395
16837123889
16837128527
16837137011
16837142626
16837151293
16837155138
16837161791
16837167223
16837173205
16837179491
16837185473
16837188708
16837195299
16837200121
16837207506
16837213671
16837220019
16837224779
16837230028
16837237597
16837243395
16837248217
16837253588
16837260058
16837265429
16837272509
16837277392
16837284289
16837287401
16837296312
16837302416
16837308397
16837313585
16837318102
16837325121
16837331102
16837337328
16837342333
16837347826
16837354113
16837359606
16837365282
16837371263
16837377916
16837384203
16837390978
16837396654
16837400011
16837406786
16837414171
16837419115
16837425157
16837433397
16837440721
16837447008
16837452257
16837460130
16837464708
16837469530
16837477525
16837481554
16837492845
16837499498
16837505479
16837511400
16837518785
16837524217
16837532579
16837538499
16837545640
16837554429
16837558641
16837564744
16837569871
16837575059
16837581773
16837586229
16837594529
16837599107
16837606309
16837612046
16837618821
16837623521
16837629197
16837634751
16837641038
16837647569
16837654100
16837659288
16837665391
16837668687
16837677293
16837682359
16837688035
16837693711
16837700303
16837705857
16837711228
16837716477
16837724351
16837729417
16837735032
16837740891
16837746690
16837753037
16837757920
16837763718
16837769578
16837776658
16837781480
16837787522
16837793198
16837799607
16837806443
16837810715
16837817307
16837822251
16837827378
16837833604
16837840378
16837846848
16837850998
16837856919
16837864060
16837867478
16837874314
16837879258
16837886399
16837893845
16837899643
16837905808
16837910935
16837916306
16837923142
16837928818
16837933579
16837939438
16837946946
16837952805
16837956650
16837965012
16837971115
16837975815
16837981552
16837988327
16837993210
16837999741
16838004563
16838010544
16838017929
16838022141
16838030075
16838035812
16838043808
16838051865
16838058090
16838064316
16838068954
16838074509
16838081711
16838087875
16838095505
16838103134
16838110092
16838118027
16838121994
16838138229
16838146713
16838153976
16838163925
16838172653
16838184921
16838190353
16838202011
16838209457
16838217880
16838225570
16838235824
16838242721
16838251510
16838258834
16838265609
16838272933
16838278793
16838285079
16838289230
16838298324
16838301620
16838310958
16838313705
16838319930
16838322677
16838329818
16838335800
16838339950
16838347762
16838353866
16838359237
16838364730
16838369064
16838374801
16838380233
16838384322
16838391585
16838397750
16838402755
16838410201
16838415633
16838421798
16838428023
16838434066
16838439986
16838446395
16838451461
16838458236
16838462935
16838468612
16838473739
16838482345
16838488265
16838494613
16838499312
16838504989
16838511092
16838518050
16838525435
16838530867
16838536361
16838542830
16838548445
16838553755
16838559676
16838566756
16838572432
16838575789
16838583052
16838588179
16838594405
16838599593
16838606795
16838611495
16838617476
16838624739
16838628645
16838637434
16838641707
16838649153
16838653853
16838660017
16838667403
16838673018
16838676253
16838683943
16838690718
16838696455
16838701216
16838708357
16838714033
16838719771
16838726057
16838729780
16838737166
16838741926
16838749800
16838754988
16838760542
16838763655
16838772688
16838776472
16838784468
16838791426
16838798018
16838802778
16838809980
16838817060
16838822615
16838829878
16838837080
16838843855
16838851545
16838857466
16838862348
16838865217
16838872175
16838876448
16838883650
16838888593
16838895613
16838898481
16838906172
16838911360
16838917219
16838921797
16838928022
16838933943
16838938398
16838944379
16838949445
16838953596
16838959821
16838964155
16838970991
16838977338
16838983015
16838988874
16838994123
16838999372
16839004621
16839010786
16839016218
16839022077
16839026960
16839034040
16839040021
16839045148
16839050336
16839056989
16839062177
16839068220
16839075422
16839081403
16839084394
16839091474
16839095990
16839103803
16839106916
16839114301
16839119306
16839126264
16839130841
16839137067
16839142987
16839146955
16839154096
16839158673
16839165509
16839171002
16839176618
16839180646
16839187421
16839192914
16839200055
16839204205
16839212445
16839216535
16839222821
16839229535
16839234418
16839238873
16839246075
16839251386
16839257184
16839263043
16839269391
16839274518
16839280499
16839283734
16839293927
16839299725
16839322735
16839328656
16839336712
16839342450
16839347394
16839352154
16839356915
16839365277
16839370465
16839377240
16839382367
16839389264
16839397076
16839403302
16839410077
16839416363
16839422528
16839427044
16839435040
16839440899
16839447979
16839455059
16839461041
16839466107
16839471539
16839476788
16839482464
16839487469
16839493023
16839499005
16839504925
16839509686
16839515850
16839521343
16839525616
16839531353
16839537457
16839544537
16839548382
16839556194
16839561138
16839565777
16839570171
16839576397
16839581707
16839586956
16839592327
16839597637
16839603130
16839608806
16839613323
16839619427
16839624126
16839629742
16839635906
16839641460
16839650860
16839656597
16839661968
16839667339
16839671428
16839677410
16839682110
16839688335
16839692730
16839698467
16839704204
16839709880
16839715129
16839720195
16839727703
16839731121
16839739055
16839744304
16839751567
16839755779
16839762126
16839766460
16839772869
16839777812
16839783916
16839789592
16839795390
16839798076
16839806438
16839812785
16839818218
16839821147
16839828532
16839835613
16839842204
16839845378
16839852397
16839857524
16839863445
16839864909
16839872478
16839879008
16839884746
16839889934
16839897502
16839902995
16839908671
16839914165
16839918742
16839926555
16839930766
16839935283
16839942363
16839946635
16839950847
16839957622
16839961039
16839969706
16839974772
16839982280
16839988078
16839992778
16839998698
16840007060
16840011271
16840018595
16840023295
16840030802
16840036479
16840042521
16840048564
16840053446
16840058085
16840066264
16840071330
16840077799
16840083232
16840087809
16840094889
16840098795
16840103739
16840109782
16840115336
16840119547
16840125346
16840129923
16840135844
16840141947
16840147013
16840152506
16840158427
16840163248
16840168253
16840173380
16840178324
16840182719
16840189188
16840194620
16840199930
16840206522
16840211283
16840217264
16840223063
16840228007
16840233622
16840238321
16840245096
16840251871
16840257303
16840262674
16840267557
16840273905
16840277018
16840283793
16840288492
16840295633
16840300394
16840306620
16840313028
16840320230
16840324198
16840333109
16840337320
16840347269
16840351236
16840359659
16840365640
16840374430
16840378275
16840386637
16840392984
16840399637
16840405191
16840411112
16840416544
16840421121
16840426065
16840433145
16840440286
16840445047
16840449686
16840456216
16840462442
16840467386
16840472574
16840479471
16840485086
16840491434
16840496500
16840504556
16840509500
16840515176
16840520120
16840525674
16840532144
16840537454
16840543802
16840548990
16840554239
16840560830
16840569253
16840574930
16840580972
16840588723
16840595681
16840602029
16840609292
16840616372
16840621743
16840629190
16840633767
16840639810
16840643899
16840649880
16840655374
16840660012
16840665200
16840671365
16840676919
16840683022
16840688394
16840694619
16840699868
16840706155
16840711465
16840717751
16840721536
16840727761
16840733376
16840738320
16840743935
16840751565
16840755959
16840763345
16840768227
16840773965
16840780801
16840787026
16840790383
16840797951
16840803628
16840809975
16840815285
16840821633
16840826821
16840833352
16840840066
16840844887
16840852334
16840858986
16840864052
16840869118
16840876320
16840882668
16840888833
16840892067
16840901406
16840904885
16840912392
16840918557
16840926247
16840931313
16840939186
16840943886
16840950600
16840957558
16840964272
16840970375
16840976357
16840982277
16840989113
16840994667
16841001503
16841007240
16841013222
16841019875
16841025551
16841031715
16841036842
16841044228
16841049049
16841056740
16841061684
16841068947
16841074013
16841080604
16841088234
16841092506
16841099831
16841104591
16841112770
16841118629
16841124367
16841130348
16841139381
16841146827
16841155555
16841161903
16841170936
16841178688
16841184669
16841191200
16841196876
16841201942
16841206825
16841211464
16841217140
16841223487
16841229530
16841234840
16841239112
16841244361
16841249061
16841253150
16841257911
16841261817
16841266761
16841272682
16841277015
16841280616
16841287452
16841292823
16841297828
16841302589
16841309364
16841315406
16841320777
16841325904
16841330543
16841336463
16841342017
16841347572
16841353187
16841359657
16841364783
16841370277
16841375159
16841381812
16841386573
16841391639
16841397315
16841402381
16841406531
16841413611
16841416236
16841423438
16841428016
16841435035
16841440833
16841446143
16841451453
16841457801
16841463172
16841468665
16841474341
16841479590
16841484778
16841490943
16841497535
