16981310897
16981317306
16981323410
16981329208
16981335800
16981341476
16981348251
16981352828
16981359603
16981364791
16981370101
16981376022
16981381393
16981386886
16981391097
16981397384
16981403365
16981412582
16981419845
16981424300
16981430038
16981437850
16981444015
16981449081
16981455550
16981462691
16981471480
16981479110
16981486190
16981494857
16981502486
16981510238
16981517379
16981522994
16981532271
16981538375
16981546859
16981554427
16981560531
16981567855
16981574935
16981581649
16981589461
16981596114
16981604048
16981611129
16981619490
16981627425
16981633834
16981640486
16981645552
16981652571
16981658492
16981665267
16981671126
16981677290
16981683272
16981687544
16981694014
16981698348
16981706282
16981710799
16981719954
16981725813
16981731734
16981737044
16981743208
16981749983
16981756758
16981763594
16981770186
16981776289
16981782820
16981789290
16981797285
16981802412
16981810652
16981815779
16981822432
16981826826
16981833540
16981839460
16981846296
16981853193
16981858931
16981866011
16981873457
16981878401
16981884870
16981890791
16981895613
16981902998
16981909590
16981916426
16981923567
16981930403
16981936872
16981945844
16981951887
16981960188
16981966169
16981971662
16981977949
16981983259
16981989668
16981995344
16982002729
16982012495
16982019758
16982027265
16982034772
16982041425
16982050825
16982059919
16982068098
16982076948
16982083784
16982091291
16982098127
16982104474
16982112653
16982118268
16982124738
16982130719
16982137372
16982145307
16982154828
16982161908
16982169477
16982177533
16982182294
16982190839
16982197187
16982202252
16982209455
16982216474
16982223737
16982228742
16982236249
16982241620
16982249372
16982258283
16982265424
16982271527
16982276044
16982283368
16982288373
16982295758
16982301923
16982309430
16982317120
16982323834
16982333112
16982339581
16982346112
16982353070
16982357526
16982364545
16982370831
16982378827
16982385419
16982392377
16982400189
16982407086
16982412823
16982419354
16982426983
16982434247
16982441815
16982447979
16982455548
16982462506
16982468792
16982475140
16982482586
16982490582
16982499371
16982507855
16982513653
16982521527
16982528546
16982535137
16982545086
16982552776
16982560589
16982567486
16982574749
16982583599
16982591595
16982599163
16982605633
16982616985
16982621807
16982630230
16982638653
16982645794
16982653911
16982662578
16982670818
16982679302
16982685283
16982695232
16982701885
16982710918
16982718425
16982726604
16982731304
16982739177
16982746135
16982754436
16982761699
16982769695
16982778057
16982783489
16982790203
16982797893
16982804912
16982810405
16982816753
16982820476
16982826946
16982832561
16982838481
16982844341
16982849346
16982855876
16982860820
16982864848
16982869365
16982873882
16982880840
16982884868
16982890117
16982895000
16982900554
16982903484
16982910014
16982916240
16982922282
16982925578
16982933269
16982937663
16982944987
16982949077
16982954570
16982958537
16982963847
16982968364
16982973491
16982980021
16982984416
16982990703
16982994304
16983000041
16983004924
16983008891
16983015117
16983020427
16983026469
16983032390
16983038127
16983042582
16983047038
16983053325
16983058818
16983064921
16983070109
16983076884
16983082438
16983087260
16983092753
16983098490
16983103678
16983109782
16983114665
16983119853
16983125041
16983131022
16983135661
16983141581
16983148112
16983153056
16983158427
16983166605
16983172343
16983182780
16983189188
16983194498
16983200480
16983206278
16983213786
16983221720
16983228129
16983233988
16983239909
16983246867
16983252909
16983258341
16983266215
16983272013
16983279642
16983286295
16983291483
16983298380
16983303324
16983310343
16983316141
16983321817
16983325663
16983331827
16983337809
16983343119
16983347330
16983355387
16983361124
16983366373
16983370401
16983377115
16983382852
16983388040
16983392191
16983397928
16983404215
16983409525
16983413980
16983421182
16983426431
16983431680
16983437540
16983443216
16983448343
16983453592
16983459451
16983464639
16983469156
16983474222
16983479837
16983485269
16983491190
16983495401
16983502054
16983507791
16983512430
16983518533
16983524881
16983531045
16983537149
16983543130
16983547769
16983552774
16983559122
16983565286
16983569681
16983576456
16983582193
16983589151
16983593912
16983599283
16983605935
16983611001
16983617471
16983624124
16983629373
16983635049
16983639932
16983646341
16983651345
16983655984
16983663186
16983668130
16983674478
16983679910
16983685586
16983690774
16983697549
16983703103
16983708840
16983714212
16983720315
16983725991
16983731790
16983737039
16983742532
16983746926
16983753213
16983760354
16983766335
16983770730
16983777078
16983781960
16983789285
16983797890
16983803872
16983807046
16983815469
16983821816
16983827431
16983832558
16983838418
16983842934
16983849099
16983853554
16983862038
16983866250
16983873330
16983880227
16983885964
16983889260
16983896462
16983900612
16983907937
16983912758
16983918679
16983923317
16983929726
16983934731
16983940163
16983945900
16983955422
16983961892
16983969033
16983976174
16983983437
16983991555
16983999001
16984005409
16984015114
16984020424
16984029701
16984036171
16984043617
16984052529
16984059181
16984066444
16984076210
16984083778
16984092384
16984100563
16984108315
16984113441
16984123329
16984134682
16984142189
16984149757
16984155678
16984164711
16984171181
16984182472
16984188392
16984195289
16984204750
16984213661
16984220070
16984228248
16984237831
16984245216
16984255348
16984264686
16984271461
16984279823
16984289405
16984295204
16984304664
16984311134
16984320899
16984328346
16984338050
16984345741
16984353065
16984362953
16984370521
16984377418
16984387611
16984395667
16984403053
16984410133
16984418189
16984427344
16984435584
16984444251
16984452552
16984460547
16984469337
16984475928
16984484290
16984493323
16984501563
16984508216
16984516700
16984527320
16984535254
16984544593
16984552649
16984561377
16984567786
16984577796
16984586524
16984590918
16984603491
16984610816
16984619055
16984626380
16984635108
16984644690
16984653113
16984660254
16984670325
16984677466
16984685034
16984692542
16984700293
16984708777
16984716467
16984723242
16984731055
16984737097
16984748266
16984755896
16984763525
16984771643
16984779333
16984785986
16984795813
16984801916
16984811438
16984817846
16984827307
16984834814
16984841772
16984849951
16984857031
16984866430
16984873083
16984879126
16984888525
16984894140
16984903417
16984911718
16984919226
16984925695
16984935339
16984941198
16984950536
16984958593
16984965612
16984975683
16984984411
16984992834
16985001073
16985008703
16985015234
16985022802
16985032445
16985040319
16985050024
16985057104
16985066686
16985073034
16985082372
16985090124
16985097692
16985107885
16985115819
16985123937
16985131627
16985138829
16985149083
16985155065
16985165258
16985172460
16985181127
16985188329
16985198766
16985204564
16985214940
16985219396
16985229650
16985239354
16985248815
16985258153
16985266393
16985274632
16985280675
16985289769
16985298009
16985305394
16985314061
16985322728
16985330846
16985337620
16985345372
16985351597
16985358616
16985363804
16985371129
16985375218
16985381932
16985386448
16985392247
16985399266
16985404393
16985410985
16985416966
16985421544
16985427403
16985434239
16985441075
16985447300
16985452061
16985457920
16985464085
16985470372
16985476353
16985480870
16985487156
16985491429
16985498204
16985503025
16985508030
16985512547
16985518345
16985523106
16985527439
16985533726
16985538670
16985545445
16985551304
16985556126
16985562595
16985567295
16985573582
16985578831
16985584873
16985589085
16985595066
16985599155
16985605503
16985611240
16985617527
16985622227
16985628818
16985634922
16985641758
16985646335
16985652866
16985658909
16985664463
16985668613
16985674778
16985679722
16985685703
16985691196
16985695408
16985702182
16985706699
16985711887
16985718357
16985724521
16985730442
16985734897
16985741428
16985746433
16985752842
16985757968
16985763279
16985771091
16985776767
16985782382
16985787509
16985793552
16985798679
16985803501
16985811191
16985815891
16985823093
16985828952
16985834201
16985839267
16985845126
16985851779
16985857517
16985862094
16985869052
16985875583
16985881259
16985886447
16985892368
16985897556
16985903476
16985911105
16985918002
16985922641
16985929233
16985936008
16985942599
16985947604
16985954379
16985960483
16985968661
16985973361
16985979526
16985985995
16985991672
16985997897
16986003817
16986009982
16986016635
16986021701
16986028048
16986033847
16986039828
16986044223
16986050326
16986056185
16986062411
16986068026
16986073397
16986077609
16986083346
16986089511
16986095065
16986099459
16986107577
16986112521
16986117831
16986123934
16986129489
16986135653
16986141024
16986146029
16986151888
16986157137
16986162814
16986168673
16986174227
16986178744
16986183810
16986190829
16986196932
16986202975
16986208712
16986214754
16986219820
16986226473
16986230868
16986237520
16986242098
16986248507
16986253329
16986260103
16986265719
16986270907
16986277071
16986282320
16986288363
16986293551
16986300203
16986305391
16986310152
16986317415
16986322420
16986328096
16986333712
16986340731
16986345797
16986351412
16986356722
16986362520
16986367159
16986374361
16986380648
16986387972
16986392366
16986399324
16986403841
16986409822
16986414644
16986421053
16986427950
16986434358
16986440828
16986445101
16986452242
16986457430
16986464693
16986470613
16986476411
16986483064
16986488802
16986494234
16986500215
16986506807
16986518526
16986527254
16986536714
16986544588
16986554292
16986562593
16986571626
16986579744
16986588289
16986595186
16986605500
16986612153
16986622285
16986628999
16986639253
16986646577
16986655122
16986665132
16986671846
16986681184
16986690583
16986697053
16986705354
16986715180
16986720613
16986730317
16986738435
16986745820
16986753999
16986763520
16986771455
16986779328
16986785920
16986796235
16986803193
16986811555
16986819367
16986827790
16986834931
16986845063
16986852448
16986860322
16986867890
16986875580
16986883149
16986892792
16986899384
16986907441
16986916230
16986924775
16986932343
16986940705
16986950287
16986956757
16986966645
16986972931
16986979584
16986989105
16986997711
16987006745
16987015778
16987024811
16987033966
16987039337
16987048798
16987057282
16987065888
16987074188
16987080902
16987087616
16987097809
16987106171
16987113617
16987121429
16987130829
16987139007
16987146576
16987155975
16987163849
16987172882
16987180389
16987189544
16987197113
16987205414
16987213043
16987222137
16987229828
16987237091
16987247345
16987253082
16987263214
16987270965
16987279510
16987287506
16987295867
16987300262
16987310943
16987317413
16987327361
16987333892
16987344268
16987352752
16987360442
16987369476
16987378082
16987387725
16987397369
16987404082
16987411895
16987422027
16987429534
16987439605
16987448211
16987454741
16987465545
16987472014
16987481414
16987488189
16987498382
16987504729
16987515654
16987522185
16987529937
16987536040
16987545256
16987553923
16987561614
16987567595
16987576567
16987582488
16987591521
16987597441
16987606169
16987615386
16987623381
16987629424
16987638274
16987646941
16987654814
16987660674
16987669218
16987675200
16987688811
16987696440
16987704375
16987711577
16987721037
16987725188
16987735075
16987744169
16987752165
16987759794
16987767607
16987775419
16987785429
16987791838
16987802885
16987811247
16987819792
16987828947
16987835539
16987844694
16987852323
16987859465
16987867033
16987874418
16987882170
16987890043
16987898405
16987907560
16987913603
16987920133
16987930814
16987937895
16987942960
16987950163
16987955167
16987960294
16987967374
16987972807
16987978666
16987984037
16987990446
16987997343
16988002103
16988009428
16988014066
16988019315
16988024930
16988031278
16988036893
16988042325
16988048734
16988054410
16988058988
16988065275
16988069730
16988076688
16988081205
16988088895
16988093351
16988099942
16988104703
16988113126
16988117948
16988125028
16988129422
16988135892
16988142789
16988149625
16988155118
16988160611
16988165189
16988171170
16988178433
16988184171
16988189176
16988196195
16988201444
16988206326
16988211575
16988216031
16988222928
16988227689
16988232999
16988237821
16988243863
16988249234
16988254788
16988261441
16988267423
16988272733
16988277493
16988282925
16988286954
16988292813
16988298245
16988303006
16988308926
16988315579
16988320523
16988327725
16988333157
16988337979
16988342984
16988348721
16988356778
16988361905
16988365750
16988373379
16988380581
16988386502
16988390652
16988397793
16988403103
16988407620
16988414639
16988418972
16988425442
16988431118
16988436245
16988442898
16988447659
16988454861
16988459378
16988463894
16988470547
16988476528
16988482266
16988488186
16988493374
16988497830
16988505215
16988511501
16988517178
16988522427
16988529751
16988534939
16988540676
16988543484
16988552700
16988557888
16988563442
16988568447
16988575283
16988579861
16988587490
16988592678
16988597866
16988604336
16988608852
16988615810
16988620937
16988626064
16988632168
16988637844
16988642544
16988650600
16988655544
16988661098
16988667507
16988673488
16988679165
16988684963
16988689480
16988696682
16988704799
16988709987
16988715847
16988723720
16988731350
16988738002
16988746975
16988754177
16988759670
16988767177
16988773342
16988780239
16988785488
16988791896
16988797023
16988802272
16988806911
16988812099
16988815883
16988821132
16988826503
16988830226
16988836330
16988840724
16988846828
16988850978
16988855800
16988861720
16988867641
16988874416
16988878322
16988885036
16988890102
16988896022
16988900416
16988906398
16988910915
16988917689
16988922145
16988928615
16988933436
16988938136
16988944423
16988949428
16988955409
16988960902
16988965419
16988971888
16988976405
16988981593
16988986781
16988992579
16988998317
16989004542
16989010768
16989016383
16989021144
16989027369
16989032008
16989038783
16989043177
16989050013
16989056361
16989062220
16989067286
16989073634
16989079188
16989083949
16989091029
16989094874
16989107325
16989114222
16989122096
16989130335
16989138453
16989146510
16989155055
16989161463
16989171351
16989177882
16989187098
16989193568
16989202235
16989212244
16989219874
16989227564
16989235621
16989245814
16989253260
16989260767
16989267908
16989278467
16989285364
16989293482
16989300501
16989309107
16989318811
16989325037
16989333765
16989342615
16989351709
16989358667
16989368433
16989375330
16989387903
16989395716
16989401636
16989412622
16989419946
16989429285
16989436243
16989446253
16989456689
16989464929
16989471887
16989481042
16989487207
16989497522
16989504968
16989514612
16989522485
16989530237
16989534204
16989544214
16989550134
16989558862
16989567956
16989576318
16989582605
16989591333
16989597131
16989605920
16989611840
16989619226
16989628503
16989637902
16989644250
16989651208
16989660058
16989665673
16989674279
16989681603
16989690576
16989697961
16989705163
16989712670
16989721398
16989726830
16989736657
16989744286
16989751122
16989760461
16989767785
16989775170
16989784142
16989789513
16989798852
16989803918
16989813317
16989821313
16989829491
16989837243
16989844994
16989852685
16989860314
16989867943
16989875939
16989884545
16989892418
16989900170
16989909020
16989915734
16989924767
16989931298
16989938561
16989948693
16989956871
16989964318
16989973473
16989981163
16989987572
16989998314
16990006127
16990013634
16990023766
16990031273
16990039452
16990047020
16990055077
16990063438
16990071068
16990079796
16990088890
16990097374
16990105675
16990114036
16990123192
16990129722
16990138939
16990144859
16990154808
16990164268
16990174217
16990183128
16990192039
16990201011
16990209007
16990217918
16990225486
16990235374
16990243370
16990250389
16990257896
16990266014
16990275230
16990283042
16990293296
16990302268
16990310203
16990319541
16990325462
16990334068
16990341270
16990348045
16990355674
16990364341
16990371421
16990378928
16990387473
16990394553
16990400901
16990411521
16990417930
16990427695
16990436484
16990443870
16990450400
16990459678
16990466819
16990473655
16990482139
16990489035
16990497092
16990503806
16990512290
16990518821
16990523337
16990530539
16990534446
16990542563
16990547507
16990552756
16990558188
16990563803
16990568686
16990573874
16990579917
16990586264
16990592307
16990598593
16990603354
16990609091
16990614951
16990619406
16990626547
16990631064
16990637900
16990642966
16990648093
16990655173
16990660849
16990666098
16990671286
16990674216
16990684592
16990690634
16990695151
16990700033
16990707724
16990713583
16990719259
16990723776
16990731039
16990735434
16990742209
16990747152
16990752524
16990759421
16990764120
16990771200
16990777365
16990784689
16990788839
16990796103
16990801352
16990806784
16990812582
16990818136
16990823812
16990830770
16990835287
16990841452
16990847677
16990852804
16990858053
16990865255
16990870870
16990881735
16990887411
16990893270
16990901388
16990909933
16990915060
16990922994
16990929464
16990934408
16990941305
16990948690
16990954061
16990959005
16990964681
16990971090
16990976705
16990981649
16990987142
16990991292
16990997152
16991002157
16991006978
16991012105
16991017232
16991022909
16991028097
16991033529
16991038656
16991043905
16991048726
16991051595
16991058431
16991064657
16991070089
16991075216
16991081136
16991086385
16991092855
16991097310
16991102864
16991110067
16991115926
16991120565
16991125081
16991131124
16991136251
16991141011
16991147298
16991152913
16991157735
16991164815
16991169087
16991174825
16991177327
16991186360
16991190755
16991198384
16991203938
16991209065
16991213887
16991219258
16991225240
16991229085
16991235432
16991239522
16991246175
16991250691
16991255391
16991262837
16991268452
16991274068
16991278035
16991284810
16991290120
16991297078
16991301655
16991306721
16991313313
16991317402
16991323506
16991329548
16991335896
16991341572
16991345784
16991351948
16991358418
16991363240
16991369282
16991374043
16991381733
16991386921
16991391621
16991397236
16991402546
16991407673
16991415058
16991419331
16991430622
16991435810
16991442890
16991449482
16991455891
16991461018
16991468891
16991475971
16991482441
16991487629
16991493611
16991501545
16991506367
16991513203
16991517353
16991524983
16991531330
16991536640
16991541340
16991547871
16991552631
16991557880
16991563068
16991568745
16991574360
16991580341
16991584186
16991590534
16991594379
16991600849
16991606769
16991613483
16991619343
16991625080
16991628681
16991634357
16991638263
16991644611
16991648273
16991655781
16991660419
16991667316
16991671528
16991677631
16991681598
16991693378
16991697284
16991709430
16991715717
16991723224
16991731525
16991739337
16991746112
16991753498
16991759418
16991767841
16991774372
16991782855
16991790668
16991799274
16991806232
16991814960
16991823444
16991829974
16991836932
16991845233
16991854083
16991862201
16991868121
16991875507
16991884723
16991889667
16991901080
16991908221
16991915607
16991923785
16991930011
16991936175
16991944232
16991952350
16991959735
16991964862
16991973590
16991978900
16991986895
16991994342
16992002398
16992010699
16992018084
16992026812
16992033587
16992039935
16992050860
16992057208
16992065631
16992072283
16992081805
16992088091
16992097064
16992104815
16992112139
16992124285
16992134661
16992147356
16992156878
16992162432
16992171221
16992180071
16992188799
16992197466
16992206011
16992214556
16992224749
16992232317
16992241289
16992247332
16992256304
16992263445
16992271990
16992280169
16992286943
16992293718
16992302141
16992307024
16992316118
16992326616
16992335771
16992342913
16992350298
16992358599
16992364946
16992371721
16992378618
16992387468
16992393999
16992402727
16992406755
16992419145
16992425432
16992433244
16992439592
16992448625
16992456682
16992462297
16992470232
16992478593
16992486467
16992492082
16992500078
16992505327
16992512224
16992519731
16992529558
16992535600
16992542253
16992549455
16992558000
16992564775
16992574235
16992580034
16992588701
16992595109
16992603227
16992609452
16992617631
16992625322
16992634111
16992642961
16992651200
16992659623
16992665910
16992672685
16992684648
16992689103
16992702714
16992709977
16992719010
16992723710
16992737016
16992743790
16992753068
16992762650
16992771561
16992780472
16992788590
16992794999
16992802811
16992808610
16992819535
16992825516
16992832963
16992840653
16992848343
16992856766
16992865311
16992871354
16992878556
16992887345
16992893814
16992905716
16992915726
16992922318
16992930252
16992938614
16992947403
16992955033
16992967056
16992975052
16992982254
16992990250
16992997330
16993005997
16993014114
16993021500
16993034134
16993041763
16993047745
16993052444
16993059525
16993063980
16993069168
16993076187
16993081375
16993086319
16993091995
16993097427
16993104019
16993108963
16993114273
16993118789
16993124527
16993130264
16993135574
16993140884
16993146560
16993152359
16993157669
16993161819
16993169021
16993173538
16993178787
16993184646
16993190139
16993193069
16993199844
16993204422
16993212051
16993216934
16993222732
16993230484
16993234756
16993240859
16993245315
16993251235
16993255996
16993262710
16993267532
16993274307
16993278518
16993284866
16993290359
16993295303
16993301467
16993306594
16993312576
16993317764
16993323013
16993327834
16993333572
16993338760
16993345779
16993352370
16993357619
16993363174
16993368606
16993374770
16993381118
16993385329
16993391738
16993397903
16993402968
16993409194
16993413711
16993419143
16993425979
16993431228
16993436171
16993443801
16993448806
16993454604
16993460341
16993466506
16993471755
16993476210
16993483840
16993486892
16993494460
16993499099
16993506362
16993511794
16993517043
16993526137
16993531203
16993538344
16993545241
16993552687
16993558852
16993563918
16993570326
16993578444
16993583083
16993589003
16993595412
16993602736
16993609694
16993614394
16993620436
16993626723
16993631667
16993637099
16993641371
16993648573
16993652846
16993660109
16993663954
16993670668
16993675185
16993680373
16993685683
16993690810
16993695814
16993701002
16993705824
16993711317
16993715712
16993723036
16993727736
16993734999
16993739576
16993746901
16993751967
16993758314
16993764235
16993767836
16993777723
16993786085
16993790541
16993797377
16993802076
16993808607
16993813734
16993820509
16993825819
16993832167
16993837599
16993844068
16993849256
16993854200
16993861585
16993867201
16993872877
16993878431
16993884901
16993891065
16993895826
16993900648
16993907545
16993913465
16993917371
16993924513
16993929823
16993936903
16993941175
16993948316
16993953565
16993958753
16993964613
16993970472
16993975233
16993981336
16993988111
16993993055
16993996046
16994004224
16994009595
16994015333
16994020154
16994028028
16994033155
16994039502
16994044019
16994050977
16994055494
16994062696
16994067212
16994073499
16994079602
16994085096
16994091382
16994097791
16994104077
16994109510
16994116223
16994121167
16994129895
16994135877
16994145581
16994152783
16994157239
16994162488
16994170789
16994175977
16994184155
16994190747
16994198071
16994203076
16994210278
16994216443
16994221509
16994228284
16994234692
16994242078
16994250195
16994257886
16994266186
16994273999
16994277966
16994289929
16994297742
16994305432
16994312268
16994319836
16994327221
16994334912
16994340954
16994351574
16994359570
16994367382
16994376599
16994385083
16994392895
16994401196
16994408337
16994417248
16994423779
16994433422
16994439892
16994449902
16994456494
16994466137
16994472790
16994490124
16994497204
16994505444
16994513561
16994521740
16994529614
16994539440
16994548412
16994556408
16994564648
16994573681
16994579235
16994588878
16994596935
16994604442
16994614513
16994622204
16994630749
16994639904
16994646435
16994654796
16994661571
16994670055
16994678112
16994686473
16994693859
16994701549
16994708385
16994714427
16994723155
16994729076
16994738170
16994745128
16994751781
16994760692
16994767345
16994773570
16994781505
16994792980
16994798351
16994809581
16994816722
16994824107
16994831920
16994840404
16994846324
16994857677
16994865916
16994874278
16994881785
16994888866
16994899119
16994904002
16994916636
16994923778
16994930247
16994939952
16994945994
16994954295
16994962108
16994968211
16994978587
16994989756
16994997142
16995003550
16995009654
16995018016
16995024913
16995033702
16995041148
16995046519
16995055857
16995061350
16995071238
16995074961
16995086741
16995093272
16995101756
16995108836
16995115000
16995121592
16995130442
16995138377
16995147044
16995153452
16995161692
16995168833
16995176157
16995182993
16995190378
16995196238
16995207224
16995214548
16995221323
16995229258
16995234995
16995242380
16995250803
16995258982
16995268442
16995275095
16995281687
16995289255
16995297617
16995303171
16995314279
16995322458
16995328745
16995338022
16995343332
16995351816
16995360361
16995367319
16995376962
16995382822
16995391123
16995400949
16995408334
16995415659
16995424326
16995433115
16995441660
16995449228
16995454416
16995463998
16995471445
16995480783
16995489389
16995496469
16995505197
16995511789
16995519418
16995527902
16995534311
16995544809
16995552377
16995559457
16995568124
16995573068
16995578378
16995583017
16995592294
16995599313
16995607186
16995613717
16995617135
16995626473
16995631723
16995640512
16995646554
16995651925
16995658517
16995663278
16995672860
16995677560
16995686288
16995693063
16995697274
16995702035
16995706735
16995711861
16995716439
16995722665
16995728036
16995732674
16995737740
16995743539
16995747689
16995754464
16995760812
16995767098
16995772469
16995776742
16995781502
16995785348
16995791268
16995794869
16995800606
16995806649
16995811837
16995815621
16995821053
16995826302
16995830941
16995834908
16995839852
16995846749
16995852242
16995856881
16995861824
16995867928
16995872506
16995878365
16995883309
16995890572
16995894905
16995901558
16995905953
16995911995
16995915352
16995921883
16995926338
16995932198
16995937447
16995942940
16995948006
16995953072
16995958016
16995963020
16995967415
16995978096
16995982002
16995988899
16995994515
16995999580
16996003609
16996009712
16996013802
16996019844
16996024727
16996030586
16996035347
16996041145
16996045723
16996051399
16996057075
16996061165
16996069282
16996075691
16996080757
16996085579
16996092110
16996096260
16996101265
16996106819
16996113228
16996118843
16996124458
16996129036
16996134224
16996139595
16996147041
16996152717
16996159797
16996166145
16996171943
16996176948
16996182930
16996187141
16996193061
16996198860
16996205635
16996211128
16996216255
16996221565
16996226570
16996231636
16996236946
16996241950
16996250678
16996255927
16996262519
16996268012
16996274421
16996279548
16996283881
16996287666
16996295661
16996300971
16996305244
16996310554
16996315437
16996320869
16996325202
16996331062
16996337592
16996341743
16996347846
16996352973
16996357368
16996361823
16996367316
16996372809
16996377326
16996383307
16996387153
16996392280
16996397529
16996401923
16996407844
16996412238
16996418830
16996424933
16996430671
16996436225
16996441108
16996447333
16996451972
16996457587
16996465094
16996471564
16996476386
16996481452
16996488044
16996492621
16996498969
16996506842
16996513190
16996519538
16996524604
16996529608
16996534735
16996541937
16996545783
16996553900
16996559821
16996565741
16996571906
16996577094
16996581183
16996587897
16996591803
16996599493
16996605475
16996611212
16996617499
16996622809
16996628485
16996633429
16996637396
16996645148
16996651312
16996656195
16996661139
16996666510
16996674567
16996681586
16996689520
16996700140
16996711554
16996721563
16996731451
16996736761
16996747015
16996755987
16996763983
16996774664
16996782110
16996791021
16996797369
16996807318
16996814154
16996825872
16996834356
16996840582
16996849188
16996857488
16996864752
16996871282
16996878301
16996886724
16996893987
16996902288
16996911016
16996917608
16996924322
16996929632
16996937627
16996946294
16996953435
16996960821
16996967473
16996974370
16996981206
16996988531
16996998113
16997005681
16997012761
16997019780
16997027471
16997034185
16997040532
16997049627
16997058110
16997065435
16997073674
16997079961
16997086675
16997092595
16997103520
16997112920
16997120305
16997126897
16997134282
16997143010
16997148625
16997158269
16997166081
16997174504
16997180669
16997194096
16997205022
16997218755
16997227299
16997237187
16997242741
16997251775
16997260014
16997268132
16997275700
16997286259
16997292485
16997301396
16997306828
16997315312
16997323185
16997330449
16997338017
16997347966
16997358708
16997365300
16997375309
16997382023
16997390446
16997398625
16997407048
16997416447
16997422306
16997430851
16997438481
16997447758
16997454838
16997463993
16997473576
16997481510
16997489262
16997495304
16997504887
16997511845
16997522648
16997531071
16997538578
16997546635
16997554264
16997561405
16997570255
16997579349
16997586918
16997595096
16997602604
16997609073
16997616581
16997625004
16997633609
16997641910
16997649173
16997656864
16997663761
16997671573
16997678531
16997685001
16997694400
16997701602
16997709659
16997715885
16997724613
16997731449
16997739383
16997747440
16997755069
16997764652
16997771732
16997777347
16997786075
16997791568
16997800235
16997810428
16997818118
16997825259
16997832034
16997838138
16997847415
16997853213
16997862857
16997870425
16997879764
16997886355
16997893008
16997900027
16997907168
16997916995
16997924746
16997932620
16997938296
16997946292
16997952334
16997960452
16997968447
16997973819
16997984561
16997989871
16997994876
16998000979
16998005374
16998012515
16998016665
16998024661
16998031130
16998035769
16998039858
16998046145
16998052554
16998058901
16998063662
16998070620
16998075869
16998081667
16998087283
16998095034
16998099368
16998106326
16998114809
16998121157
16998126650
16998133181
16998142031
16998148867
16998155459
16998162661
16998169375
16998174563
16998182070
16998187380
16998193850
16998197939
16998204287
16998212160
16998217043
16998223147
16998227297
16998232241
16998238222
16998242800
16998250185
16998255007
16998261599
16998266664
16998271486
16998276735
16998282900
16998288759
16998293886
16998299257
16998305178
16998310976
16998316957
16998322206
16998327822
16998334291
16998342043
16998346437
16998352541
16998357057
16998362856
16998369997
16998374574
16998381654
16998387087
16998394167
16998399843
16998404420
16998410890
16998416261
16998421266
16998426881
16998432069
16998440126
16998444459
16998451540
16998456666
16998462770
16998465883
16998474245
16998480409
16998486329
16998491151
16998497011
16998502199
16998507753
16998513673
16998518312
16998525514
16998530092
16998538392
16998542360
16998549318
16998554689
16998559571
16998564515
16998570741
16998576661
16998583924
16998590577
16998596620
16998601564
16998607728
16998612733
16998619081
16998623658
16998631104
16998637086
16998644166
16998651063
16998657472
16998663087
16998670350
16998675538
16998681519
16998688660
16998693787
16998699769
16998705018
16998711915
16998719056
16998726990
16998735841
16998743653
16998748353
16998753236
16998760865
16998767884
16998773438
16998781006
16998787354
16998795167
16998799744
16998805848
16998813294
16998819642
16998824036
16998832459
16998839112
16998845154
16998852051
16998857483
16998862610
16998869507
16998874207
16998881531
16998885926
16998892578
16998896973
16998902161
16998907166
16998912659
16998918457
16998925720
16998930359
16998935608
16998940613
16998947632
16998952027
16998957276
16998962158
16998968994
16998974243
16998979004
16998983460
16998989197
16998995361
16999001465
16999006592
16999012817
16999019470
16999024475
16999028992
16999035644
16999040649
16999045593
16999051025
16999057068
16999063904
16999067993
16999074341
16999080017
16999083374
16999090454
16999096374
16999101745
16999109192
16999113769
16999120910
16999125610
16999132446
16999137512
16999142517
16999150024
16999156311
16999162902
16999168640
16999176696
16999183288
16999192443
16999198974
16999206237
16999215576
16999222228
16999230895
16999237670
16999246459
16999251464
16999259887
16999268066
16999277221
16999283386
16999291991
16999300964
16999307006
16999315673
16999321777
16999329772
16999340209
16999351806
16999361999
16999368224
16999376708
16999384643
16999393920
16999402282
16999410399
16999416503
16999425658
16999436950
16999443724
16999451354
16999462462
16999469908
16999478148
16999484618
16999491698
16999500243
16999505675
16999516783
16999526488
16999536925
16999547728
16999559569
16999567259
16999581725
16999591917
16999601744
16999612975
16999626585
16999637633
16999648375
16999658018
16999667967
16999678038
16999689268
16999698790
16999711241
16999721861
16999731871
16999741026
16999751646
16999761473
16999771666
16999781675
16999791197
16999801512
16999811277
16999820921
16999829038
16999841184
16999851438
16999861875
16999870725
16999880674
16999889829
16999899290
16999905637
16999916868
16999928403
16999936094
16999947019
16999957090
16999966062
16999976316
16999985654
16999994687
17000006345
17000017453
17000024839
17000036496
17000043882
17000055783
17000067319
17000077817
17000086484
17000099485
17000110715
17000120481
17000131040
17000140317
17000150876
17000159909
17000173520
17000185239
17000195554
17000204709
17000215207
17000224484
17000238156
17000248410
17000260861
17000272519
17000280881
17000292599
17000304623
17000314816
17000324398
17000338009
17000348141
17000359677
17000372250
17000380734
17000395870
17000405514
17000417599
17000427609
17000437191
17000447445
17000456722
17000465389
17000476437
17000488033
17000499020
17000507442
17000516842
17000526791
17000535519
17000545589
17000555904
17000565670
17000576778
17000585872
17000596370
17000605404
17000615535
17000624630
17000634273
17000644710
17000654293
17000664608
17000674861
17000683162
17000693111
17000704036
17000712215
17000722713
17000732967
17000743160
17000754329
17000762264
17000773372
17000781551
17000792903
17000801448
17000811763
17000820369
17000829646
17000839046
17000845576
17000855525
17000863154
17000873225
17000878596
17000888240
17000896419
17000903376
17000911433
17000920527
17000926692
17000935420
17000945552
17000951838
17000962947
17000970332
17000977900
17000986750
17000993647
17001001643
17001011469
17001020197
17001024348
17001030024
17001034724
17001040217
17001044184
17001049616
17001053889
17001060053
17001065302
17001071894
17001078730
17001083186
17001089777
17001097712
17001102106
17001108576
17001113215
17001119379
17001124140
17001128474
17001137080
17001142634
17001146784
17001153254
17001157282
17001163325
17001167597
17001174860
17001180658
17001186396
17001191279
17001194880
17001200190
17001205500
17001214472
17001217035
17001225031
17001230768
17001235529
17001240046
17001245905
17001250544
17001256342
17001260065
17001265131
17001269586
17001274530
17001279291
17001283991
17001287714
17001292597
17001296381
17001301813
17001306146
17001311701
17001317194
17001322992
17001330133
17001335504
17001340936
17001345758
17001350702
17001357172
17001362665
17001366876
17001372553
17001377557
17001383600
17001388849
17001394281
17001398981
17001405328
17001410333
17001416376
17001421808
17001429315
17001433832
17001440057
17001443719
17001449701
17001453973
17001460199
17001467401
17001474237
17001479791
17001485833
17001492669
17001498651
17001504876
17001512689
17001518487
17001524896
17001531366
17001536493
17001542535
17001548089
17001554498
17001561517
17001567987
17001574945
17001580743
17001586236
17001590692
17001599298
17001605584
17001612542
17001620416
17001626763
17001632562
17001639947
17001646600
17001656426
17001664727
17001673394
17001679070
17001685113
17001691582
17001696587
17001703973
17001709222
17001713982
17001719781
17001724541
17001730828
17001736382
17001742180
17001748894
17001754387
17001760308
17001766533
17001772393
17001778008
17001784539
17001790032
17001797539
17001802788
17001807915
17001812676
17001817437
17001822564
17001827446
17001832085
17001839043
17001843193
17001849297
17001853447
17001860344
17001864495
17001870354
17001874993
17001881707
17001886833
17001893791
17001899895
17001905144
17001910027
17001916924
17001922356
17001928398
17001933647
17001939751
17001945366
17001951836
17001957268
17001963921
17001972527
17001982475
17001990959
17001997612
17002006828
17002014702
17002020622
17002028923
17002034843
17002044365
17002051079
17002059013
17002068291
17002074882
17002081718
17002090202
17002097099
17002105888
17002114433
17002122001
17002130790
17002137870
17002144218
17002154960
17002162223
17002168754
17002179069
17002185844
17002192985
17002199150
17002208732
17002215202
17002222526
17002228752
17002236381
17002242606
17002250358
17002254325
17002268852
17002275687
17002283256
17002287833
17002299735
17002306510
17002314811
17002323295
17002329154
17002337821
17002345145
17002353324
17002359122
17002367911
17002374381
17002383475
17002388602
17002397513
17002404899
17002411063
17002419547
17002425528
17002432792
17002441642
17002449759
17002456534
17002462088
17002470877
17002478812
17002485587
17002492728
17002500357
17002507620
17002514884
17002522025
17002530386
17002537589
17002546439
17002553397
17002561820
17002569937
17002577933
17002584280
17002592764
17002600088
17002607474
17002614920
17002623343
17002631460
17002638602
17002646170
17002653921
17002662588
17002670279
17002680349
17002687369
17002696097
17002703482
17002711477
17002718191
17002726736
17002733572
17002743582
17002750235
17002757315
17002765066
17002772756
17002779959
17002788809
17002796438
17002802542
17002810964
17002819631
17002826528
17002835989
17002844228
17002850698
17002859121
17002865774
17002873403
17002883657
17002889883
17002899770
17002908254
17002916311
17002922842
17002933095
17002940114
17002948476
17002952871
17002963918
17002973256
17002979482
17002986257
17002997548
17003004018
17003014211
17003023183
17003030141
17003037770
17003047536
17003055226
17003061391
17003071828
17003078847
17003088552
17003096303
17003104848
17003111745
17003121755
17003128774
17003138600
17003145436
17003156056
17003163380
17003171071
17003179066
17003187856
17003196156
17003202870
17003213734
17003220814
17003230763
17003235341
17003247304
17003252003
17003262684
17003269581
17003278859
17003285389
17003298085
17003306569
17003315236
17003322987
17003331105
17003338734
17003344044
17003353810
17003362171
17003368641
17003376454
17003385365
17003392750
17003399586
17003408497
17003414906
17003421009
17003427967
17003433155
17003437306
17003443653
17003449696
17003455128
17003459339
17003465382
17003472706
17003481800
17003484669
17003491444
17003497791
17003502979
17003507130
17003512928
17003523670
17003531116
17003536732
17003543384
17003549549
17003554371
17003562732
17003567676
17003575550
17003581104
17003586292
17003593677
17003598804
17003604908
17003611622
17003617298
17003624256
17003630115
17003635608
17003642261
17003648181
17003653186
17003657581
17003664783
17003671192
17003677295
17003682178
17003688587
17003693347
17003699695
17003704273
17003709888
17003717944
17003723621
17003730823
17003736072
17003741260
17003746631
17003751941
17003756702
17003764697
17003770251
17003776599
17003782581
17003787769
17003794299
17003799548
17003806811
17003814136
17003820605
17003826221
17003831775
17003838122
17003844775
17003851123
17003856738
17003863940
17003869555
17003876635
17003882983
17003888232
17003893725
17003898974
17003903125
17003909961
17003916613
17003922229
17003925158
17003932421
17003936877
17003943530
17003948291
17003955859
17003961596
17003967150
17003971728
17003979418
17003983935
17003990283
17003994738
17004004138
17004008471
17004013964
17004020495
17004026476
17004031786
17004036974
17004041674
17004048083
17004053637
17004060839
17004065539
17004070971
17004075793
17004081103
17004086352
17004090624
17004098315
17004104357
17004109911
17004116015
17004120653
17004124865
17004131396
17004136889
17004145067
17004150316
17004155626
17004160387
17004165575
17004171007
17004176500
17004182177
17004188158
17004193407
17004199389
17004205126
17004210253
17004214403
17004219835
17004224108
17004232653
17004238146
17004243639
17004249010
17004254259
17004259630
17004265184
17004269213
17004274584
17004281175
17004287401
17004294054
17004298265
17004303942
17004310533
17004315111
17004323412
17004326708
17004334154
17004338365
17004344591
17004349474
17004355638
17004360094
17004368944
17004374254
17004381456
17004388597
17004393602
17004398119
17004405565
17004410936
17004417100
17004421495
17004428636
17004434190
17004440111
17004445726
17004451646
17004457261
17004463304
17004469041
17004474534
17004477037
17004486253
17004491868
17004496873
17004501634
17004509202
17004513902
17004520066
17004525315
17004530076
17004534593
17004540391
17004544603
17004553636
17004559251
17004564500
17004569444
17004574021
17004580979
17004588609
17004594956
17004605393
17004611802
17004619737
17004627000
17004637132
17004644334
17004653916
17004662522
17004670274
17004677964
17004685471
17004692979
17004700425
17004709519
17004717759
17004723252
17004734482
17004741257
17004749131
17004753281
17004763596
17004772507
17004780747
17004785080
17004796494
17004800950
17004810898
17004817429
17004824631
17004834824
17004841233
17004849655
17004854477
17004864304
17004870651
17004880295
17004886826
17004895737
17004904160
17004910874
17004919479
17004926865
17004931809
17004941574
17004949265
17004956894
17004965012
17004973373
17004981186
17004988632
17004996994
17005005844
17005014084
17005023605
17005030502
17005038864
17005046066
17005056808
17005064132
17005072311
17005079696
17005087692
17005096237
17005102035
17005111129
17005119003
17005126449
17005134933
17005144210
17005153732
17005160140
17005166671
17005175949
17005183456
17005191329
17005198959
17005207382
17005215804
17005221420
17005230148
17005236617
17005245467
17005253951
17005263473
17005267745
17005277816
17005284652
17005293319
17005299667
17005307174
17005316268
17005324386
17005333175
17005341537
17005349654
17005358321
17005365462
17005371810
17005380904
17005387618
17005396163
17005400435
17005411116
17005420577
17005426741
17005433150
17005442366
17005449507
17005456893
17005467391
17005473128
17005483138
17005489363
17005498580
17005505904
17005514021
17005521224
17005530745
17005539778
17005547102
17005552779
17005562178
17005570418
17005578474
17005582991
17005593672
17005600325
17005609602
17005616194
17005625777
17005632429
17005640669
17005648115
17005655501
17005663435
17005672957
17005681685
17005688643
17005695784
17005702314
17005711409
17005719404
17005728132
17005732527
17005743879
17005752058
17005758100
17005764326
17005773969
17005780561
17005788130
17005795637
17005804365
17005812666
17005820844
17005828047
17005834516
17005842573
17005849531
17005860029
17005865339
17005873579
17005882978
17005889143
17005895368
17005903974
17005911054
17005919904
17005929609
17005935407
17005943525
17005953168
17005960981
17005966962
17005975385
17005984479
17005994062
17005999494
17006008588
17006015546
17006023359
17006029035
17006036481
17006042035
17006049481
17006054364
17006060407
17006064557
17006070050
17006074384
17006080182
17006085126
17006095014
17006099286
17006106061
17006110455
17006117047
17006122235
17006129620
17006134198
17006140729
17006149518
17006154095
17006161237
17006165570
17006171674
17006176068
17006181500
17006188214
17006194318
17006200116
17006205060
17006209820
17006215497
17006220685
17006227154
17006232953
17006240643
17006246808
17006252484
17006258038
17006264020
17006269330
17006274823
17006280011
17006285138
17006290081
17006298016
17006302899
17006309369
17006313946
17006320050
17006327679
17006336590
17006342083
17006348004
17006352703
17006357586
17006361676
17006368145
17006373028
17006379864
17006384930
17006390606
17006396954
17006403607
17006409832
17006416241
17006421795
17006427960
17006432964
17006438458
17006444683
17006449871
17006454754
17006463177
17006468365
17006474346
17006480389
17006486309
17006492474
17006497478
17006502849
17006510662
17006513897
17006521282
17006526714
17006533550
17006538921
17006548260
17006555156
17006562725
17006568401
17006575115
17006581218
17006588298
17006596172
17006601482
17006606548
17006614116
17006618877
17006624492
17006632183
17006640361
17006646892
17006653179
17006659587
17006666545
17006671550
17006677104
17006682537
17006688213
17006693340
17006698345
17006704448
17006709819
17006714763
17006720256
17006726360
17006731059
17006737651
17006741435
17006747722
17006752910
17006759380
17006763530
17006770061
17006776836
17006782695
17006787089
17006793925
17006800883
17006805156
17006809917
17006817546
17006823344
17006828715
17006834331
17006840739
17006845317
17006852458
17006856913
17006864482
17006869365
17006876628
17006881938
17006886943
17006892985
17006900615
17006905680
17006910563
17006915568
17006920512
17006924845
17006932048
17006936991
17006941630
17006947734
17006954203
17006958659
17006964701
17006968547
17006976115
17006980692
17006987040
17006992045
17006998576
17007003947
17007010417
17007015543
17007021281
17007027445
17007033854
17007040934
17007047831
17007051249
17007058207
17007064066
17007071085
17007076273
17007084086
17007088785
17007095133
17007099772
17007105875
17007110941
17007117838
17007124491
17007130961
17007137797
17007143839
17007151407
17007155497
17007163065
17007172281
17007179117
17007189432
17007202738
17007211893
17007216715
17007226236
17007232157
17007238077
17007243692
17007249613
17007255106
17007260538
17007266580
17007272013
17007276773
17007283182
17007289224
17007295145
17007300272
17007305765
17007309915
17007315286
17007322122
17007327188
17007331705
17007339395
17007343729
17007348978
17007355264
17007359415
17007367349
17007371988
17007378152
17007386636
17007393045
17007398355
17007403604
17007409891
17007416299
17007421670
17007425943
17007431070
17007439676
17007444681
17007451944
17007455179
17007462869
17007468728
17007474344
17007479593
17007485391
17007492471
17007498574
17007503213
17007508462
17007514444
17007517373
17007523660
17007530069
17007536721
17007540078
17007548379
17007554727
17007562051
17007566751
17007572915
17007581521
17007586465
17007592263
17007598123
17007602273
17007607156
17007612527
17007619058
17007625344
17007628640
17007637551
17007642983
17007651284
17007656960
17007662087
17007667031
17007675149
17007680032
17007687478
17007691689
17007698647
17007703225
17007709756
17007714760
17007720315
17007726296
17007734292
17007740639
17007746499
17007754860
17007760720
17007767373
17007775429
17007781350
17007787453
17007792885
17007798928
17007806252
17007812600
17007820900
17007825661
17007831703
17007836525
17007843422
17007847939
17007852822
17007859108
17007863747
17007870278
17007874733
17007880898
17007886574
17007891640
17007897743
17007902077
17007907631
17007913429
17007919106
17007925026
17007931374
17007937660
17007942665
17007953896
17007960487
17007965858
17007970985
17007978126
17007983559
17007988930
17007995643
17008002113
17008008949
17008013588
17008019142
17008025856
17008035805
17008041725
17008046852
17008050880
17008059303
17008064552
17008071998
17008078041
17008082618
17008089393
17008094032
17008102455
17008108253
17008114418
17008119422
17008125160
17008129615
17008134498
17008139259
17008147987
17008156043
17008160133
17008165260
17008171485
17008174964
17008181373
17008189918
17008195899
17008201881
17008207618
17008213050
17008217201
17008223792
17008228065
17008237769
17008243262
17008248756
17008253394
17008260230
17008264869
17008270850
17008275611
17008281959
17008288062
17008294959
17008298560
17008304908
17008309302
17008314368
17008321937
17008330176
17008337012
17008343848
17008349158
17008354773
17008361304
17008367225
17008372840
17008378699
17008386206
17008391700
17008399573
17008404700
17008413550
17008419226
17008423316
17008429419
17008436072
17008441504
17008446753
17008452918
17008458655
17008464026
17008470435
17008475867
17008481604
17008486670
17008492774
17008498145
17008503455
17008509924
17008513953
17008520239
17008524390
17008530676
17008535620
17008541846
17008546240
17008552466
17008555823
17008562353
17008567786
17008572851
17008579077
17008584082
17008589392
17008595618
17008599463
17008606299
17008611609
17008617041
17008624365
17008629980
17008635657
17008640967
17008647741
17008652563
17008659094
17008663794
17008669470
17008674780
17008682653
17008687475
17008694311
17008700048
17008705358
17008713293
17008719702
17008724646
17008730932
17008735632
17008742224
17008747045
17008753881
17008759069
17008765173
17008772314
17008778234
17008783178
17008788793
17008795690
17008801916
17008807104
17008816503
17008820776
17008827306
17008831884
17008837011
17008843908
17008848425
17008855444
17008862402
17008868017
17008873327
17008880285
17008884923
17008893468
17008897680
17008907384
17008912023
17008921361
17008926427
17008933080
17008939489
17008944494
17008949010
17008957189
17008962987
17008970495
17008976232
17008982213
17008987157
17008993566
17009000646
17009005529
17009009496
17009014684
17009018956
17009025548
17009031163
17009037755
17009044103
17009049901
17009055394
17009061009
17009063939
17009071568
17009077916
17009083653
17009086766
17009094518
17009100621
17009107274
17009114537
17009119176
17009124059
17009132970
17009139928
17009145970
17009151829
17009158299
17009162633
17009169896
17009173802
17009181859
17009186558
17009193394
17009198704
17009205479
17009208836
17009216954
17009223485
17009230626
17009233922
17009240880
17009247349
17009252354
17009257237
17009265660
17009270482
17009276768
17009281346
17009288792
17009293797
17009300816
17009305333
17009311741
17009318882
17009324131
17009330662
17009337437
17009342137
17009348728
17009354588
17009361485
17009366490
17009371861
17009379734
17009384495
17009392429
17009399082
17009405125
17009409153
17009415196
17009422092
17009428562
17009433323
17009440159
17009444736
17009456882
17009461338
17009471714
17009476719
17009484470
17009491306
17009496860
17009502842
17009508457
17009515049
17009521885
17009528049
17009535129
17009540073
17009547092
17009554538
17009560215
17009565220
17009571872
17009576267
17009582737
17009588596
17009594516
17009599521
17009604221
17009610263
17009615268
17009621677
17009627536
17009633029
17009637363
17009642978
17009647556
17009653659
17009658359
17009665622
17009671604
17009678134
17009684604
17009689609
17009693881
17009700534
17009705356
17009710666
17009716281
17009723056
17009727451
17009734164
17009739413
17009744968
17009750461
17009756259
17009761569
17009769565
17009774386
17009782077
17009788180
17009793124
17009798312
17009805392
17009811862
17009819736
17009825168
17009830356
17009836764
17009841403
17009849215
17009855746
17009862643
17009868564
17009875521
17009881808
17009887790
17009893161
17009899386
17009906161
17009915072
17009921359
17009928073
17009934237
17009941500
17009949130
17009955844
17009961154
17009966158
17009971224
17009976412
17009981783
17009987765
17009994601
17009999911
17010005648
17010011202
17010019869
17010024813
17010031954
17010037814
17010045748
17010052035
17010058138
17010064547
17010069857
17010077242
17010082857
17010088961
17010095797
17010102083
17010107149
17010113802
17010119173
17010124666
17010130221
17010135409
17010141390
17010146517
17010151522
17010156038
17010161715
17010167696
17010172823
17010178988
17010183504
17010187838
17010192537
17010198580
17010202608
17010209810
17010214571
17010220430
17010224520
17010229891
17010234285
17010239656
17010244112
17010250765
17010258333
17010261080
17010267732
17010273531
17010278536
17010283113
17010289766
17010294038
17010300630
17010304598
17010311861
17010316072
17010322542
17010326265
17010334016
17010340364
17010345186
17010350984
17010355928
17010360567
17010367158
17010372896
17010378023
17010383577
17010390962
17010395357
17010401521
17010405977
17010412324
17010417879
17010426240
17010432161
17010436616
17010442048
17010447419
17010452791
17010456819
17010464936
17010470796
17010476533
17010481050
17010488984
17010495332
17010501313
17010508210
17010515351
17010520600
17010525239
17010530732
17010537446
17010543550
17010547883
17010554963
17010560884
17010571626
17010577607
17010584382
17010589997
17010594697
17010602692
17010608125
17010617646
17010623627
17010630647
17010637605
17010642243
17010651582
17010657929
17010662690
17010667878
17010673066
17010678681
17010684235
17010689911
17010694306
17010699677
17010704072
17010709504
17010713898
17010719880
17010725495
17010733002
17010737092
17010743989
17010749482
17010755402
17010759613
17010765046
17010772370
17010776276
17010784333
17010787323
17010795380
17010800080
17010804718
17010810334
17010817536
17010823639
17010829254
17010834870
17010839752
17010846527
17010853729
17010858673
17010865448
17010871979
17010876557
17010882050
17010887787
17010893707
17010900238
17010904327
17010911713
17010917267
17010923309
17010928314
17010933014
17010938202
17010942291
17010952118
17010958588
17010964203
17010968719
17010973907
17010979339
17010985626
17010990082
17010995880
17011001556
17011008331
17011012298
17011018890
17011024322
17011029083
17011031952
17011041412
17011046478
17011052398
17011057037
17011063202
17011066803
17011073516
17011077850
17011084930
17011092315
17011096588
17011101409
17011107757
17011114715
17011122711
17011128448
17011134796
17011141937
17011147308
17011154266
17011159942
17011166412
17011175933
17011180999
17011188140
17011194122
17011200225
17011207427
17011214141
17011219146
17011225616
17011229827
17011235809
17011240935
17011245635
17011250701
17011254912
17011260955
17011267730
17011273406
17011278045
17011284331
17011288726
17011295135
17011299712
17011306426
17011311980
17011317534
17011321807
17011326995
17011332427
17011338469
17011342925
17011350921
17011355986
17011361663
17011367400
17011372588
17011378203
17011383635
17011386748
17011396453
17011402007
17011408293
17011412871
17011420073
17011425566
17011430693
17011437895
17011445464
17011449797
17011456023
17011461638
17011467009
17011471770
17011477141
17011482451
17011489775
17011497282
17011501921
17011508086
17011512297
17011517607
17011523466
17011527129
17011533232
17011540068
17011544463
17011551970
17011556486
17011561674
17011565886
17011573759
17011579558
17011584563
17011590239
17011595671
17011598784
17011607145
17011611784
17011619597
17011625700
17011630766
17011636503
17011641935
17011648100
17011653105
17011658720
17011667448
17011674833
17011682280
17011689177
17011694059
17011702116
17011707426
17011716398
17011723417
17011728483
17011733854
17011742216
17011749174
17011755216
17011763517
17011773405
17011779630
17011784757
17011789640
17011795622
17011801420
17011807035
17011812345
17011816923
17011822050
17011825651
17011831388
17011835294
17011841520
17011845670
17011853483
17011858488
17011862089
17011868009
17011873563
17011877836
17011885587
17011890653
17011896879
17011902006
17011907377
17011912320
17011918668
17011923795
17011931363
17011936124
17011942167
17011948209
17011952787
17011959195
17011963834
17011969632
17011976529
17011982389
17011986722
17011992215
17011996060
17012002164
17012006192
17012013028
17012017606
17012024015
17012028470
17012035123
17012041348
17012047147
17012051724
17012058804
17012064359
17012070035
17012076688
17012081448
17012085782
17012093289
17012097134
17012104398
17012110989
17012116483
17012121182
17012126920
17012133084
17012137357
17012141812
17012148404
17012155240
17012159695
17012164151
17012170865
17012176663
17012183377
17012188870
17012196744
17012202054
17012207974
17012214322
17012222195
17012227932
17012233914
17012240323
17012247403
17012252469
17012260159
17012266018
17012271267
17012276577
17012283047
17012289822
17012295864
17012302517
17012309475
17012314480
17012320217
17012327664
17012333767
17012339016
17012344876
17012351345
17012356777
17012361660
17012366604
17012371426
17012377590
17012383511
17012389919
17012394619
17012400600
17012405422
17012409573
17012416103
17012419460
17012427273
17012433376
17012438198
17012443020
17012450039
17012454616
17012459988
17012466152
17012472988
17012477871
17012483486
17012490566
17012495632
17012500026
17012507229
17012511928
17012517910
17012524929
17012531276
17012535793
17012541225
17012548427
17012553615
17012558803
17012563442
17012571621
17012577114
17012584194
17012589748
17012594814
17012599636
17012605495
17012611415
17012619777
17012624721
17012631191
17012636806
17012642482
17012648586
17012654201
17012658779
17012665309
17012670253
17012677882
17012682643
17012691982
17012697414
17012704372
17012709316
17012718166
17012723293
17012731593
17012734279
17012741115
17012747401
17012752956
17012759242
17012763576
17012769801
17012774318
17012780726
17012785731
17012790309
17012795619
17012800868
17012805568
17012813746
17012820765
17012829249
17012835658
17012840663
17012846888
17012854396
17012860560
17012867640
17012873744
17012881312
17012887660
17012893397
17012900843
17012906336
17012912623
17012916346
17012923121
17012927027
17012932521
17012937281
17012944239
17012949000
17012953578
17012958827
17012965479
17012969325
17012974146
17012978785
17012987086
17012992335
17012997279
17013002039
17013008326
17013013514
17013018763
17013021815
17013031092
17013036829
17013044154
17013050684
17013056727
17013060145
17013069056
17013073939
17013082606
17013087794
17013093165
17013098658
17013104456
17013110010
17013116358
17013121668
17013127283
17013132288
17013140040
17013146570
17013152430
17013159082
17013165552
17013170557
17013177149
17013182825
17013187159
17013192591
17013197596
17013202967
17013207910
17013217432
17013221826
17013228174
17013233423
17013238977
17013244226
17013250086
17013254785
17013263147
17013266870
17013273767
17013279138
17013284021
17013288294
17013293909
17013299768
17013306726
17013313196
17013318323
17013323511
17013328943
17013334192
17013340601
17013344324
17013352258
17013357080
17013364709
17013369836
17013376062
17013385156
17013389734
17013400476
17013404809
17013411950
17013415307
17013423242
17013426355
17013434167
17013439233
17013447839
17013456140
17013463037
17013468652
17013474328
17013480615
17013486535
17013491540
17013497766
17013502832
17013508630
17013513757
17013519250
17013524194
17013530541
17013536096
17013543054
17013548364
17013554345
17013558862
17013564721
17013568993
17013575219
17013580224
17013586572
17013593774
17013598168
17013605248
17013611535
17013617028
17013623132
17013629540
17013634179
17013641381
17013647118
17013652672
17013656823
17013663293
17013668175
17013675011
17013679833
17013686181
17013692895
17013699242
17013704003
17013711510
17013715783
17013721520
17013726403
17013733849
17013739098
17013745751
17013752098
17013756798
17013762902
17013767968
17013775475
17013780175
17013787804
17013791893
17013800072
17013806542
17013811302
17013817833
17013823448
17013829857
17013837792
17013842125
17013849144
17013854820
17013861168
17013866661
17013873436
17013877281
17013885460
17013889244
17013895226
17013901146
17013907799
17013912498
17013919456
17013923790
17013929771
17013935387
17013941246
17013946129
17013951012
17013956444
17013961510
17013967369
17013974632
17013981651
17013988365
17013995933
17014000572
17014006309
17014012474
17014019737
17014027977
17014034629
17014040550
17014045250
17014053062
17014059410
17014065818
17014071800
17014081016
17014085411
17014092613
17014097862
17014102806
17014107933
17014112998
17014118492
17014123985
17014129112
17014134727
17014140586
17014146629
17014151450
17014157310
17014162254
17014167869
17014173301
17014178611
17014183006
17014188682
17014195213
17014200217
17014207603
17014216209
17014221030
17014227195
17014232505
17014238364
17014242942
17014249412
17014255088
17014263511
17014268333
17014274985
17014280417
17014286338
17014293479
17014298728
17014305137
17014311973
17014318442
17014323813
17014329795
17014336570
17014342856
17014347617
17014353782
17014360251
17014365805
17014371726
17014381430
17014388327
17014394553
17014400839
17014404502
17014411887
17014416587
17014424155
17014429526
17014435019
