17015832782
17015838702
17015844561
17015850604
17015856646
17015862262
17015867633
17015873492
17015878863
17015884478
17015890155
17015897051
17015903033
17015908648
17015915179
17015921160
17015929156
17015934283
17015941912
17015948748
17015954302
17015963213
17015969012
17015974688
17015979510
17015987078
17015993243
17016000567
17016006731
17016014422
17016017901
17016027666
17016034258
17016039263
17016048662
17016055132
17016061602
17016069720
17016077105
17016084429
17016090349
17016096941
17016104998
17016114519
17016121965
17016127031
17016134233
17016138140
17016147051
17016152483
17016157305
17016164690
17016169817
17016175493
17016180925
17016188188
17016194048
17016200273
17016206560
17016211443
17016218462
17016223223
17016231157
17016236833
17016242937
17016249529
17016255571
17016261003
17016265337
17016272661
17016278154
17016284807
17016290056
17016297258
17016303545
17016309343
17016314958
17016322588
17016329545
17016335771
17016339616
17016347063
17016353349
17016359514
17016364763
17016372636
17016379350
17016386003
17016392412
17016399003
17016405473
17016412126
17016418290
17016424760
17016430680
17016435441
17016443193
17016447892
17016453935
17016460466
17016466508
17016473344
17016478227
17016485124
17016491960
17016498185
17016505387
17016511613
17016520402
17016527360
17016534257
17016541398
17016546830
17016553849
17016560685
17016567643
17016574906
17016580338
17016586869
17016593888
17016600480
17016605973
17016612626
17016620866
17016626054
17016633866
17016641740
17016649613
17016657731
17016665299
17016669266
17016679581
17016684830
17016691178
17016698075
17016704239
17016709671
17016715592
17016723038
17016730362
17016736344
17016741715
17016749344
17016754593
17016760575
17016767105
17016774063
17016779496
17016787125
17016793717
17016799942
17016806107
17016812393
17016819412
17016825699
17016832169
17016838211
17016844864
17016852188
17016858719
17016863541
17016872696
17016878067
17016885513
17016890518
17016896744
17016901810
17016909622
17016915787
17016922684
17016929336
17016935623
17016942337
17016948746
17016954605
17016961014
17016968521
17016975357
17016981766
17016986221
17016993728
17016998733
17017005813
17017011062
17017018814
17017024246
17017032547
17017039260
17017046524
17017050979
17017060623
17017067459
17017075454
17017080581
17017092300
17017097122
17017107070
17017111953
17017121597
17017129531
17017138931
17017144485
17017154311
17017159133
17017168594
17017173660
17017181472
17017187942
17017196792
17017203567
17017211990
17017216994
17017225295
17017231582
17017239760
17017246596
17017255569
17017262465
17017270583
17017277846
17017284987
17017290908
17017298964
17017305068
17017313002
17017321242
17017329055
17017335280
17017341445
17017345778
17017352065
17017356032
17017361953
17017367324
17017373549
17017378676
17017383986
17017389113
17017396132
17017399855
17017406874
17017411574
17017417800
17017421095
17017427443
17017430922
17017438429
17017444472
17017450514
17017455946
17017460768
17017466628
17017470595
17017475722
17017482314
17017486830
17017492201
17017498427
17017504286
17017509047
17017515150
17017520399
17017525099
17017530470
17017536207
17017542372
17017547438
17017554579
17017559279
17017564528
17017569410
17017574354
17017579115
17017584974
17017590651
17017597365
17017602064
17017609205
17017614149
17017621046
17017625441
17017631544
17017636122
17017642530
17017647413
17017653944
17017660902
17017666639
17017672132
17017678236
17017683363
17017689649
17017696852
17017702894
17017708448
17017714552
17017721449
17017727674
17017733900
17017739576
17017747694
17017751844
17017760877
17017765943
17017774488
17017778333
17017786451
17017789747
17017796339
17017801160
17017807325
17017812208
17017819105
17017824537
17017830030
17017834424
17017840894
17017845533
17017850538
17017855848
17017863721
17017868970
17017875318
17017880262
17017886976
17017892286
17017897657
17017904310
17017909742
17017917676
17017923780
17017928601
17017934400
17017939649
17017947095
17017952039
17017957227
17017964002
17017969251
17017975598
17017981397
17017987439
17017991773
17017998364
17018004590
17018010755
17018017102
17018023755
17018029431
17018033948
17018039014
17018046216
17018051160
17018057324
17018062329
17018069531
17018074719
17018080151
17018087231
17018092358
17018098828
17018103284
17018109875
17018115552
17018120007
17018127392
17018131787
17018136059
17018143567
17018148572
17018156994
17018162671
17018169018
17018172436
17018179822
17018183301
17018189953
17018194897
17018201611
17018207104
17018213879
17018219250
17018224743
17018230969
17018235913
17018242749
17018247937
17018255444
17018260022
17018266857
17018273937
17018279370
17018283825
17018291271
17018295544
17018304333
17018306774
17018316601
17018323620
17018331127
17018338879
17018343639
17018350414
17018358532
17018363659
17018369640
17018373302
17018381176
17018387463
17018391735
17018396618
17018405163
17018410351
17018416027
17018420177
17018429272
17018433544
17018439037
17018442272
17018450634
17018454418
17018462414
17018465893
17018472606
17018475780
17018483227
17018488353
17018495128
17018498851
17018505932
17018509105
17018518261
17018524852
17018532787
17018538707
17018547802
17018555065
17018561779
17018568553
17018581432
17018590282
17018597667
17018604625
17018614635
17018621654
17018630382
17018636974
17018645335
17018652538
17018661021
17018667552
17018674449
17018683604
17018692088
17018698314
17018706737
17018712596
17018720592
17018728404
17018734141
17018746409
17018753123
17018761302
17018768565
17018774180
17018782115
17018789866
17018795482
17018805674
17018812877
17018820567
17018826915
17018834361
17018841746
17018847300
17018854686
17018864451
17018871897
17018879649
17018884226
17018893626
17018899729
17018908396
17018915110
17018927195
17018932322
17018942454
17018947398
17018956736
17018963389
17018972178
17018979441
17018988108
17018995921
17019003794
17019012522
17019018626
17019027170
17019034312
17019044077
17019054392
17019061411
17019071116
17019078196
17019088205
17019096323
17019104807
17019114695
17019121958
17019128916
17019138010
17019147348
17019155466
17019162912
17019171457
17019178049
17019185617
17019195383
17019202951
17019211740
17019219675
17019228464
17019235605
17019244089
17019251779
17019259164
17019268259
17019276804
17019284433
17019291025
17019296823
17019307443
17019313180
17019324960
17019330331
17019340158
17019348398
17019355234
17019362985
17019370981
17019378244
17019387521
17019394540
17019401742
17019410043
17019421518
17019427316
17019439340
17019444223
17019455636
17019463204
17019473031
17019478524
17019489327
17019494760
17019505197
17019510568
17019521127
17019528329
17019536813
17019544137
17019552132
17019561288
17019567391
17019574166
17019584176
17019590890
17019600106
17019606881
17019617318
17019624154
17019632638
17019641121
17019649056
17019658578
17019666146
17019674996
17019682564
17019688973
17019697823
17019705269
17019711800
17019721810
17019729927
17019737313
17019744637
17019751778
17019757820
17019765877
17019774788
17019782112
17019791512
17019799446
17019805855
17019814949
17019821053
17019828804
17019836800
17019845161
17019853890
17019861214
17019869270
17019876350
17019885139
17019889839
17019901131
17019906013
17019919563
17019926155
17019933479
17019939522
17019944465
17019947761
17019957283
17019961128
17019969856
17019973457
17019981270
17019984504
17019991768
17019995063
17020002693
17020006477
17020014473
17020020393
17020026008
17020029548
17020036445
17020041694
17020047554
17020052742
17020057991
17020063606
17020068977
17020073554
17020079719
17020085029
17020090217
17020095283
17020101631
17020107246
17020111457
17020116096
17020123054
17020128059
17020133369
17020137946
17020146247
17020151740
17020157478
17020160835
17020167670
17020172858
17020177924
17020181647
17020188666
17020195686
17020199714
17020205390
17020210761
17020216193
17020220283
17020226691
17020234626
17020240180
17020244819
17020251471
17020256659
17020262153
17020267402
17020271857
17020276557
17020284064
17020288215
17020295173
17020298529
17020306891
17020310553
17020320075
17020324775
17020332282
17020335944
17020343146
17020348883
17020353888
17020359442
17020366828
17020372382
17020380011
17020383612
17020390265
17020395575
17020403388
17020406989
17020414618
17020420172
17020426642
17020431464
17020437384
17020441962
17020448859
17020454169
17020462225
17020470770
17020477789
17020482977
17020490851
17020495611
17020502569
17020507452
17020514288
17020520575
17020526068
17020530646
17020535345
17020541510
17020547918
17020552374
17020557501
17020563666
17020570196
17020574408
17020580450
17020585516
17020592535
17020598394
17020604254
17020609137
17020616156
17020622137
17020627081
17020632086
17020635443
17020644232
17020647772
17020656622
17020663153
17020669134
17020672857
17020680914
17020684698
17020692449
17020698004
17020704839
17020712103
17020717535
17020722662
17020728521
17020734869
17020739935
17020744695
17020752386
17020757513
17020764227
17020768743
17020774358
17020780828
17020786199
17020792181
17020798589
17020804876
17020810857
17020815923
17020820318
17020828008
17020832220
17020839055
17020842779
17020851568
17020856328
17020862859
17020866582
17020872991
17020878667
17020884710
17020891912
17020898076
17020906499
17020911687
17020919194
17020924627
17020929570
17020937078
17020942083
17020950139
17020958074
17020964604
17020969731
17020973088
17020982244
17020986211
17020993230
17020998540
17021007085
17021013127
17021019902
17021025090
17021030766
17021037114
17021043034
17021047795
17021054143
17021061040
17021067632
17021073918
17021081181
17021087712
17021094426
17021099309
17021106511
17021115544
17021122258
17021129216
17021138737
17021146916
17021154423
17021160832
17021165471
17021177250
17021182377
17021193913
17021203495
17021210514
17021219242
17021226689
17021234013
17021244450
17021250798
17021259465
17021266606
17021275273
17021282414
17021289738
17021298649
17021305485
17021314518
17021323063
17021330448
17021337589
17021345951
17021353092
17021361393
17021370304
17021377140
17021384098
17021392399
17021399174
17021409183
17021416569
17021424869
17021432560
17021441166
17021448673
17021456180
17021465580
17021472233
17021482486
17021489139
17021497318
17021505558
17021514774
17021522098
17021528934
17021538761
17021546024
17021554874
17021563053
17021571048
17021577884
17021587650
17021594669
17021600528
17021612552
17021621585
17021631534
17021637820
17021645755
17021653323
17021659915
17021669009
17021675235
17021679935
17021691409
17021700198
17021708011
17021714358
17021723575
17021728213
17021737735
17021744571
17021752871
17021759952
17021769778
17021776492
17021784610
17021791812
17021799929
17021805972
17021813418
17021822024
17021830264
17021836978
17021846621
17021852603
17021861758
17021868533
17021878420
17021888430
17021895815
17021902712
17021911379
17021919680
17021924624
17021932986
17021940005
17021949282
17021956667
17021967165
17021974184
17021982241
17021988955
17021997134
17022005251
17022013552
17022022768
17022029543
17022035769
17022044985
17022051027
17022059878
17022066469
17022076235
17022082460
17022091738
17022099428
17022107546
17022113527
17022118288
17022127626
17022135866
17022144899
17022154421
17022160707
17022168398
17022176515
17022183534
17022191408
17022199892
17022208376
17022215273
17022224489
17022231142
17022238527
17022244569
17022254152
17022260683
17022270937
17022277589
17022286561
17022293092
17022302186
17022310182
17022313234
17022325136
17022331788
17022342470
17022351564
17022359987
17022365724
17022373781
17022378663
17022388124
17022394716
17022406129
17022411256
17022419740
17022426515
17022435365
17022441774
17022448731
17022457948
17022464356
17022473878
17022482057
17022488160
17022496522
17022502564
17022508363
17022514466
17022520692
17022527589
17022533631
17022538331
17022543397
17022549500
17022554261
17022560242
17022567567
17022573975
17022581483
17022587891
17022594483
17022601014
17022606385
17022614136
17022619263
17022627076
17022632935
17022640015
17022645325
17022651551
17022656739
17022662964
17022669678
17022677063
17022682068
17022688660
17022695008
17022700928
17022705140
17022712220
17022718384
17022723450
17022727478
17022733704
17022737854
17022743775
17022747986
17022753906
17022760010
17022766663
17022771179
17022777222
17022783020
17022787903
17022793457
17022798645
17022805054
17022812073
17022818726
17022824158
17022831604
17022836487
17022841736
17022849487
17022852844
17022859497
17022864624
17022869629
17022874695
17022880493
17022885010
17022891235
17022897583
17022903564
17022908142
17022913513
17022918274
17022924560
17022929199
17022936401
17022943176
17022949157
17022954040
17022960083
17022964721
17022970703
17022976867
17022981018
17023000244
17023004089
17023012085
17023015564
17023023925
17023027404
17023035156
17023039245
17023046936
17023052795
17023058166
17023062988
17023068664
17023074706
17023079894
17023085204
17023092407
17023097595
17023101928
17023107726
17023112426
17023117187
17023123351
17023130126
17023136840
17023141967
17023147399
17023151305
17023157104
17023161254
17023167846
17023174194
17023181090
17023185973
17023190917
17023195129
17023201110
17023206481
17023215575
17023221618
17023229918
17023238707
17023246520
17023253112
17023261351
17023269530
17023273436
17023280028
17023283690
17023290831
17023295653
17023302062
17023308593
17023313353
17023318480
17023323058
17023328856
17023335143
17023340819
17023347289
17023351927
17023357360
17023363768
17023368590
17023373107
17023378417
17023382750
17023388976
17023393126
17023397948
17023402586
17023408080
17023412413
17023418211
17023422667
17023428282
17023432616
17023438048
17023442748
17023448546
17023453917
17023460814
17023466124
17023471678
17023478758
17023484984
17023490172
17023495421
17023500304
17023505980
17023511351
17023518126
17023523741
17023529844
17023534239
17023540465
17023545347
17023549009
17023556822
17023561155
17023569395
17023573240
17023580931
17023584227
17023592039
17023595945
17023602842
17023607664
17023615354
17023620298
17023627073
17023632627
17023638670
17023644163
17023652647
17023660765
17023672117
17023677976
17023687559
17023696714
17023703672
17023714475
17023720701
17023725828
17023739072
17023746519
17023755125
17023763547
17023770261
17023779417
17023786497
17023795957
17023803464
17023809019
17023820493
17023828855
17023837034
17023843808
17023852842
17023861142
17023869870
17023879087
17023886411
17023895017
17023904111
17023912107
17023920957
17023928281
17023938291
17023945554
17023954404
17023961789
17023970517
17023978452
17023985715
17023994748
17024001279
17024010617
17024017331
17024025388
17024032101
17024039914
17024048337
17024055722
17024064877
17024071957
17024081052
17024088803
17024095029
17024101376
17024107480
17024118649
17024125363
17024132138
17024137143
17024149106
17024154171
17024163937
17024169369
17024178585
17024186215
17024195980
17024204281
17024211972
17024218258
17024227291
17024234799
17024243099
17024249447
17024254818
17024265927
17024270992
17024281490
17024286984
17024297543
17024307003
17024314022
17024321285
17024327816
17024339291
17024346004
17024352657
17024363155
17024369686
17024377621
17024384273
17024390438
17024402340
17024409603
17024418880
17024425899
17024432125
17024437496
17024448971
17024454220
17024464290
17024469539
17024479915
17024487850
17024494686
17024500972
17024509944
17024516353
17024525447
17024532344
17024538814
17024548763
17024554805
17024565730
17024571102
17024579769
17024587154
17024598750
17024603877
17024611934
17024620052
17024629207
17024636165
17024643611
17024653438
17024662959
17024670283
17024679317
17024689387
17024696345
17024703242
17024709346
17024722285
17024731196
17024738582
17024743953
17024755488
17024761165
17024770015
17024775264
17024784663
17024791255
17024802119
17024810664
17024818476
17024825373
17024833857
17024840815
17024849177
17024855219
17024864558
17024871577
17024880549
17024889643
17024897028
17024903132
17024911799
17024919733
17024927119
17024935664
17024943110
17024949030
17024958552
17024964899
17024972590
17024980463
17024987665
17024997492
17025003962
17025013300
17025020014
17025026972
17025035578
17025042963
17025049128
17025058527
17025065119
17025073359
17025079950
17025085688
17025090998
17025097162
17025102106
17025110041
17025116144
17025123468
17025128961
17025134088
17025139398
17025144281
17025148981
17025156061
17025160028
17025169061
17025174249
17025181024
17025186823
17025193598
17025199884
17025205805
17025212946
17025217340
17025223261
17025227960
17025233575
17025240533
17025245660
17025252313
17025258234
17025262811
17025268793
17025275201
17025280450
17025285089
17025288629
17025297906
17025304620
17025309564
17025314447
17025320611
17025325555
17025331170
17025335748
17025344415
17025349481
17025351861
17025360528
17025368341
17025374139
17025381463
17025387445
17025397821
17025404107
17025411798
17025417291
17025425103
17025431390
17025437982
17025444696
17025450616
17025457940
17025462090
17025468194
17025473321
17025477899
17025484185
17025489068
17025495171
17025500481
17025507378
17025512688
17025517571
17025522759
17025528619
17025533746
17025540154
17025545342
17025552972
17025559136
17025565057
17025571282
17025576592
17025580804
17025587884
17025593194
17025599602
17025605279
17025610772
17025616814
17025621941
17025627617
17025634820
17025640496
17025647637
17025651055
17025660149
17025663750
17025672356
17025676079
17025683403
17025688836
17025693047
17025699517
17025704827
17025711907
17025716362
17025722954
17025730644
17025736504
17025743340
17025749809
17025755303
17025760552
17025767937
17025773979
17025780205
17025787895
17025793144
17025799858
17025807060
17025812004
17025818901
17025824638
17025831779
17025839409
17025845756
17025850944
17025858757
17025866691
17025872978
17025879143
17025887138
17025891411
17025897026
17025903068
17025909843
17025916435
17025920341
17025927788
17025931572
17025939323
17025945427
17025952018
17025957328
17025962211
17025967155
17025976127
17025982475
17025989555
17025994621
17026002067
17026008720
17026016105
17026022026
17026027824
17026035514
17026041252
17026047233
17026055473
17026061027
17026065482
17026069877
17026077323
17026084831
17026089713
17026096671
17026102042
17026105399
17026113517
17026116935
17026124015
17026129264
17026136344
17026140311
17026147452
17026152763
17026156974
17026162162
17026168632
17026173392
17026179130
17026184073
17026190238
17026194572
17026199515
17026204459
17026206962
17026217521
17026223563
17026228446
17026233390
17026237174
17026242301
17026248221
17026255851
17026260428
17026269339
17026276847
17026286124
17026290824
17026300894
17026309073
17026318412
17026325308
17026333914
17026342276
17026348563
17026357840
17026365531
17026373892
17026381217
17026390799
17026396109
17026407156
17026412650
17026423758
17026430838
17026439749
17026448050
17026454092
17026463736
17026470511
17026479239
17026486563
17026494375
17026500906
17026509329
17026517264
17026524222
17026532400
17026540274
17026548758
17026557974
17026586660
17026595266
17026603079
17026612234
17026618093
17026626638
17026634573
17026641714
17026651296
17026659292
17026667776
17026673147
17026682241
17026690237
17026698476
17026705984
17026714895
17026721731
17026729238
17026736379
17026745901
17026752126
17026760976
17026768301
17026776967
17026783315
17026788259
17026800100
17026805715
17026815481
17026820485
17026830373
17026837148
17026844045
17026854360
17026861623
17026868276
17026877065
17026884145
17026893422
17026899831
17026908010
17026915456
17026920461
17026932790
17026937917
17026945668
17026953298
17026963368
17026970265
17026977956
17026985646
17026994985
17027002736
17027010609
17027019276
17027025929
17027034291
17027041798
17027050038
17027055226
17027065358
17027071095
17027081715
17027088734
17027094777
17027101735
17027110951
17027117482
17027127369
17027134144
17027144154
17027151173
17027160756
17027167469
17027173756
17027183522
17027188771
17027199025
17027204762
17027215138
17027222340
17027230091
17027237721
17027246327
17027253407
17027261341
17027268055
17027277638
17027284412
17027293324
17027300648
17027309681
17027316395
17027324635
17027333240
17027340687
17027349293
17027356678
17027366444
17027373646
17027380543
17027387562
17027397449
17027404346
17027411793
17027420826
17027428150
17027434742
17027442615
17027449634
17027457508
17027467029
17027475696
17027486133
17027493579
17027501087
17027511707
17027518848
17027525867
17027533618
17027542835
17027550586
17027559314
17027567005
17027575977
17027582263
17027592456
17027597705
17027609424
17027614551
17027625354
17027633655
17027640674
17027648425
17027657214
17027663745
17027673450
17027680591
17027686572
17027691760
17027697192
17027704028
17027709704
17027715014
17027722461
17027727832
17027732959
17027738025
17027743579
17027748706
17027756213
17027761645
17027768603
17027774035
17027779834
17027785022
17027791430
17027796618
17027802600
17027807910
17027815417
17027821154
17027827075
17027830920
17027838610
17027842150
17027848498
17027853442
17027861620
17027865771
17027874560
17027878527
17027885241
17027891100
17027897570
17027903246
17027910265
17027916308
17027921801
17027925341
17027934435
17027937731
17027946459
17027953478
17027958117
17027965380
17027971911
17027975756
17027984484
17027988878
17027996447
17028000780
17028009874
17028016588
17028021837
17028027330
17028033861
17028040331
17028046129
17028051012
17028057421
17028063219
17028068651
17028075426
17028079271
17028087938
17028093309
17028098192
17028102892
17028112474
17028118639
17028125719
17028131212
17028140123
17028145616
17028151415
17028160631
17028169847
17028177721
17028185472
17028191637
17028199388
17028204027
17028209642
17028216173
17028221666
17028227159
17028230943
17028239000
17028242723
17028251207
17028254808
17028261034
17028265794
17028271532
17028276964
17028284288
17028288499
17028294786
17028299608
17028306566
17028311204
17028316453
17028321397
17028327806
17028334276
17028340013
17028344835
17028350572
17028357042
17028362169
17028369188
17028375108
17028379991
17028383775
17028392320
17028396653
17028405015
17028409043
17028415879
17028421617
17028427293
17028432420
17028438767
17028443528
17028451280
17028456712
17028463670
17028468430
17028475938
17028480698
17028484483
17028493760
17028497605
17028505112
17028510667
17028517503
17028523545
17028530015
17028535203
17028542039
17028547227
17028555833
17028561082
17028567795
17028572190
17028577805
17028583970
17028589341
17028595322
17028599534
17028607041
17028612107
17028617844
17028623887
17028628647
17028634385
17028640610
17028645554
17028651230
17028658921
17028665207
17028670456
17028676072
17028680588
17028687668
17028693772
17028695786
17028705002
17028711106
17028715988
17028722336
17028728195
17028731735
17028739060
17028744675
17028750900
17028757675
17028764389
17028770371
17028776718
17028783859
17028790146
17028796005
17028804123
17028812241
17028817551
17028823654
17028829208
17028833603
17028839950
17028844101
17028850021
17028856857
17028862106
17028866257
17028872299
17028877792
17028882553
17028888534
17028893783
17028902023
17028904770
17028916061
17028921127
17028931503
17028937179
17028946334
17028953415
17028961715
17028969650
17028979599
17028987045
17028994125
17029001327
17029004074
17029018356
17029026168
17029033309
17029037887
17029048873
17029055343
17029063339
17029069381
17029077865
17029082687
17029094100
17029099044
17029109542
17029114303
17029122787
17029127364
17029137191
17029144515
17029153976
17029158797
17029167769
17029174300
17029181258
17029189925
17029196639
17029203231
17029210738
17029217147
17029225631
17029234664
17029240279
17029247908
17029254744
17029261031
17029270797
17029278121
17029285506
17029293929
17029301497
17029308638
17029317488
17029323897
17029330977
17029339949
17029347762
17029354231
17029360701
17029369368
17029375716
17029385176
17029392073
17029398726
17029407637
17029415022
17029424422
17029436262
17029448347
17029457625
17029468672
17029480513
17029491377
17029501936
17029512434
17029523237
17029535200
17029549116
17029558027
17029571394
17029584761
17029596296
17029611372
17029622724
17029630476
17029641157
17029651472
17029662519
17029671613
17029681562
17029690839
17029702741
17029713178
17029724165
17029731733
17029743757
17029752485
17029764936
17029771161
17029783735
17029793989
17029804731
17029834333
17029868207
17029899945
17029932843
17029961896
17029987347
17030018475
17030046002
17030078106
17030108502
17030138653
17030152081
17030165264
17030175640
17030187115
17030195721
17030207501
17030216168
17030231060
17030240215
17030250347
17030265667
17030276714
17030286907
17030298748
17030309856
17030323101
17030331585
17030345379
17030358623
17030369976
17030376812
17030393474
17030402508
17030413067
17030423748
17030431438
17030442974
17030450847
17030461650
17030474102
17030494304
17030505718
17030514141
17030529094
17030540019
17030552043
17030559123
17030567912
17030576091
17030583720
17030592815
17030617656
17030641582
17030665568
17030687846
17030712932
17030733561
17030757853
17030780314
17030802226
17030828593
17030850016
17030858988
17030867289
17030874369
17030885722
17030894450
17030900614
17030911539
17030920206
17030930216
17030940043
17030949869
17030956400
17030963236
17030968180
17030972086
17030976847
17030979410
17030989481
17030999979
17031010721
17031020426
17031024698
17031030375
17031035807
17031042826
17031048929
17031053995
17031059366
17031068155
17031076334
17031083414
17031089029
17031092569
17031096964
17031102274
17031108377
17031123148
17031137369
17031151651
17031165140
17031179727
17031188272
17031199808
17031212442
17031224283
17031237527
17031252481
17031258279
17031264749
17031270608
17031275369
17031280130
17031286111
17031291543
17031295938
17031303323
17031310647
17031316690
17031322305
17031327737
17031332254
17031339883
17031342935
17031349221
17031352639
17031361489
17031367898
17031373269
17031380227
17031384133
17031389871
17031395791
17031400491
17031405679
17031410989
17031420754
17031426553
17031431802
17031438027
17031443093
17031449624
17031455911
17031461282
17031469094
17031474465
17031479592
17031516213
17031542214
17031565835
17031581276
17031594521
17031612648
17031631081
17031650978
17031676979
17031693581
17031702980
17031708351
17031717995
17031725380
17031731484
17031740883
17031746864
17031757790
17031768776
17031775551
17031782448
17031790260
17031797585
17031804787
17031811500
17031820167
17031824806
17031837196
17031845497
17031851784
17031860145
17031866920
17031873878
17031880287
17031888466
17031895668
17031903969
17031910438
17031918129
17031926490
17031932350
17031938697
17031945655
17031953407
17031960365
17031964759
17031972023
17031978248
17031986915
17031994300
17032003578
17032011634
17032020118
17032025489
17032036964
17032045142
17032053443
17032061195
17032068275
17032076698
17032083472
17032090980
17032097449
17032105994
17032110511
17032121986
17032126990
17032137366
17032142432
17032155311
17032163856
17032171546
17032177588
17032186072
17032193641
17032200110
17032204993
17032216224
17032223059
17032229834
17032238318
17032247412
17032254493
17032264075
17032274024
17032280554
17032288062
17032294348
17032303076
17032310279
17032320166
17032328772
17032336218
17032344275
17032356055
17032362158
17032370154
17032376807
17032385901
17032392432
17032402380
17032408789
17032416296
17032424963
17032433630
17032441443
17032449255
17032455908
17032465857
17032474280
17032481604
17032491003
17032498816
17032506811
17032517614
17032525061
17032532751
17032541723
17032549719
17032558325
17032565222
17032573706
17032580053
17032591223
17032596899
17032606848
17032614843
17032622534
17032628759
17032637304
17032646398
17032653845
17032663427
17032670080
17032679418
17032686315
17032694311
17032703222
17032710302
17032720861
17032723546
17032737096
17032744543
17032752843
17032760045
17032767919
17032776464
17032783117
17032791539
17032799779
17032807348
17032813756
17032821386
17032827794
17032832555
17032845067
17032850927
17032859288
17032866368
17032872838
17032881749
17032888829
17032897679
17032906407
17032916295
17032923619
17032931920
17032938695
17032943822
17032949132
17032957433
17032964391
17032969823
17032973607
17032981664
17032988560
17032992955
17032999730
17033006016
17033013402
17033020665
17033026036
17033030858
17033037450
17033044896
17033050267
17033055272
17033064244
17033069249
17033075902
17033082982
17033089451
17033097142
17033103795
17033109288
17033117100
17033121678
17033126744
17033132115
17033137303
17033141209
17033147374
17033153355
17033158055
17033164036
17033168797
17033172947
17033179478
17033183934
17033191136
17033196324
17033202488
17033208958
17033214207
17033218907
17033224400
17033229099
17033235447
17033241612
17033247349
17033251988
17033259129
17033264744
17033272068
17033277134
17033281101
17033289646
17033293797
17033301792
17033308018
17033314304
17033321323
17033327732
17033335850
17033341953
17033349521
17033355625
17033360447
17033366184
17033371067
17033375828
17033382236
17033387485
17033391941
17033398105
17033404758
17033409824
17033415867
17033421604
17033427463
17033433323
17033440097
17033442051
17033451633
17033455783
17033463047
17033466587
17033474399
17033477939
17033487155
17033492099
17033499240
17033502536
17033510410
17033514926
17033522067
17033527622
17033534396
17033540744
17033547641
17033552646
17033560397
17033566074
17033571262
17033577975
17033582675
17033590366
17033597140
17033602023
17033607516
17033615329
17033619357
17033627292
17033632785
17033640231
17033645907
17033651950
17033656955
17033664340
17033670077
17033678744
17033684298
17033690097
17033700229
17033705966
17033715426
17033720980
17033727694
17033732516
17033739108
17033745822
17033754916
17033761203
17033766146
17033771456
17033776461
17033781832
17033786715
17033792575
17033796664
17033802340
17033806124
17033811556
17033817111
17033821505
17033827609
17033833834
17033838534
17033844149
17033850131
17033856234
17033863131
17033867953
17033874239
17033879610
17033885775
17033890108
17033894320
17033900668
17033905184
17033910616
17033916354
17033924410
17033928499
17033935946
17033940951
17033946200
17033952730
17033957796
17033962740
17033970064
17033974703
17033981844
17033986422
17033992952
17033999422
17034005343
17034009859
17034016024
17034022738
17034028841
17034033174
17034039034
17034044893
17034048616
17034055208
17034061312
17034068087
17034074739
17034080416
17034085909
17034092867
17034099092
17034106050
17034111604
17034117464
17034124544
17034130586
17034136202
17034142122
17034149995
17034157930
17034164583
17034169710
17034181734
17034187044
17034196382
17034203706
17034212495
17034220491
17034230195
17034237581
17034245698
17034253084
17034261018
17034269868
17034278718
17034285859
17034291780
17034302095
17034307161
17034319062
17034324250
17034334443
17034342378
17034350373
17034358186
17034367951
17034375520
17034384492
17034392182
17034401155
17034407319
17034414887
17034423493
17034429719
17034439179
17034447724
17034454255
17034462800
17034472077
17034478486
17034487885
17034493073
17034504304
17034509431
17034520661
17034528474
17034535370
17034544892
17034551484
17034560639
17034567170
17034575959
17034583283
17034593415
17034598542
17034609284
17034618134
17034625458
17034632904
17034641022
17034648407
17034659210
17034667023
17034675751
17034682160
17034691559
17034698395
17034707184
17034715851
17034723053
17034732208
17034737457
17034748077
17034753876
17034763092
17034770538
17034778717
17034788605
17034796783
17034804657
17034813934
17034821258
17034828583
17034835602
17034843719
17034852508
17034858551
17034867889
17034870880
17034882782
17034888397
17034899749
17034905121
17034914947
17034920257
17034930633
17034938446
17034945953
17034952911
17034960662
17034968048
17034977569
17034984100
17034991973
17035001068
17035007598
17035016143
17035024017
17035032745
17035039398
17035045806
17035054534
17035062652
17035070708
17035078704
17035086394
17035094390
17035101287
17035108428
17035115203
17035124847
17035131316
17035139922
17035147246
17035156951
17035163482
17035172576
17035179656
17035185271
17035197844
17035203338
17035214995
17035220366
17035230193
17035235625
17035245696
17035251860
17035260771
17035270415
17035276457
17035282927
17035292571
17035299468
17035308257
17035314665
17035324614
17035331938
17035340544
17035347624
17035356535
17035362944
17035371550
17035378813
17035386259
17035393706
17035400664
17035410551
17035417692
17035423979
17035433989
17035440886
17035447172
17035455473
17035464384
17035471953
17035480558
17035487639
17035494169
17035503630
17035510832
17035518949
17035525785
17035533659
17035540983
17035550749
17035558134
17035565214
17035572599
17035578886
17035589872
17035594999
17035600492
17035605314
17035611051
17035615995
17035621793
17035626920
17035634123
17035639127
17035645536
17035651212
17035657926
17035661649
17035669035
17035675687
17035682157
17035687894
17035694608
17035699003
17035705228
17035712003
17035717924
17035723539
17035728666
17035735258
17035742582
17035748441
17035754117
17035760099
17035766752
17035772062
17035778959
17035783414
17035790189
17035796293
17035801114
17035808927
17035813993
17035820707
17035827176
17035833158
17035838224
17035843656
17035849210
17035855863
17035863858
17035871305
17035877652
17035882962
17035890470
17035895963
17035905423
17035909940
17035918546
17035922269
17035929288
17035934415
17035940091
17035945706
17035952359
17035958279
17035962979
17035970059
17035974576
17035980313
17035984952
17035992398
17035997647
17036004666
17036009671
17036015591
17036020840
17036026333
17036031277
17036038174
17036044095
17036049832
17036054776
17036061795
17036065518
17036072781
17036079129
17036085721
17036090603
17036096280
17036101773
17036107449
17036112698
17036117154
17036120327
17036130093
17036136929
17036141995
17036149014
17036154019
17036160488
17036166165
17036174465
17036179714
17036185635
17036191982
17036197109
17036203640
17036209438
17036214199
17036222256
17036227566
17036234341
17036239895
17036246304
17036251675
17036257046
17036261990
17036268032
17036274990
17036279751
17036286098
17036292629
17036298611
17036303615
17036310207
17036315517
17036323452
17036327480
17036334621
17036340420
17036346523
17036352688
17036360500
17036366970
17036372951
17036380459
17036384975
17036391872
17036396755
17036403652
17036411953
17036418666
17036423671
17036430019
17036435207
17036442043
17036447658
17036455165
17036461025
17036468288
17036474452
17036481655
17036486904
17036494472
17036499904
17036506191
17036511073
17036517726
17036522365
17036529018
17036534145
17036539455
17036544521
17036551051
17036557460
17036561549
17036567287
17036572841
17036576076
17036583705
17036589381
17036595424
17036601100
17036607020
17036612941
17036617579
17036624049
17036630336
17036634669
17036643214
17036649501
17036655726
17036661464
17036666041
17036672145
17036678370
17036682032
17036690394
17036697108
17036703028
17036708888
17036714808
17036719081
17036725367
17036731227
17036738612
17036746791
17036752833
17036760585
17036769374
17036774012
17036784083
17036790797
17036800807
17036810145
17036816676
17036824427
17036833460
17036841883
17036848109
17036854823
17036864954
17036873621
17036881800
17036886500
17036896693
17036904749
17036912806
17036917444
17036928553
17036936670
17036945337
17036950159
17036959681
17036966395
17036976587
17036981348
17036991602
17036998682
17037008387
17037013269
17037022486
17037029383
17037038904
17037045740
17037056604
17037065760
17037074732
17037081201
17037091577
17037099817
17037108362
17037118494
17037125147
17037135645
17037142786
17037152673
17037161768
17037170740
17037180139
17037188867
17037198694
17037208215
17037218042
17037227319
17037234887
17037245813
17037254175
17037262597
17037270837
17037278100
17037285424
17037294946
17037302453
17037313317
17037322290
17037329614
17037337121
17037345300
17037350244
17037360986
17037365685
17037375024
17037381799
17037393151
17037401208
17037408105
17037415185
17037425317
17037432092
17037439050
17037445702
17037454858
17037464928
17037472375
17037479027
17037487206
17037494164
17037503930
17037510644
17037520104
17037527245
17037537072
17037543725
17037551659
17037558434
17037566735
17037575463
17037582726
17037589928
17037598961
17037605919
17037615929
17037622643
17037630638
17037637352
17037646385
17037654015
17037663719
17037670433
17037678856
17037685753
17037694664
17037701134
17037711571
17037718712
17037728478
17037735130
17037742638
17037751427
17037758629
17037764732
17037773094
17037782432
17037791588
17037798363
17037805382
17037814049
17037820885
17037829674
17037835777
17037844383
17037852989
17037862877
17037868980
17037876976
17037884117
17037892234
17037900596
17037909751
17037918479
17037928062
17037936424
17037943870
17037955772
17037961143
17037974204
17037980369
17037989219
17037994285
17038005210
17038010093
17038022178
17038027061
17038037559
17038046043
17038053977
17038060996
17038068748
17038075462
17038083701
17038090293
17038099998
17038106772
17038116233
17038122336
17038130454
17038137046
17038144004
17038150229
17038157004
17038161643
17038168723
17038174582
17038179465
17038183860
17038190207
17038193320
17038201133
17038205588
17038212668
17038218100
17038222190
17038227500
17038232749
17038238364
17038244162
17038250327
17038254843
17038259848
17038265708
17038270957
17038276511
17038283530
17038289023
17038296103
17038299399
17038307211
17038313010
17038318869
17038322409
17038331442
17038337790
17038343832
17038348105
17038354819
17038359213
17038367087
17038372397
17038379172
17038385153
17038390829
17038396200
17038401755
17038408774
17038414755
17038420309
17038426901
17038434286
17038439963
17038444784
17038451193
17038455649
17038462301
17038468832
17038474508
17038480551
17038486593
17038492636
17038497580
17038503378
17038508444
17038515646
17038519186
17038528280
17038534445
17038539328
17038546285
17038551412
17038557455
17038564657
17038570150
17038576315
17038583883
17038589864
17038597189
17038603536
17038611715
17038618002
17038623068
17038630270
17038638570
17038642477
17038650228
17038657247
17038661459
17038666769
17038672689
17038678731
17038684591
17038689352
17038695272
17038700643
17038706685
17038710287
17038717122
17038722310
17038729085
17038733175
17038740316
17038745565
17038751119
17038754903
17038761983
17038766439
17038773763
17038778646
17038785787
17038790548
17038795125
17038800985
17038805501
17038811422
17038816793
17038821553
17038828511
17038833089
17038839376
17038844014
17038849080
17038854024
17038861287
17038868855
17038874898
17038879353
17038885762
17038891316
17038897969
17038903951
17038909139
17038915303
17038920430
17038926228
17038929952
17038937764
17038941975
17038949971
17038953389
17038960591
17038965840
17038972127
17038977193
17038984456
17038989522
17038994771
17038999287
17039006184
17039013753
17039020466
17039026021
17039031209
17039037129
17039043049
17039047810
17039054646
17039060994
17039065999
17039072163
17039076863
17039083516
17039087178
17039094258
17039099873
17039108235
17039111897
17039120198
17039126545
17039133442
17039140339
17039147419
17039156391
17039161213
17039165302
17039174275
17039179157
17039186909
17039193501
17039199848
17039208576
17039214985
17039222981
17039229328
17039235615
17039243488
17039250202
17039255085
17039260883
17039267658
17039273701
17039280720
17039285969
17039290729
17039295429
17039302692
17039308430
17039314167
17039318989
17039325092
17039330097
17039336872
17039342731
17039349567
17039357441
17039363849
17039372211
17039379963
17039386676
17039394489
17039401813
17039410724
17039416767
17039424091
17039434528
17039444721
17039450885
17039459979
17039469257
17039476032
17039484088
17039492755
17039500568
17039506793
17039517596
17039523151
17039532733
17039538287
17039547321
17039555194
17039562884
17039570087
17039578387
17039585345
17039593890
17039600543
17039609332
17039616351
17039624530
17039632708
17039638629
17039648150
17039654559
17039662677
17039670245
17039675921
17039682635
17039690936
17039699298
17039704974
17039710223
17039719928
17039722613
17039734149
17039743365
17039752398
17039759600
17039765643
17039774127
17039780169
17039788653
17039795550
17039800677
17039814532
17039819537
17039829546
17039836993
17039845782
17039853228
17039860247
17039871783
17039879656
17039886370
17039895159
17039901446
17039909319
17039918535
17039926165
17039932512
17039941362
17039948809
17039953692
17039965166
17039971026
17039981157
17039986956
17039997576
17040005876
17040012773
17040019365
17040028948
17040036272
17040045427
17040052141
17040059221
17040068193
17040075029
17040085222
17040090471
17040100298
17040105791
17040115984
17040123003
17040129839
17040136674
17040146501
17040153093
17040162370
17040168962
17040177873
17040186235
17040192827
17040201921
17040208513
17040217485
17040222734
17040231401
17040238603
17040248308
17040255571
17040264848
17040272783
17040280107
17040289689
17040297319
17040304460
17040314042
17040320756
17040328141
17040337541
17040342607
17040354875
17040360124
17040370011
17040377519
17040387345
17040395097
17040403214
17040410661
17040419999
17040427262
17040435624
17040444291
17040451249
17040460038
17040469254
17040475663
17040480851
17040494156
17040499772
17040510819
17040519059
17040526871
17040534379
17040543046
17040550492
17040560074
17040566971
17040576615
17040583268
17040592118
17040599259
17040608353
17040617081
17040623429
17040632279
17040637467
17040648819
17040657181
17040664017
17040671890
17040681107
17040688553
17040696426
17040706619
17040715347
17040721939
17040730911
17040737503
17040746536
17040755752
17040764053
17040770950
17040779556
17040785538
17040789444
17040796341
17040802933
17040808670
17040813186
17040824539
17040829239
17040838089
17040842422
17040850723
17040854934
17040864151
17040868301
17040875015
17040881057
17040887893
17040891555
17040897903
17040902481
17040908218
17040913162
17040918899
17040923721
17040929031
17040934463
17040941238
17040947097
17040952835
17040957351
17040964187
17040968643
17040975295
17040980666
17040987808
17040992385
17040998733
17041004287
17041010391
17041017287
17041023330
17041029311
17041034011
17041038589
17041045608
17041051101
17041054763
17041064590
17041070266
17041074660
17041078078
17041085525
17041092055
17041097487
17041102431
17041109206
17041112136
17041121596
17041125747
17041133315
17041138686
17041143203
17041146743
17041156997
17041162246
17041168837
17041175673
17041181838
17041186293
17041193129
17041199294
17041205947
17041212416
17041217910
17041225051
17041231764
17041238478
17041243849
17041247511
17041256178
17041262526
17041268752
17041274733
17041281508
17041286635
17041293227
17041298171
17041305190
17041310744
17041315138
17041321852
17041326979
17041331618
17041336317
17041342909
17041348585
17041355177
17041358473
17041365309
17041368361
17041375563
17041378615
17041387465
17041394057
17041398878
17041406508
17041411940
17041416639
17041426100
17041431227
17041439772
17041445692
17041450941
17041458082
17041464369
17041470228
17041474684
17041480604
17041487379
17041491407
17041498060
17041503981
17041509718
17041513014
17041520216
17041523573
17041531690
17041537184
17041541273
17041545912
17041553236
17041557203
17041563795
17041568800
17041577650
17041582838
17041589063
17041595533
17041601820
17041607313
17041613416
17041617994
17041625928
17041630750
17041637586
17041641981
17041649122
17041653516
17041660413
17041665174
17041671155
17041677808
17041683851
17041688367
17041695203
17041700269
17041705152
17041711927
17041717786
17041724378
17041729627
17041737378
17041742383
17041748121
17041755018
17041760389
17041764905
17041770826
17041777906
17041782911
17041789869
17041795362
17041801160
17041806409
17041812451
17041818555
17041824353
17041834058
17041839734
17041847302
17041851941
17041859876
17041865735
17041874036
17041877759
17041885938
17041891858
17041896436
17041901685
17041908765
17041913892
17041920911
17041926221
17041933301
17041938489
17041944775
17041949719
17041955945
17041961011
17041969433
17041974866
17041981702
17041986706
17041993054
17041998364
17042005505
17042011059
17042018200
17042024975
17042032116
17042037732
17042045178
17042051526
17042057812
17042064892
17042070630
17042077710
17042083325
17042088086
17042094250
17042098767
17042104321
17042110241
17042116101
17042121533
17042127758
17042133679
17042138500
17042143139
17042149121
17042154003
17042162487
17042167858
17042174389
17042179333
17042185070
17042189404
17042196301
17042200512
17042206493
17042212963
17042219372
17042223888
17042230114
17042235119
17042240917
17042245861
17042252880
17042257763
17042264294
17042270702
17042276562
17042282299
17042287304
17042293651
17042298351
17042305553
17042310192
17042316478
17042322155
17042328808
17042334484
17042340343
17042345409
17042352306
17042357677
17042366954
17042373180
17042377880
17042383007
17042389720
17042394115
17042400524
17042404979
17042412120
17042415721
17042422985
17042429027
17042433177
17042436534
17042445629
17042451793
17042457775
17042463207
17042469371
17042474010
17042479869
17042486461
17042493602
17042499706
17042504832
17042511729
17042517528
17042524791
17042529979
17042535533
17042540965
17042548717
17042554454
17042561595
17042567454
17042573619
17042578746
17042586619
17042593150
17042598582
17042604869
17042614024
17042619883
17042625682
17042633433
17042639659
17042647654
17042654124
17042659556
17042665721
17042670848
17042677073
17042682933
17042687754
17042694651
17042700389
17042704417
17042710948
17042715220
17042721324
17042725535
17042731516
17042738047
17042743968
17042748057
17042754099
17042758799
17042765391
17042771922
17042778819
17042784373
17042791209
17042797678
17042803355
17042809763
17042812083
17042821543
17042825266
17042834177
17042840342
17042846018
17042847849
17042857127
17042860483
17042867930
17042873606
17042882273
17042887034
17042893931
17042897654
17042904917
17042910532
17042915842
17042923411
17042931406
17042937021
17042941965
17042946909
17042954538
17042958994
17042964914
17042969553
17042977182
17042982187
17042988840
17042995066
17043000132
17043006113
17043009592
17043018625
17043021921
17043031381
17043036630
17043042551
17043046518
17043054086
17043058115
17043065195
17043070322
17043076486
17043083200
17043089243
17043093942
17043100290
17043104807
17043111459
17043115854
17043123239
17043129648
17043136484
17043142526
17043148813
17043153879
17043158395
17043166025
17043169504
17043179758
17043185617
17043191598
17043200204
17043206125
17043214181
17043219919
17043228280
17043237252
17043244760
17043250985
17043259774
17043266488
17043272775
17043277963
17043287118
17043293222
17043298043
17043303598
17043308847
17043314828
17043319894
17043325875
17043332223
17043336312
17043343759
17043348214
17043355111
17043360909
17043365609
17043371102
17043376595
17043383126
17043389352
17043393319
17043400033
17043404183
17043409493
17043415841
17043421883
17043428353
17043434273
17043440682
17043446847
17043451424
17043455025
17043462960
17043466866
17043476143
17043481331
17043488167
17043493172
17043499215
17043504586
17043510384
17043516793
17043522652
17043527962
17043534859
17043539315
17043545601
17043550179
17043557625
17043562691
17043569527
17043575997
17043581490
17043586556
17043592659
17043597359
17043604256
17043608773
17043613899
17043620919
17043626961
17043632576
17043638436
17043643868
17043648811
17043655708
17043660774
17043669380
17043674812
17043682259
17043687386
17043696297
17043700935
17043710091
17043716499
17043724922
17043731026
17043738411
17043744453
17043751655
17043755806
17043765510
17043767830
17043776863
17043784309
17043788948
17043795601
17043802803
17043808601
17043814216
17043822273
17043830574
17043841255
17043845832
17043855293
17043865669
17043869270
17043887214
17043893684
17043904060
17043914863
17043922615
17043931587
17043942695
17043949958
17043956245
17043965766
17043972236
17043979133
17043986884
17043992072
17044000007
17044004340
17044010139
17044015876
17044017829
17044027534
17044032600
17044038215
17044044013
17044048469
17044051765
17044060432
17044065497
17044072700
17044078559
17044085639
17044091132
17044097480
17044103095
17044107978
17044111396
17044120856
17044125800
17044131354
17044134833
17044140998
17044146796
17044153083
17044156684
17044162604
17044167426
17044175360
17044179450
17044187445
17044194098
17044200629
17044206488
17044214789
17044220893
17044227790
17044235114
17044240668
17044246954
17044253302
17044260870
17044265692
17044272040
17044279120
17044285162
17044290533
17044297064
17044302618
17044309943
17044315070
17044320502
17044327154
17044332709
17044338080
17044343634
17044349737
17044358343
17044363714
17044369452
17044374701
17044381537
17044387823
17044392340
17044396002
17044405707
17044412542
17044417120
17044423773
17044428412
17044436163
17044441290
17044447943
17044456793
17044461920
17044468389
17044475286
17044480535
17044484991
17044492620
17044497442
17044505560
17044510137
17044517217
17044522833
17044529791
17044537603
17044544927
17044550909
17044556463
17044562566
17044569219
17044574041
17044580328
17044587469
17044593023
17044600042
17044605474
17044610540
17044618108
17044622747
17044629278
17044633855
17044642278
17044647466
17044653448
17044658758
17044664922
17044671148
17044676214
17044683050
17044689153
17044694341
17044699468
17044704229
17044711858
17044717168
17044724187
17044729070
17044735723
17044741704
17044747441
17044754461
17044756536
17044766545
17044772344
17044777105
17044784429
17044789739
17044793584
17044803105
17044807500
17044814519
17044819829
17044826604
17044831304
17044840520
17044846806
17044853520
17044860722
17044865788
17044871892
17044878301
17044882085
17044890996
17044894597
17044901494
17044907536
17044913640
17044917546
17044925053
17044929448
17044938176
17044940312
17044948613
17044952702
17044961430
17044967839
17044972905
17044979985
17044984746
17044990666
17044997380
17045002324
17045009099
17045015385
17045022404
17045027409
17045034123
17045040043
17045044682
17045051518
17045056279
17045060002
17045068913
17045072941
17045083988
17045089543
17045095829
17045101933
17045107609
17045115299
17045120915
17045130070
17045134037
17045142521
17045147465
17045156803
17045162296
17045166752
17045173466
17045178043
17045183964
17045190250
17045197147
17045202152
17045207829
17045213505
17045218876
17045223576
17045226932
17045235050
17045238590
17045247135
17045250675
17045257572
17045262943
17045270389
17045273990
17045280277
17045285160
17045291691
17045296940
17045303287
17045308170
17045315555
17045321109
17045326358
17045331791
17045339054
17045343876
17045349979
17045356754
17045362979
17045368106
17045371769
17045380252
17045383914
17045391971
17045396488
17045404361
17045409671
17045416873
17045422428
17045428897
17045433902
17045441532
17045446658
17045453006
17045460086
17045465946
17045472598
17045478458
17045485172
17045490360
17045496402
17045502689
17045508731
17045514774
17045521609
17045527713
17045533328
17045538333
17045546207
17045551822
17045558841
17045563968
17045570254
17045576968
17045583255
17045588321
17045594668
17045601199
17045605533
17045614138
17045619632
17045625674
17045631778
17045637210
17045644412
17045650088
17045655032
17045661502
17045668093
17045674746
17045683596
17045690554
17045696231
17045703250
17045708804
17045713320
17045723269
17045728762
17045738406
17045749758
17045758791
17045761965
17045772768
17045781496
17045791018
17045798891
17045806277
17045814883
17045821291
17045828127
17045833864
17045838686
17045843813
17045849612
17045856081
17045861635
17045868960
17045874575
17045880556
17045885012
17045890749
17045895815
17045902773
17045910769
17045916994
17045922182
17045928286
17045934084
17045938234
17045943727
17045950136
17045957766
17045963930
17045969545
17045973207
17045978945
17045984316
17045991579
17045996034
17046004457
17046010012
17046016908
17046020998
17046030214
17046035158
17046041933
17046046999
17046055177
17046061098
17046068483
17046074892
17046080690
17046086488
17046093080
17046097597
17046101869
17046109743
17046114442
17046121461
17046125856
17046132570
17046139772
17046144227
17046149965
17046156679
17046162782
17046169313
17046175416
17046179994
17046189149
17046196412
17046201661
17046206849
17046214052
17046218995
17046224244
17046230287
17046236146
17046243409
17046248292
17046255067
17046260682
17046268251
17046272584
17046278688
17046284608
17046291261
17046296327
17046302674
17046307496
17046316407
17046321107
17046328187
17046333314
17046339051
17046345155
17046352784
17046359803
17046367188
17046371705
17046380250
17046386536
17046394044
17046399659
17046405518
17046413453
17046420411
17046426820
17046431885
17046437806
17046443482
17046447388
17046453187
17046460023
17046465882
17046470460
17046476380
17046480835
17046486023
17046489808
17046496399
17046503113
17046508606
17046513428
17046519837
17046524537
17046532044
17046536621
17046541382
17046547608
17046552674
17046558594
17046563111
17046568848
17046573975
17046578614
17046584412
17046590210
17046596009
17046601441
17046606384
17046613281
17046620239
17046625794
17046632141
17046639221
17046645508
17046651672
17046657349
17046661743
17046667725
17046673218
17046679321
17046684570
17046690796
17046696167
17046700928
17046706177
17046711975
17046717224
17046722351
17046728760
17046734436
17046739868
17046744568
17046749939
17046755554
17046761474
17046767273
17046774109
17046779175
17046784912
17046788635
17046795654
17046800964
17046805237
17046811462
17046817260
17046823791
17046829284
17046834350
17046840393
17046845642
17046851074
17046855407
17046862365
17046868957
17046875305
17046879089
17046886718
17046890319
17046897888
17046901672
17046910034
17046915161
17046922302
17046927062
17046932311
17046938842
17046943664
17046949706
17046955932
17046963500
17046975585
17046981994
17046987426
17046994323
17047000854
17047006713
17047015380
17047020141
17047025573
17047029967
17047035277
17047039611
17047043395
17047048949
17047054626
17047060607
17047065246
17047070189
17047074340
17047079162
17047084472
17047090575
17047096007
17047101867
17047106322
17047112182
17047116698
17047122924
17047129577
17047134764
17047141356
17047147033
17047153014
17047158141
17047163817
17047168761
17047173766
17047180724
17047186583
17047190062
17047197447
17047201232
17047208678
17047212157
17047219115
17047224974
17047232237
17047236266
17047242919
17047247740
17047253783
17047259154
17047266051
17047271727
17047276366
17047282530
17047288878
17047294859
17047301695
17047306944
17047314207
17047319151
17047322935
17047330809
17047335142
17047341856
17047347227
17047352659
17047359862
17047366026
17047371336
17047377379
17047382689
17047389952
17047395262
17047400084
17047406797
17047410765
17047418394
17047422056
17047429991
17047436216
17047441587
17047448362
17047452879
17047458189
17047464842
17047470091
17047476744
17047483335
17047487913
17047493101
17047499693
17047505491
17047510679
17047517210
17047524046
17047530027
17047535520
17047541624
17047548216
17047555113
17047563902
17047569883
17047579099
17047587278
17047596128
17047601072
17047608091
17047615354
17047620664
17047625791
17047633359
17047638792
17047643308
17047648435
17047654416
17047660032
17047665891
17047670835
17047676328
17047681272
17047688108
17047693052
17047699399
17047705259
17047710752
17047715574
17047720762
17047726804
17047731626
17047738279
17047743528
17047750180
17047753965
17047761411
17047765927
17047774167
17047779416
17047785092
17047791196
17047797238
17047801938
17047808103
17047813657
17047820249
17047827329
17047832456
17047838681
17047843991
17047849118
17047852902
17047861630
17047865781
17047872128
17047877194
17047883115
17047888425
17047895810
17047901669
17047906857
17047911191
17047919064
17047924496
17047929623
17047934872
17047941220
17047948239
17047954098
17047959103
17047965146
17047971554
17047975522
17047983578
17047987423
17047994565
17047999020
17048005978
17048010739
17048020199
17048026364
17048032589
17048038082
17048042965
17048048642
17048057309
17048062802
17048069882
17048075802
17048083065
17048088803
17048096127
17048101437
17048105465
17048113766
17048121884
17048127560
17048131710
17048139401
17048144039
17048151363
17048156612
17048163021
17048166866
17048180965
17048186703
17048192074
17048198788
17048204464
17048214229
17048219295
17048225216
17048231441
17048238155
17048244625
17048249386
17048255611
17048259151
17048267330
17048271053
17048277767
17048281368
17048287777
17048293209
17048300289
17048306636
17048311641
17048316951
17048323421
17048329158
17048334591
17048341732
17048346736
17048352169
17048358638
17048365474
17048370479
17048376827
17048382381
17048387691
17048394100
17048399349
17048405269
17048411556
17048416805
17048423213
17048428951
17048435542
17048440730
17048447810
17048452571
17048459590
17048465144
17048469722
17048476558
17048482295
17048489375
17048494685
17048499446
17048505916
17048510921
17048516597
17048524654
17048530452
17048535945
17048541621
17048547603
17048552913
17048560237
17048564937
17048571040
17048577998
17048581538
17048591060
17048597712
17048602717
17048610225
17048615657
17048621028
17048628230
17048634394
17048640071
17048645442
17048653865
17048659602
17048666438
17048672419
17048680293
17048686762
17048690974
17048699641
17048705561
17048713313
17048719966
17048726923
17048732356
17048739436
17048747126
17048753291
17048758906
17048767268
17048772700
17048779475
17048786372
17048792292
17048799738
17048806330
17048812800
17048818964
17048825861
17048831843
17048837031
17048846796
17048854914
17048861750
17048868403
17048875910
17048881769
17048889460
17048895197
17048901972
17048908625
17048915094
17048920771
17048926630
17048931208
17048937555
17048942011
17048948542
17048955072
17048960871
17048967157
17048972284
17048978632
17048982782
17048989618
17048995905
17049000971
17049008356
17049014948
17049018976
17049025568
17049031549
17049038812
17049044367
17049050592
17049055902
17049064142
17049070367
17049077692
17049084283
17049089471
17049096551
17049103387
17049108881
17049115045
17049121332
17049126886
17049133844
17049139947
17049145624
17049152032
17049156915
17049161615
17049168878
17049175653
17049180597
17049186578
17049192315
17049198480
17049203058
17049208978
17049215570
17049220758
17049224542
17049233331
17049237359
17049243768
17049248834
17049255853
17049261468
17049267266
17049272760
17049278619
17049283074
17049290093
17049294976
17049300958
17049305657
17049312493
17049319634
17049325616
17049330865
17049337335
17049343804
17049347894
17049355157
17049360528
17049368279
17049374444
17049381646
17049387566
17049396172
17049402154
17049411431
17049418023
17049424187
17049433282
17049442071
17049450860
17049458794
17049464776
17049474297
17049483635
17049491997
17049499627
17049506218
17049514458
17049525750
17049535576
17049542778
17049553215
17049560417
17049565483
17049576592
17049585564
17049592827
17049602654
17049607781
17049615166
17049619927
17049626335
17049632134
17049638298
17049644707
17049650200
17049654839
17049660942
17049666191
17049671440
17049677238
17049683220
17049690544
17049696159
17049700920
17049705742
17049711479
17049717277
17049721794
17049726433
17049733208
17049740410
17049745109
17049750847
17049754997
17049759819
17049765617
17049769462
17049778923
17049785026
17049791313
17049796928
17049802299
17049804069
17049811638
17049816825
17049825981
17049831901
17049837699
17049841545
17049846916
17049850151
17049857231
17049860404
17049869316
17049876274
17049880607
17049887443
17049892326
17049895805
17049903495
17049908683
17049915763
17049921562
17049925651
17049930656
17049935172
17049939750
17049945426
17049950431
