16703878624
16703886376
16703894493
16703901024
16703907921
16703916344
16703922264
16703928978
16703936485
16703944908
16703951561
16703958153
16703966331
16703974205
16703980247
16703988365
16703996788
16704004112
16704013450
16704022117
16704028526
16704037987
16704047752
16704055809
16704063987
16704074913
16704084617
16704091331
16704103660
16704112205
16704120445
16704130760
16704140525
16704148094
16704158287
16704167686
16704176902
16704188072
16704197715
16704205894
16704216209
16704224937
16704236839
16704242271
16704255027
16704264732
16704275047
16704284019
16704296409
16704306174
16704317893
16704325034
16704335471
16704343284
16704352988
16704362937
16704372397
16704380576
16704389670
16704401450
16704410117
16704425986
16704435446
16704445578
16704451987
16704462729
16704469016
16704480429
16704487570
16704497031
16704504538
16704515952
16704525290
16704532492
16704542990
16704550253
16704560080
16704569479
16704579977
16704587729
16704597128
16704606100
16704614035
16704623495
16704633383
16704640890
16704653402
16704663351
16704674521
16704685568
16704694418
16704704611
16704713461
16704723471
16704733725
16704742941
16704752767
16704761923
16704771871
16704781454
16704790304
16704799093
16704810140
16704819418
16704828817
16704840048
16704850790
16704862081
16704875814
16704885335
16704896871
16704906637
16704916707
16704927572
16704937642
16704944356
16704955770
16704967000
16704976888
16704986104
16704997213
16705005025
16705016195
16705025289
16705034322
16705044088
16705054463
16705063680
16705074666
16705084554
16705093709
16705101582
16705113667
16705122090
16705132344
16705142232
16705151326
16705163167
16705170857
16705181966
16705189717
16705201253
16705209798
16705221516
16705228352
16705239644
16705250020
16705255696
16705265339
16705272297
16705278767
16705285359
16705292134
16705300007
16705307454
16705315388
16705321370
16705328389
16705334980
16705341084
16705346882
16705353596
16705361897
16705367878
16705373982
16705379719
16705386250
16705393452
16705397968
16705407307
16705412678
16705419270
16705426289
16705432697
16705439289
16705444965
16705454731
16705459675
16705466206
16705473347
16705479206
16705484821
16705492023
16705500019
16705506916
16705512836
16705518452
16705524250
16705531574
16705540302
16705546406
16705554645
16705561603
16705566608
16705573261
16705580097
16705586872
16705593158
16705599567
16705604511
16705612445
16705618549
16705624225
16705632526
16705638446
16705645282
16705653278
16705658405
16705666583
16705673847
16705680988
16705689472
16705696552
16705704181
16705709491
16705717365
16705723285
16705733173
16705740314
16705745502
16705750140
16705755878
16705761066
16705765399
16705773456
16705780414
16705785480
16705790362
16705795245
16705800067
16705805194
16705811908
16705816546
16705823932
16705828692
16705835040
16705840167
16705846881
16705852923
16705859637
16705866046
16705871661
16705875750
16705880877
16705886004
16705891253
16705895465
16705902362
16705907306
16705911822
16705916278
16705922992
16705930499
16705934954
16705940142
16705947772
16705952899
16705957842
16705962420
16705967608
16705972369
16705976458
16705980731
16705988299
16705992083
16705997637
16706002886
16706007952
16706011858
16706017901
16706024249
16706030352
16706035113
16706041583
16706047686
16706052264
16706057330
16706060992
16706068194
16706072527
16706077349
16706081499
16706087359
16706091448
16706097735
16706102618
16706108355
16706113848
16706119158
16706122454
16706128557
16706133623
16706141253
16706146380
16706153093
16706158953
16706165545
16706170366
16706176836
16706181658
16706186480
16706192705
16706198687
16706203569
16706209856
16706216326
16706222002
16706226335
16706232073
16706237993
16706245195
16706251421
16706255266
16706263567
16706269182
16706274919
16706278703
16706285784
16706293474
16706298906
16706304643
16706310625
16706316972
16706323198
16706327898
16706334673
16706343828
16706348528
16706355119
16706359331
16706366472
16706371477
16706376970
16706386430
16706389055
16706400224
16706404985
16706412431
16706417314
16706424150
16706427751
16706436235
16706442399
16706447954
16706452409
16706457353
16706462480
16706466264
16706472978
16706477800
16706484208
16706489213
16706494950
16706499345
16706504716
16706509111
16706514360
16706518571
16706526506
16706531755
16706538407
16706542985
16706548173
16706553849
16706558122
16706564591
16706571488
16706576371
16706580766
16706587113
16706592301
16706598222
16706603043
16706607560
16706615373
16706620194
16706626115
16706630936
16706636857
16706643388
16706649796
16706654191
16706661332
16706668473
16706673173
16706678605
16706684464
16706690507
16706696671
16706702042
16706708695
16706714066
16706720048
16706724625
16706729813
16706737259
16706742081
16706746842
16706751236
16706759537
16706764176
16706770524
16706774979
16706781754
16706786515
16706793045
16706797379
16706803971
16706810257
16706814408
16706821244
16706825699
16706832901
16706838394
16706843338
16706850479
16706857498
16706864151
16706871536
16706879044
16706886002
16706893082
16706901138
16706909561
16706917862
16706923782
16706931900
16706939285
16706948380
16706953934
16706962540
16706967667
16706979813
16706994339
16707001663
16707009292
16707017166
16707026260
16707033157
16707047317
16707056167
16707063247
16707070327
16707075454
16707083511
16707092910
16707100357
16707106399
16707113296
16707120315
16707127761
16707136672
16707143325
16707153091
16707160415
16707168228
16707175430
16707183242
16707191116
16707198867
16707205703
16707216018
16707226577
16707237258
16707247512
16707256728
16707264480
16707274001
16707284072
16707290969
16707296950
16707302932
16707310134
16707315627
16707322585
16707329726
16707335830
16707341811
16707348281
16707354751
16707362563
16707371108
16707377761
16707384780
16707390822
16707396071
16707403273
16707410048
16707417983
16707425978
16707433058
16707440077
16707445204
16707453139
16707459853
16707468154
16707477492
16707484633
16707491896
16707499403
16707506056
16707517043
16707524611
16707532790
16707538222
16707547377
16707555678
16707564589
16707570875
16707579970
16707587172
16707595473
16707604567
16707611952
16707620802
16707626051
16707636610
16707644606
16707650526
16707661268
16707668837
16707678114
16707685987
16707694654
16707701796
16707709303
16707717726
16707725599
16707733839
16707739698
16707746717
16707752210
16707760389
16707766554
16707774061
16707781324
16707787672
16707794142
16707801649
16707809095
16707816602
16707823988
16707830091
16707838636
16707844801
16707853712
16707860364
16707868299
16707875135
16707883192
16707888380
16707900159
16707905469
16707912794
16707919752
16707926771
16707934705
16707940198
16707950086
16707958143
16707964307
16707972303
16707982984
16707988538
16707996595
16708005201
16708013440
16708021192
16708028028
16708035962
16708041577
16708049207
16708057996
16708066541
16708073865
16708081922
16708088757
16708096387
16708100537
16708111401
16708116956
16708125378
16708131116
16708137219
16708141553
16708146008
16708152234
16708155835
16708164319
16708169995
16708174023
16708180432
16708184155
16708190381
16708196850
16708203808
16708208996
16708215222
16708220166
16708225842
16708230969
16708237072
16708243969
16708249829
16708254773
16708261242
16708267346
16708271923
16708276623
16708284497
16708292248
16708297924
16708304455
16708311047
16708316418
16708321728
16708329296
16708333081
16708340100
16708345898
16708350170
16708355908
16708361157
16708364575
16708369641
16708375500
16708380749
16708385204
16708389782
16708394848
16708398693
16708403576
16708410351
16708414806
16708419872
16708425365
16708429394
16708434521
16708440929
16708445446
16708450695
16708457714
16708462109
16708467602
16708473522
16708479992
16708484997
16708492870
16708497265
16708502086
16708506664
16708512523
16708517467
16708523754
16708528698
16708534496
16708539501
16708546032
16708550426
16708555675
16708562145
16708567577
16708571788
16708578991
16708584179
16708589977
16708594677
16708601085
16708607738
16708612621
16708619762
16708626659
16708632396
16708638011
16708645275
16708650646
16708655101
16708661266
16708668346
16708674571
16708680614
16708685924
16708690318
16708696727
16708701305
16708707835
16708713695
16708721263
16708727855
16708732494
16708738902
16708744395
16708748302
16708755016
16708759532
16708767161
16708772227
16708778819
16708783336
16708788951
16708795299
16708799876
16708806651
16708810618
16708819285
16708823863
16708830455
16708835154
16708843211
16708847178
16708855235
16708861827
16708868907
16708876536
16708882579
16708888316
16708893687
16708899363
16708906810
16708912974
16708918589
16708923899
16708928904
16708934336
16708940013
16708945384
16708951121
16708957224
16708962657
16708968699
16708974192
16708979319
16708984690
16708989878
16708995677
16708999278
16709006113
16709011851
16709017100
16709022166
16709027659
16709032786
16709037119
16709042490
16709049937
16709055491
16709061289
16709067393
16709072214
16709077097
16709083994
16709089243
16709095835
16709101877
16709107371
16709112864
16709119578
16709123728
16709130564
16709135813
16709142222
16709147593
16709153513
16709158884
16709165110
16709171335
16709175791
16709180613
16709188852
16709193796
16709197947
16709206308
16709212534
16709217050
16709221140
16709228952
16709235544
16709240488
16709243784
16709254404
16709262399
16709270212
16709275766
16709285471
16709295664
16709304331
16709311288
16709318491
16709327036
16709333566
16709341135
16709350046
16709359567
16709366159
16709374521
16709380990
16709389291
16709395883
16709404245
16709411569
16709422799
16709428720
16709437631
16709445627
16709453561
16709461251
16709470712
16709480478
16709491769
16709500314
16709509042
16709515817
16709524606
16709531808
16709541818
16709555612
16709561349
16709569955
16709578500
16709585885
16709591805
16709602548
16709609200
16709618172
16709624825
16709632516
16709638985
16709646737
16709653390
16709666024
16709673775
16709681405
16709688912
16709695443
16709702828
16709710763
16709719430
16709727364
16709736336
16709744881
16709753365
16709761361
16709771248
16709777169
16709786934
16709796944
16709803231
16709811348
16709817330
16709826363
16709835518
16709843697
16709852303
16709860054
16709869087
16709876534
16709883858
16709893135
16709902229
16709909126
16709917183
16709924751
16709930672
16709940193
16709945259
16709954170
16709962837
16709970833
16709979500
16709985481
16709993965
16710000557
16710011116
16710019417
16710027534
16710036445
16710042671
16710050483
16710057197
16710068611
16710076057
16710083747
16710091438
16710098396
16710105720
16710114265
16710122444
16710132026
16710139350
16710146552
16710154060
16710162055
16710169257
16710177863
16710186652
16710195075
16710203681
16710211433
16710217292
16710226386
16710235480
16710244147
16710250373
16710261359
16710270209
16710280402
16710289496
16710297858
16710306037
16710313849
16710319831
16710327338
16710335151
16710341620
16710349921
16710357612
16710364569
16710370917
16710379523
16710386237
16710393378
16710401068
16710405585
16710415900
16710424506
16710430060
16710437750
16710445014
16710453070
16710458319
16710470038
16710477606
16710485846
16710493720
16710502020
16710509528
16710515570
16710525214
16710533575
16710541754
16710547919
16710553473
16710559210
16710564337
16710569708
16710576300
16710580633
16710586615
16710591498
16710598089
16710602911
16710610174
16710615057
16710621771
16710625677
16710630255
16710638861
16710648199
16710654486
16710659369
16710666082
16710670721
16710674627
16710681280
16710686590
16710690741
16710694281
16710702886
16710708319
16710713751
16710718328
16710725897
16710730230
16710736578
16710741155
16710749212
16710753546
16710759710
16710763860
16710770208
16710775152
16710780157
16710786871
16710792608
16710798345
16710804021
16710807867
16710814092
16710819769
16710824285
16710829412
16710837163
16710844060
16710853277
16710861639
16710867254
16710875371
16710882696
16710889776
16710896245
16710902593
16710907964
16710913823
16710920049
16710925847
16710931096
16710934942
16710940374
16710945012
16710951360
16710955938
16710960149
16710967107
16710971318
16710976384
16710980291
16710985784
16710990056
16710996770
16711001714
16711008855
16711013921
16711018804
16711023503
16711028874
16711034307
16711042363
16711047063
16711052800
16711057866
16711062688
16711069890
16711077153
16711083257
16711089177
16711093816
16711099980
16711107243
16711112981
16711119206
16711124455
16711130620
16711136113
16711142155
16711146733
16711153386
16711158940
16711164433
16711172246
16711175847
16711184819
16711191594
16711198308
16711202397
16711210148
16711216679
16711223149
16711229863
16711235600
16711242619
16711248600
16711252629
16711259221
16711264286
16711270329
16711276432
16711283390
16711288578
16711293034
16711298100
16711306279
16711312809
16711318241
16711322819
16711329045
16711333805
16711340336
16711345280
16711351017
16711358219
16711363896
16711368473
16711374271
16711381046
16711385990
16711390995
16711396122
16711404911
16711409977
16711418827
16711423222
16711428043
16711434452
16711440678
16711451603
16711458134
16711466190
16711472111
16711480717
16711485721
16711493351
16711500004
16711505314
16711510807
16711515201
16711521671
16711525028
16711532901
16711536564
16711545475
16711550419
16711555912
16711561222
16711566715
16711573062
16711578434
16711583683
16711590885
16711596317
16711601017
16711606204
16711611087
16711616519
16711623416
16711629154
16711634647
16711640628
16711650028
16711654849
16711660220
16711664798
16711671268
16711676456
16711682010
16711686588
16711691409
16711697574
16711703128
16711709110
16711718692
16711727542
16711736392
16711744022
16711750674
16711757388
16711766360
16711773440
16711780887
16711789004
16711796390
16711803653
16711811221
16711818850
16711825869
16711832522
16711838443
16711845828
16711853518
16711863406
16711872683
16711879763
16711888797
16711897341
16711904788
16711912356
16711919497
16711928225
16711935366
16711946047
16711950747
16711962161
16711968264
16711978274
16711986086
16711992190
16711999026
16712008974
16712013979
16712026919
16712034365
16712041872
16712049868
16712055788
16712065371
16712071108
16712079104
16712086428
16712095339
16712103396
16712114626
16712122988
16712130800
16712140627
16712148500
16712162233
16712171022
16712179628
16712189028
16712195864
16712205934
16712213991
16712219484
16712228395
16712234865
16712244264
16712253542
16712261904
16712270326
16712278200
16712287355
16712295046
16712302370
16712311464
16712319276
16712326906
16712333925
16712343812
16712350709
16712358644
16712362916
16712371156
16712377809
16712385316
16712389650
16712402223
16712410402
16712416810
16712426271
16712433046
16712442201
16712450685
16712458009
16712466798
16712473817
16712482667
16712489198
16712497132
16712507752
16712513429
16712522157
16712530763
16712538636
16712546388
16712554261
16712562745
16712570252
16712577027
16712585023
16712592896
16712600221
16712607545
16712617371
16712625062
16712633118
16712640626
16712648682
16712657227
16712663697
16712673951
16712681946
16712689149
16712697510
16712706055
16712713868
16712721680
16712731812
16712739685
16712747559
16712756775
16712765137
16712773377
16712782166
16712790467
16712798584
16712806824
16712813477
16712821839
16712833679
16712843018
16712854004
16712862732
16712871948
16712879578
16712887878
16712898254
16712905579
16712914124
16712921631
16712930664
16712937561
16712945007
16712951782
16712959473
16712968017
16712975708
16712983825
16712991211
16712997375
16713006042
16713013672
16713020202
16713025329
16713032409
16713037964
16713043762
16713049438
16713056335
16713061950
16713069274
16713075012
16713079406
16713082946
16713088378
16713093322
16713097106
16713102905
16713107788
16713114685
16713119262
16713124877
16713129577
16713134582
16713138854
16713145934
16713151306
16713157348
16713162902
16713167907
16713171691
16713177367
16713183715
16713190490
16713195800
16713200744
16713206481
16713211181
16713217467
16713222655
16713229430
16713234496
16713238708
16713246642
16713253356
16713260497
16713266295
16713272033
16713278563
16713283507
16713289428
16713294860
16713300597
16713305724
16713311278
16713316161
16713323180
16713327391
16713334411
16713339537
16713345153
16713351012
16713356566
16713362181
16713369872
16713375365
16713381346
16713386473
16713392821
16713398375
16713404296
16713409362
16713416503
16713424376
16713429503
16713434813
16713442992
16713448729
16713455565
16713462584
16713470580
16713477232
16713482359
16713490660
16713495055
16713498839
16713506834
16713514037
16713518675
16713524657
16713528685
16713534727
16713539122
16713545225
16713550841
16713557310
16713562132
16713565916
16713572325
16713577696
16713583006
16713588560
16713593199
16713599547
16713606321
16713611204
16713616942
16713622496
16713628111
16713634337
16713638487
16713644224
16713651976
16713657408
16713663755
16713668760
16713674620
16713679136
16713686460
16713691404
16713698667
16713705625
16713710874
16713715330
16713721617
16713726621
16713732420
16713738828
16713743284
16713750608
16713755369
16713760984
16713766477
16713772093
16713777586
16713783323
16713788389
16713795591
16713801572
16713811033
16713816404
16713822568
16713827817
16713833616
16713837949
16713846311
16713851621
16713856748
16713861204
16713867673
16713872068
16713876768
16713884946
16713891782
16713898679
16713903074
16713909849
16713913938
16713920102
16713926389
16713933591
16713938169
16713946653
16713950986
16713959043
16713962827
16713970273
16713975644
16713981809
16713988889
16713995053
16714000485
16714005551
16714013852
16714018369
16714026059
16714031430
16714038632
16714046811
16714053403
16714057858
16714065183
16714072629
16714080624
16714088681
16714095090
16714101437
16714108639
16714113156
16714118954
16714124325
16714128903
16714134091
16714140256
16714146481
16714151913
16714156918
16714162655
16714166989
16714172848
16714178036
16714182736
16714192135
16714198605
16714205380
16714216000
16714223690
16714233700
16714239682
16714246762
16714256832
16714263974
16714274350
16714282101
16714289913
16714297543
16714307247
16714315182
16714324581
16714332577
16714339840
16714347958
16714357235
16714365597
16714373409
16714380734
16714390560
16714398861
16714405270
16714411861
16714419430
16714425899
16714433529
16714442989
16714451412
16714458553
16714467586
16714474849
16714482967
16714489010
16714497371
16714503292
16714512630
16714519222
16714528316
16714534786
16714542965
16714551387
16714557735
16714567745
16714574214
16714584774
16714590816
16714600582
16714606258
16714615352
16714621517
16714630245
16714638423
16714646968
16714652095
16714663387
16714668025
16714677425
16714684810
16714692622
16714701533
16714709468
16714717647
16714725703
16714733699
16714741084
16714748286
16714756770
16714763667
16714772395
16714779597
16714789851
16714796870
16714804927
16714812007
16714820979
16714829829
16714838435
16714846675
16714855769
16714862849
16714871821
16714878413
16714886225
16714893122
16714903559
16714911128
16714918086
16714925471
16714932307
16714938410
16714946162
16714952570
16714960200
16714967768
16714976557
16714983515
16714989619
16714995722
16715003901
16715011164
16715020747
16715028437
16715034479
16715040339
16715049494
16715056208
16715063959
16715070429
16715078058
16715085016
16715093317
16715099360
16715107416
16715113520
16715120417
16715129633
16715139460
16715146662
16715154108
16715160395
16715168451
16715174555
16715182428
16715190851
16715200800
16715207208
16715215570
16715223749
16715230036
16715238947
16715244684
16715252557
16715261163
16715270380
16715276666
16715285272
16715292657
16715299738
16715307733
16715316034
16715321161
16715330804
16715339105
16715346857
16715354120
16715362420
16715369745
16715377191
16715385370
16715395196
16715400750
16715409478
16715417840
16715425653
16715431329
16715442193
16715451654
16715457574
16715466851
16715472650
16715481561
16715487420
16715495721
16715504144
16715512750
16715519708
16715528192
16715534905
16715541558
16715547967
16715554315
16715560662
16715567925
16715573663
16715581292
16715588799
16715593804
16715600701
16715608269
16715614007
16715619073
16715624932
16715628655
16715634209
16715639336
16715644585
16715650872
16715654839
16715659844
16715665398
16715670464
16715675286
16715680657
16715685723
16715691948
16715697442
16715702019
16715707146
16715712029
16715717217
16715723259
16715729241
16715733941
16715740105
16715744683
16715751213
16715755791
16715759575
16715766960
16715773613
16715780449
16715786431
16715791435
16715796807
16715801872
16715807366
16715812737
16715819634
16715824089
16715829949
16715836174
16715842583
16715848320
16715855278
16715863091
16715869804
16715875908
16715880974
16715887138
16715893364
16715898247
16715904045
16715909782
16715916557
16715922539
16715928154
16715932060
16715940056
16715944694
16715950432
16715955192
16715962944
16715968437
16715974418
16715978996
16715986015
16715990898
16715997368
16716002433
16716008964
16716015617
16716020012
16716026237
16716031791
16716037651
16716042472
16716049675
16716053642
16716062858
16716067436
16716073844
16716078117
16716084709
16716090751
16716096794
16716105277
16716112235
16716119071
16716125114
16716132499
16716138236
16716145866
16716153495
16716161918
16716169669
16716176322
16716181266
16716188956
16716192802
16716199393
16716203422
16716210502
16716215934
16716221976
16716225883
16716231010
16716236503
16716243949
16716248405
16716256522
16716261222
16716267447
16716273734
16716278129
16716283194
16716289298
16716295585
16716301932
16716306083
16716312735
16716319083
16716323417
16716328910
16716334342
16716338614
16716344474
16716350333
16716356131
16716360221
16716367118
16716373404
16716377677
16716385062
16716393607
16716398612
16716405448
16716409476
16716415762
16716421256
16716427176
16716431021
16716439322
16716445487
16716450613
16716455496
16716461417
16716465872
16716470633
16716474783
16716484488
16716489859
16716495901
16716499930
16716505545
16716509940
16716516531
16716520804
16716527457
16716531851
16716537894
16716542166
16716548331
16716554129
16716559195
16716565237
16716571402
16716576162
16716581595
16716586966
16716591543
16716597952
16716603689
16716608572
16716617971
16716623465
16716628836
16716632803
16716639578
16716644400
16716650137
16716656546
16716663687
16716668447
16716675283
16716680410
16716686636
16716693289
16716704153
16716711660
16716722646
16716732717
16716742605
16716753530
16716760305
16716770010
16716780325
16716789968
16716798696
16716806020
16716812856
16716821401
16716829336
16716837148
16716843618
16716852773
16716861440
16716867177
16716875478
16716883352
16716891347
16716899221
16716906545
16716914602
16716922292
16716930532
16716937001
16716942617
16716952199
16716957997
16716969228
16716976247
16716983937
16716992543
16716999867
16717006337
16717014760
16717021840
16717030934
16717036366
16717047109
16717055898
16717061452
16717069325
16717077992
16717085988
16717094044
16717101857
16717109242
16717117299
16717124562
16717131886
16717141713
16717148732
16717157277
16717164418
16717171803
16717178883
16717187306
16717195912
16717206166
16717213429
16717221241
16717228932
16717236500
16717245228
16717254505
16717260792
16717268849
16717276783
16717285328
16717292225
16717301014
16717306873
16717315724
16717323902
16717329395
16717338184
16717344105
16717353504
16717361378
16717368946
16717377003
16717386890
16717393116
16717402454
16717409901
16717416492
16717424000
16717432300
16717437672
16717448414
16717456836
16717464344
16717471424
16717481861
16717489612
16717496204
16717508594
16717516712
16717528003
16717536609
16717543750
16717551441
16717558460
16717566822
16717575794
16717584522
16717589832
16717597461
16717604541
16717612781
16717618396
16717628894
16717635181
16717641528
16717649768
16717656665
16717663806
16717671741
16717679370
16717686938
16717694568
16717701770
16717709399
16717716662
16717724292
16717729602
16717738940
16717747973
16717755847
16717762683
16717769336
16717776294
16717783496
16717791980
16717801135
16717808520
16717817370
16717824939
16717829089
16717838427
16717848986
16717858020
16717867419
16717874499
16717884448
16717892871
16717901721
16717909838
16717918810
16717927111
16717933581
16717940417
16717947436
16717956225
16717965990
16717974718
16717982287
16717991198
16717999132
16718003893
16718011095
16718016283
16718023546
16718029345
16718033678
16718040514
16718047472
16718054369
16718062121
16718066454
16718072802
16718078661
16718084826
16718089281
16718093981
16718101061
16718109118
16718114611
16718121386
16718129076
16718135424
16718141649
16718151659
16718160326
16718166124
16718172228
16718177782
16718183336
16718188707
16718195177
16718200914
16718206163
16718211900
16718216966
16718221971
16718227159
16718232897
16718239855
16718243883
16718249010
16718254320
16718259325
16718263109
16718268358
16718273912
16718280931
16718285631
16718290697
16718294969
16718299852
16718306016
16718311449
16718315965
16718323167
16718329149
16718335863
16718342454
16718347337
16718351732
16718358507
16718363572
16718372361
16718377305
16718383592
16718387742
16718395433
16718400560
16718407762
16718412217
16718416124
16718425584
16718430223
16718436937
16718441636
16718447923
16718453477
16718459031
16718466600
16718474595
16718480760
16718486558
16718491685
16718498033
16718503037
16718508775
16718513963
16718520554
16718527329
16718532578
16718537522
16718545274
16718549607
16718555711
16718560227
16718567979
16718573594
16718581589
16718588792
16718594224
16718600754
16718604661
16718611680
16718617783
16718624009
16718628281
16718634141
16718637681
16718644822
16718651047
16718658188
16718663621
16718671799
16718677109
16718682847
16718688218
16718694260
16718701584
16718707261
16718712876
16718720749
16718726548
16718733261
16718739731
16718746384
16718751023
16718757065
16718763718
16718769272
16718776108
16718783005
16718787583
16718795456
16718800888
16718806320
16718811875
16718819748
16718824387
16718829880
16718834641
16718840195
16718844162
16718850510
16718854843
16718860703
16718865463
16718870041
16718874313
16718879684
16718885544
16718890549
16718896957
16718904465
16718909653
16718914535
16718918503
16718924850
16718929855
16718936569
16718940597
16718946823
16718952499
16718957321
16718961410
16718967514
16718973800
16718978927
16718985519
16718989853
16718996811
16719000534
16719007248
16719012924
16719017074
16719022567
16719033187
16719039047
16719044784
16719051010
16719057296
16719062423
16719070724
16719076766
16719082626
16719089401
16719097091
16719101425
16719107772
16719112472
16719118209
16719123946
16719130782
16719139938
16719144698
16719153243
16719157333
16719162276
16719167220
16719177352
16719185470
16719193709
16719201278
16719208846
16719216353
16719225326
16719230636
16719239913
16719245955
16719256087
16719261641
16719271468
16719279891
16719285628
16719293624
16719301436
16719311751
16719318404
16719325850
16719334212
16719341597
16719348311
16719356795
16719365035
16719376082
16719385176
16719396468
16719402388
16719412581
16719420577
16719428938
16719438887
16719447554
16719457076
16719463728
16719471114
16719478011
16719485823
16719491865
16719500838
16719509016
16719516402
16719523665
16719529158
16719538435
16719544172
16719556624
16719563154
16719571028
16719577742
16719587385
16719594282
16719602339
16719610701
16719618086
16719626875
16719635115
16719642805
16719649214
16719656050
16719666120
16719674970
16719680464
16719690534
16719696821
16719704878
16719712812
16719719282
16719728254
16719735822
16719744306
16719753217
16719758833
16719766767
16719775434
16719785078
16719795454
16719802900
16719809919
16719817304
16719824567
16719832380
16719842023
16719848981
16719856000
16719863080
16719872052
16719880292
16719887311
16719896466
16719903363
16719911664
16719920697
16719926801
16719933637
16719941388
16719950421
16719958966
16719968976
16719975263
16719982831
16719991803
16719997724
16720004804
16720013593
16720024335
16720030011
16720037763
16720045575
16720052167
16720060895
16720069623
16720077191
16720084393
16720093976
16720104413
16720113263
16720119610
16720130902
16720139020
16720147748
16720154706
16720164593
16720173016
16720180035
16720191693
16720197979
16720206280
16720214154
16720222699
16720228680
16720234051
16720243939
16720254742
16720261151
16720269879
16720275799
16720284283
16720291058
16720298138
16720305279
16720312420
16720322796
16720328716
16720336102
16720344036
16720351666
16720359356
16720366741
16720375469
16720382915
16720390667
16720397320
16720404766
16720411663
16720422466
16720430523
16720437908
16720446270
16720453899
16720460491
16720466350
16720474834
16720480449
16720486309
16720489971
16720497539
16720503521
16720508281
16720514568
16720520244
16720526775
16720531475
16720536663
16720542278
16720546611
16720555217
16720562236
16720567302
16720572429
16720578899
16720582805
16720589336
16720595073
16720600261
16720607890
16720613200
16720618083
16720623821
16720629253
16720635478
16720642070
16720646892
16720652812
16720657756
16720662822
16720668437
16720673747
16720681193
16720688396
16720694011
16720699260
16720704631
16720710368
16720718120
16720725383
16720734782
16720740031
16720746562
16720752238
16720759440
16720766154
16720773234
16720780314
16720785685
16720789531
16720795939
16720800517
16720805888
16720812663
16720818888
16720823710
16720829814
16720834941
16720839946
16720846598
16720851359
16720858805
16720864543
16720869731
16720875651
16720881510
16720887248
16720895060
16720899516
16720906657
16720912455
16720918131
16720922587
16720929423
16720935038
16720940470
16720944376
16720951701
16720956278
16720963724
16720967814
16720978007
16720984537
16720989786
16720999430
16721006266
16721011576
16721016398
16721023661
16721029581
16721034769
16721039469
16721049540
16721054911
16721060892
16721065348
16721071146
16721076944
16721082499
16721088358
16721095316
16721101603
16721107279
16721113138
16721117105
16721124308
16721129251
16721135172
16721140787
16721148233
16721153787
16721160807
16721166483
16721171671
16721178690
16721184122
16721188516
16721197672
16721202310
16721208292
16721212808
16721219644
16721226114
16721230264
16721236551
16721241373
16721248087
16721256876
16721262552
16721267313
16721273904
16721278665
16721288675
16721294534
16721301675
16721309305
16721314065
16721319925
16721327737
16721333902
16721340494
16721345254
16721352701
16721362588
16721367959
16721373941
16721377298
16721383828
16721387429
16721396035
16721402017
16721406778
16721411660
16721415383
16721420816
16721425759
16721432290
16721436624
16721442361
16721446267
16721453286
16721457742
16721463235
16721469338
16721476174
16721481851
16721487527
16721492104
16721498086
16721502969
16721509255
16721514260
16721521645
16721525246
16721531411
16721535989
16721542397
16721547585
16721553017
16721559121
16721564858
16721570168
16721575967
16721580666
16721586953
16721591592
16721598183
16721603005
16721611855
16721619485
16721627175
16721635109
16721641152
16721647744
16721655861
16721663186
16721673073
16721680520
16721689370
16721695900
16721704750
16721711403
16721719033
16721725624
16721736428
16721745644
16721752114
16721761086
16721767067
16721775002
16721780739
16721791054
16721800026
16721806374
16721814858
16721821510
16721829323
16721836647
16721844154
16721852272
16721858009
16721868324
16721876381
16721884193
16721892311
16721899086
16721906593
16721913124
16721920692
16721929725
16721937233
16721946449
16721953407
16721959999
16721968361
16721974891
16721984352
16721993385
16722000831
16722009681
16722016334
16722022254
16722031959
16722042091
16722051185
16722060890
16722067726
16722075721
16722083839
16722089454
16722099281
16722106239
16722113868
16722122779
16722129005
16722134681
16722143958
16722150245
16722159888
16722165443
16722174232
16722179725
16722191444
16722199622
16722206702
16722213477
16722222571
16722229163
16722237525
16722245032
16722255164
16722260413
16722269385
16722277869
16722285193
16722291785
16722299292
16722307959
16722316809
16722323462
16722332373
16722338416
16722346900
16722353552
16722361426
16722369300
16722375586
16722384802
16722390540
16722399390
16722407691
16722414160
16722421668
16722430396
16722438513
16722444983
16722455054
16722462073
16722469519
16722475745
16722484473
16722491553
16722500647
16722508398
16722515295
16722522253
16722530676
16722538489
16722545019
16722553137
16722559179
16722568884
16722575415
16722583349
16722591223
16722599279
16722605261
16722613684
16722622290
16722632788
16722639440
16722647009
16722655432
16722661108
16722669836
16722677953
16722684667
16722691808
16722700720
16722707311
16722715368
16722722143
16722730932
16722737768
16722746374
16722753881
16722761755
16722768407
16722777929
16722784154
16722793066
16722799596
16722808141
16722817052
16722825597
16722833043
16722842260
16722850805
16722860326
16722867040
16722876073
16722884679
16722892736
16722902684
16722908483
16722916478
16722923925
16722932836
16722939000
16722948155
16722953588
16722964208
16722969396
16722976232
16722981297
16722988316
16722992833
16722997533
16723003575
16723009801
16723014684
16723019627
16723024632
16723030492
16723035435
16723040868
16723046300
16723054845
16723060887
16723065587
16723070714
16723078099
16723081639
16723089085
16723095433
16723101048
16723107335
16723114110
16723118870
16723125767
16723130467
16723137730
16723143223
16723151036
16723155858
16723161351
16723165745
16723173069
16723177647
16723184056
16723188939
16723195652
16723199986
16723206272
16723212620
16723218907
16723223728
16723228672
16723237400
16723242222
16723246433
16723254978
16723259800
16723266758
16723271275
16723278782
16723285740
16723292088
16723297947
16723302403
16723308262
16723312840
16723318943
16723324680
16723331699
16723338657
16723343906
16723349216
16723354526
16723360569
16723366184
16723370762
16723378757
16723384251
16723389683
16723394749
16723399937
16723405369
16723410801
16723416294
16723424473
16723433262
16723439670
16723446689
16723453952
16723460483
16723468845
16723475010
16723481784
16723487766
16723491367
16723502048
16723508823
16723514316
16723519992
16723524448
16723530063
16723535434
16723540927
16723546359
16723550510
16723556980
16723562412
16723570712
16723576145
16723581821
16723586154
16723593295
16723600620
16723605685
16723614047
16723618564
16723626254
16723631992
16723638950
16723645175
16723652133
16723659274
16723665195
16723670688
16723678683
16723684238
16723690097
16723695651
16723702609
16723709018
16723713717
16723720248
16723727267
16723732882
16723739413
16723746371
16723750277
16723758212
16723764438
16723770358
16723776400
16723781771
16723786959
16723794650
16723800692
16723805758
16723814975
16723821566
16723826022
16723832675
16723839694
16723846652
16723853060
16723859164
16723866427
16723872836
16723878939
16723885836
16723891696
16723899264
16723905550
16723912569
16723922030
16723928378
16723936251
16723942965
16723951205
16723958529
16723968905
16723977328
16723986300
16723994234
16724002962
16724013582
16724020052
16724030184
16724037203
16724046969
16724055452
16724062166
16724071199
16724083651
16724091768
16724102205
16724111666
16724121736
16724132967
16724139742
16724152193
16724162630
16724171419
16724179476
16724188753
16724198824
16724208223
16724216707
16724222444
16724234102
16724240266
16724249422
16724257173
16724269563
16724276948
16724287263
16724293672
16724302705
16724310518
16724316804
16724329316
16724339082
16724350007
16724356843
16724370515
16724381684
16724390901
16724399446
16724407869
16724424043
16724428437
16724446137
16724455537
16724467561
16724479035
16724490998
16724498628
16724511567
16724525422
16724536164
16724548005
16724559113
16724568513
16724583649
16724593720
16724602631
16724614777
16724626374
16724635102
16724647675
16724658905
16724668854
16724683564
16724691498
16724705231
16724718170
16724729706
16724741059
16724752289
16724763214
16724772492
16724786163
16724794037
16724807709
16724817902
16724829559
16724841278
16724850677
16724860077
16724874054
16724883758
16724895721
16724908417
16724916351
16724931427
16724939850
16724956451
16724967804
16724979278
16724989715
16724998016
16725009918
16725018280
16725029632
16725042755
16725053253
16725065032
16725074798
16725084075
16725095672
16725104949
16725115203
16725123687
16725135039
16725146758
16725156097
16725165496
16725175078
16725182403
16725191131
16725197173
16725208526
16725216765
16725226165
16725233306
16725242644
16725250213
16725260100
16725267119
16725280669
16725292510
16725298308
16725306365
16725312529
16725321196
16725327971
16725337309
16725344634
16725352446
16725359465
16725366728
16725373747
16725381255
16725390959
16725396880
16725405180
16725413481
16725419951
16725427885
16725434843
16725443510
16725451811
16725461394
16725469450
16725476774
16725487334
16725495390
16725503203
16725512358
16725519255
16725528227
16725536528
16725546171
16725551115
16725560942
16725570341
16725576628
16725586271
16725595243
16725603971
16725610502
16725620512
16725628691
16725636625
16725644377
16725652921
16725659879
16725669035
16725678739
16725685331
16725693571
16725702909
16725709257
16725717802
16725727689
16725734403
16725743192
16725751798
16725759977
16725767667
16725775053
16725786771
16725793363
16725800504
16725806669
16725817106
16725822599
16725833463
16725841520
16725850675
16725858182
16725863553
16725869474
16725873685
16725879178
16725885892
16725891873
16725896756
16725903043
16725908475
16725916410
16725921903
16725930814
16725934171
16725942655
16725947721
16725954129
16725959866
16725965543
16725969876
16725976651
16725984280
16725989957
16725994717
16725999905
16726005154
16726010709
16726018216
16726026456
16726031155
16726037137
16726042813
16726049039
16726054349
16726060696
16726065701
16726069607
16726077420
16726081631
16726089688
16726095547
16726101651
16726106045
16726113736
16726117825
16726125454
16726132046
16726138394
16726142849
16726150723
16726154385
16726161709
16726169705
16726176175
16726181973
16726187344
16726192227
16726198025
16726205471
16726211087
16726215969
16726219937
16726229397
16726235928
16726241604
16726248440
16726254360
16726258206
16726266262
16726270107
16726278835
16726283596
16726290188
16726295620
16726302639
16726307522
16726311916
16726319729
16726325405
16726332607
16726337185
16726343532
16726347683
16726355007
16726360866
16726367946
16726374233
16726383022
16726389187
16726394436
16726400234
16726406765
16726411953
16726418789
16726424526
16726430813
16726437221
16726445705
16726450100
16726457912
16726463955
16726472316
16726480068
16726486049
16726492214
16726499660
16726505825
16726512783
16726519191
16726526882
16726534633
16726543666
16726551357
16726557521
16726564967
16726574550
16726579860
16726586696
16726594814
16726600917
16726608485
16726614772
16726620876
16726626369
16726632350
16726638942
16726644069
16726650783
16726656764
16726662685
16726667934
16726674098
16726678432
16726686610
16726692042
16726698817
16726704188
16726712001
16726717799
16726723048
16726728541
16726733729
16726738185
16726746180
16726752101
16726758570
16726762965
16726769984
16726777064
16726784205
16726791224
16726796473
16726804469
16726810084
16726816554
16726823084
16726828639
16726836207
16726841090
16726848475
16726856226
16726863246
16726869410
16726874720
16726881129
16726890894
16726896143
16726901453
16726909571
16726914942
16726920252
16726927393
16726932947
16726940028
16726946070
16726953577
16726960535
16726967005
16726975306
16726981043
16726987635
16726993311
16726999598
16727005335
16727012476
16727018702
16727029139
16727033838
16727042627
16727048975
16727054529
16727060144
16727068933
16727075159
16727082361
16727087793
16727095484
16727102259
16727110315
16727115808
16727124780
16727132288
16727140772
16727145410
16727156641
16727162256
16727171838
16727181055
16727188013
16727199548
16727206812
16727219446
16727226831
16727237207
16727242944
16727253015
16727263757
16727270654
16727279626
16727288904
16727295740
16727303247
16727310510
16727317895
16727326562
16727336816
16727343957
16727350732
16727356103
16727365319
16727370752
16727379724
16727385644
16727396203
16727403344
16727411767
16727418542
16727429040
16727435937
16727444726
16727452661
16727462548
16727470178
16727477868
16727485131
16727492089
16727499474
16727507592
16727515404
16727523949
16727528832
16727540490
16727548730
16727555627
16727564721
16727572411
16727581994
16727589440
16727596886
16727607018
16727615746
16727624108
16727633446
16727641442
16727646752
16727656884
16727666832
16727674584
16727682946
16727690575
16727698693
16727706749
16727713646
16727722801
16727730980
16727739952
16727747093
16727755943
16727766808
16727773766
16727782494
16727791161
16727799461
16727807579
16727816124
16727824486
16727831627
16727841270
16727848717
16727855797
16727864708
16727875145
16727885399
16727890037
16727899742
16727907066
16727915611
16727921898
16727935020
16727945640
16727953636
16727964012
16727971519
16727979820
16727990501
16727999595
16728007225
16728016258
16728023948
16728032127
16728041038
16728047569
16728055869
16728063438
16728071189
16728078452
16728084617
16728094077
16728101218
16728107627
16728121238
16728130942
16728138633
16728146018
16728154258
16728163535
16728171775
16728179526
16728186973
16728195701
16728206809
16728213523
16728220176
16728228537
16728236655
16728245444
16728252951
16728261985
16728271140
16728278525
16728285971
16728293357
16728302695
16728308921
16728319785
16728327475
16728334006
16728344870
16728352133
16728361228
16728369101
16728380881
16728389059
16728397299
16728405234
16728412070
16728418967
16728425009
16728432150
16728438620
16728443503
16728450217
16728456320
16728463461
16728469076
16728475241
16728480490
16728487204
16728492636
16728499411
16728505148
16728511129
16728516073
16728522238
16728527182
16728532675
16728538107
16728543478
16728548117
16728555746
16728562399
16728567953
16728573019
16728580343
16728586874
16728592489
16728599447
16728611349
16728632955
16728641744
16728653646
16728663168
16728671957
16728681600
16728690145
16728698751
16728704794
16728710531
16728714681
16728719991
16728724325
16728729940
16728735128
16728741231
16728746480
16728751424
16728756917
16728762655
16728769735
16728775289
16728780538
16728785848
16728790120
16728797262
16728803121
16728808675
16728813985
16728821553
16728826741
16728832601
16728838460
16728845174
16728849813
16728855489
16728859700
16728865865
16728870748
16728878316
16728883199
16728889913
16728894368
16728898519
16728905721
16728911336
16728918477
16728924336
16728928914
16728932759
16728939290
16728943379
16728949300
16728956990
16728963643
16728969808
16728974568
16728980855
16728986714
16728992879
16728999043
16729004720
16729010518
16729015889
16729022603
16729029011
16729034688
16729039265
16729045857
16729051167
16729058064
16729064168
16729069478
16729075886
16729081013
16729087666
16729094136
16729099751
16729106404
16729111592
16729116169
16729125081
16729131733
16729136738
16729143269
16729147602
16729155232
16729160237
16729168476
16729173603
16729180195
16729184956
16729191059
16729196064
16729203388
16729209431
16729217549
16729222614
16729231404
16729237385
16729244831
16729250385
16729260395
16729264057
16729271259
16729276814
16729282185
16729285969
16729293659
16729300190
16729304401
16729309956
16729315632
16729320148
16729326130
16729329548
16729336079
16729342609
16729348041
16729354267
16729360493
16729366230
16729371662
16729376972
16729383686
16729390278
16729396259
16729401996
16729408161
16729413410
16729419208
16729424518
16729429889
16729436298
16729442951
16729447773
16729454242
16729459491
16729466449
16729472370
16729478168
16729482440
16729488788
16729496784
16729502460
16729509235
16729515033
16729521259
16729526691
16729533344
16729537921
16729546527
16729552142
16729558246
16729563007
16729568256
16729575885
16729581928
16729587665
16729592242
16729599567
16729605121
16729610492
16729614459
16729619708
16729625384
16729630206
16729635882
16729642963
16729649615
16729654559
16729661761
16729667132
16729674884
16729681537
16729688067
16729694720
16729700946
16729706561
16729712420
16729718707
16729723651
16729730975
16729736102
16729745684
16729751056
16729759967
16729766986
16729775653
16729780169
16729789508
16729796343
16729804583
16729814410
16729821978
16729831866
16729840228
16729847918
16729857684
16729870257
16729878985
16729889422
16729901141
16729910479
16729918108
16729926348
16729935381
16729945696
16729954851
16729964007
16729970965
16729981157
16729988238
16729994829
16730002398
16730012163
16730019487
16730029680
16730037188
16730047075
16730052629
16730061907
16730070269
16730077410
16730083574
16730089556
16730100908
16730107805
16730116289
16730120928
16730130205
16730138994
16730147539
16730155657
16730166399
16730174028
16730183366
16730194353
16730199846
16730210100
16730218828
16730227067
16730235368
16730244523
16730252275
16730263139
16730270952
16730279374
16730287126
16730294816
16730304277
16730311662
16730318986
16730329484
16730336686
16730346147
16730353471
16730361283
16730368547
16730377275
16730384782
16730394486
16730402482
16730412248
16730419938
16730428056
16730436173
16730442887
16730449784
16730458268
16730467545
16730474809
16730482987
16730491776
16730498368
16730507645
16730515702
16730522660
16730534196
16730540909
16730549576
16730558732
16730566422
16730573685
16730584305
16730592789
16730599991
16730609574
16730618119
16730628189
16730636917
16730643998
16730653214
16730660660
16730670548
16730680191
16730688980
16730697525
16730705338
16730712906
16730721024
16730734696
16730741898
16730752030
16730758316
16730768326
16730777115
16730784073
16730793716
16730806473
16730817886
16730824905
16730834122
16730845291
16730853226
16730862564
16730872452
16730880081
16730893692
16730901443
16730912368
16730919693
16730928482
16730933792
16730941299
16730946548
16730955093
16730962051
16730966812
16730971939
16730977798
16730983291
16730989089
16730994094
16731001663
16731008315
16731013626
16731019729
16731023940
16731030715
16731036636
16731043166
16731048415
16731056228
16731062820
16731067825
16731073867
16731079482
16731085647
16731091323
16731097549
16731102981
16731108901
16731115127
16731120742
16731126296
16731132583
16731137160
16731142592
16731151992
16731155776
16731163039
16731168044
16731174453
16731179946
16731184768
16731191420
16731197341
16731202651
16731209304
16731214675
16731220900
16731227187
16731232558
16731237502
16731244826
16731251540
16731256423
16731260939
16731267470
16731271987
16731278334
16731282607
16731290724
16731297743
16731303542
16731308791
16731313429
16731319289
16731325636
16731332472
16731338576
16731345595
16731350234
16731356703
16731362074
16731368605
16731373061
16731381056
16731388869
16731393996
16731400954
16731406691
16731411269
16731417494
16731423537
16731430678
16731435560
16731441603
16731447523
16731453444
16731460524
16731466078
16731475294
16731484205
16731489821
16731494215
16731501844
16731509291
16731515638
16731521193
16731527418
16731533461
16731539747
16731544813
16731549391
16731555799
16731561903
16731567335
16731571546
16731579908
16731585829
16731591993
16731596327
16731603102
16731607252
16731613111
16731617567
16731625684
16731631117
16731637525
16731642591
16731648878
16731653394
16731657484
16731664869
16731668653
16731677747
16731683912
16731690321
16731694349
16731702161
16731707777
16731712537
16731721204
16731726697
16731732923
16731739454
16731745252
16731750135
16731755079
16731761426
16731767347
16731773877
16731779004
16731785413
16731793348
16731798780
16731803113
16731811170
16731817090
16731822522
16731830030
16731834851
16731841748
16731847974
16731854261
16731858350
16731865064
16731869580
16731877149
16731882764
16731888562
16731893323
16731899976
16731905469
16731911267
16731914990
16731923718
16731928357
16731933545
16731939099
16731946362
16731951489
16731958569
16731963818
16731970471
16731975842
16731980969
16731987317
16731992749
16731997510
16732004712
16732009289
16732016370
16732022717
16732028577
16732033703
16732038586
16732046826
16732051770
16732058301
16732066052
16732072888
16732080700
16732086804
16732090893
16732103589
16732108838
16732116711
16732125927
16732130810
16732140454
16732151013
16732160229
16732168774
16732176586
16732184460
16732194226
16732200939
16732208813
16732219311
16732228161
16732234875
16732244152
16732250683
16732258434
16732266125
16732273571
16732282909
16732290539
16732298717
16732306347
16732314892
16732322948
16732331615
16732339855
16732347729
16732356762
16732365062
16732373607
16732381725
16732389415
16732397594
16732406078
16732414135
16732421581
16732430919
16732437389
16732446544
16732454113
16732464672
16732472179
16732480907
16732489391
16732498912
16732507274
16732513011
16732522106
16732532176
16732538768
16732547618
16732557384
16732564342
16732572215
16732579662
16732588512
16732597118
16732605357
16732612132
16732621837
16732629344
16732637340
16732646190
16732654979
16732664317
16732671702
16732678843
16732686473
16732695384
16732706248
16732712413
16732721568
16732729136
16732738658
16732744883
16732755625
16732766612
16732773326
16732783641
16732791087
16732800303
16732808055
16732818369
16732826243
16732834483
16732841990
16732850962
16732857676
16732864024
16732871836
16732881235
16732889841
16732898203
16732905955
16732914622
16732921397
16732927866
16732935801
16732944529
16732951731
16732958872
16732970347
16732979319
16732986338
16732994394
16733001474
16733009897
16733018198
16733026987
16733034006
16733042246
16733051340
16733058969
16733066477
16733073740
16733082407
16733089365
16733097849
16733106699
16733116220
16733124338
16733133188
16733138620
16733148142
16733154733
16733163034
16733172495
16733180734
16733188913
16733197397
16733205514
16733216440
16733226510
16733235177
16733242380
16733251718
16733258127
16733264718
16733274545
16733281991
16733290353
16733298227
16733307443
16733315500
16733324899
16733330575
16733340341
16733346139
16733355294
16733363900
16733373056
16733380685
16733389169
16733396066
16733404428
16733411508
16733420113
16733429208
16733435861
16733445260
16733453683
16733461007
16733465951
16733470834
16733477670
16733483041
16733487252
16733490731
16733496163
16733499642
16733505501
16733511483
16733518990
16733524178
16733529732
16733534310
16733541268
16733546639
16733552193
16733557137
16733562447
16733570565
16733573861
16733581002
16733584969
16733589974
16733595894
16733600899
16733605477
16733609749
16733614266
16733618782
16733623665
16733627144
16733634346
16733639290
16733643746
16733648201
16733652840
16733657234
16733661873
16733668587
16733672737
16733677437
16733682808
16733686531
16733690315
16733696175
16733702095
16733707955
16733712593
16733717537
16733721871
16733727486
16733730904
16733735970
16733743050
16733746712
16733751595
16733756722
16733761848
16733766243
16733772346
16733776985
16733783150
16733788643
16733794563
16733800117
16733804451
16733810554
16733814949
16733822273
16733827156
16733833504
16733838386
16733842537
16733847236
16733852974
16733858772
16733864265
16733870369
16733874336
16733879402
16733884346
16733890205
16733894478
16733901680
16733907600
16733912971
16733919014
16733924018
16733930854
16733935859
16733943611
16733949836
16733955757
16733961738
16733966987
16733971260
16733977119
16733981330
16733988044
16733995979
16734001899
16734007942
16734013007
16734018867
16734025947
16734032050
16734042060
16734049384
16734054572
16734059760
16734066474
16734072700
16734077216
16734085822
16734091743
16734095405
16734100654
16734105170
16734110663
16734115729
16734121467
16734127326
16734132697
16734138556
16734143378
16734148810
16734153388
16734158820
16734165595
16734171943
16734180793
16734187507
16734194220
16734201606
16734207099
16734212958
16734220404
16734224921
16734229987
16734234626
16734239142
16734243842
16734247931
16734252997
16734259101
16734263617
16734268378
16734272711
16734277106
16734281439
16734286017
16734291388
16734297125
16734302191
16734307807
16734313239
16734318915
16734322882
16734328681
16734332037
16734339850
16734345160
16734350043
16734353888
16734360114
16734365912
16734371527
16734377936
16734383612
16734388556
16734392828
16734397406
16734402777
16734408636
16734414374
16734420233
16734427069
16734431158
16734437079
16734443243
16734448187
16734454352
16734461004
16734467169
16734472235
16734477057
16734483099
16734486639
16734492071
16734495672
16734502691
16734509222
16734514898
16734519537
16734525030
16734529486
16734534124
16734543829
16734548162
16734554754
16734558233
16734565801
16734572271
16734578863
16734583074
16734591314
16734600103
16734606085
16734611639
16734615972
16734621465
16734625738
16734633001
16734638372
16734643743
16734648443
16734652837
16734656866
16734662420
16734667364
16734672308
16734677007
16734682195
16734687688
16734693548
16734697759
16734704107
16734711980
16734717657
16734722906
16734727422
16734732061
16734737493
16734742010
16734748296
16734752691
16734760930
16734766179
16734771856
16734776433
16734781377
16734789678
16734794561
16734801763
16734807439
16734812932
16734818731
16734824163
16734831487
16734836431
16734841252
16734847905
16734853765
16734858953
16734865300
16734870061
16734875310
16734880620
16734886296
16734891118
16734898137
16734904668
16734910710
16734915898
16734919988
16734926762
16734930974
16734938725
16734944646
16734951970
16734956914
16734962407
16734969914
16734974675
16734980290
16734985966
16734991582
16734997441
16735003239
16735009099
16735012639
16735019475
16735025029
16735030888
16735036015
16735045415
16735051030
16735057499
16735062199
16735068730
16735073857
16735080082
16735088444
16735094792
16735101201
16735108097
16735113530
16735118779
16735125370
16735132206
16735138249
16735145573
16735152287
16735159062
16735165714
16735172001
16735177860
16735184147
16735188236
16735196110
16735201420
16735205631
16735210270
16735216374
16735221867
16735228031
16735233158
16735238773
16735244267
16735249332
16735254337
16735258915
16735263920
16735270756
16735276127
16735283939
16735290470
16735295719
16735300541
16735306705
16735311283
16735317325
16735322086
16735328251
16735333744
16735338932
16735343876
16735350040
16735354618
16735359440
16735365726
16735371586
16735376529
16735381595
16735386173
16735392826
16735397892
16735403995
16735409061
16735415836
16735421756
16735427799
16735432987
16735437503
16735443302
16735447879
16735452579
16735461490
16735466617
16735471317
16735477420
16735482974
16735488895
16735494998
16735499881
16735507083
16735514163
16735518375
16735525577
16735530032
16735537174
16735542728
16735547061
16735552860
16735562198
16735568729
16735574466
16735580264
16735585635
16735590945
16735597415
16735602664
16735610293
16735615909
16735621219
16735628299
16735633609
16735638186
16735644168
16735650393
16735656497
16735663333
16735667483
16735674868
16735679019
16735685489
16735690249
16735697329
16735701236
16735709597
16735716006
16735722232
16735728274
16735734683
16735742129
16735747561
16735755923
16735762942
16735768130
16735776064
16735782717
16735788027
16735795046
16735799502
16735807009
16735813113
16735818423
16735822451
16735827883
16735834475
16735840273
16735844790
16735852602
16735857363
16735861941
16735868533
16735875185
16735880251
16735885744
16735891970
16735898257
16735903750
16735909792
16735915896
16735921816
16735927065
16735932619
16735938540
16735942385
16735949160
16735954470
16735961062
16735966127
16735972597
16735977968
16735984255
16735988710
16735995668
16736000612
16736007814
16736013002
16736019350
16736023928
16736029665
16736036684
16736041445
16736048830
16736054201
16736060060
16736064943
16736071169
16736077394
16736083254
16736087099
16736094728
16736099733
16736106935
16736111696
16736118593
16736123232
16736130129
16736138734
16736143678
16736148317
16736155885
16736160219
16736167909
16736173219
16736179506
16736186952
16736192262
16736198976
16736203493
16736209901
16736214845
16736221193
16736227540
16736236635
16736241273
16736248842
16736254823
16736259401
16736265504
16736270082
16736276124
16736282716
16736289552
16736294252
16736300599
16736305665
16736310914
16736320558
16736328187
16736333314
16736341371
16736348451
16736354676
16736360230
16736366883
16736371644
16736381043
16736386659
16736392579
16736397279
16736403260
16736408082
16736414307
16736418275
16736426881
16736431641
16736436646
16736442628
16736447999
16736452760
16736459595
16736463929
16736473023
16736478394
16736485718
16736490235
16736496583
16736501160
16736508301
16736513428
16736520691
16736527527
16736532715
16736538880
16736543152
16736549988
16736555848
16736560303
16736566712
16736574524
16736579163
16736585572
16736591431
16736596436
16736601319
16736608094
16736614075
16736620789
16736626526
16736631226
16736637696
16736643128
16736647949
16736654541
16736661072
16736668701
16736673523
16736679016
16736685913
16736692017
16736696594
16736702149
16736708496
16736715698
16736722473
16736727112
16736733154
16736739319
16736745117
16736750732
16736756836
16736762268
16736771118
16736775452
16736784424
16736788391
16736796081
16736801514
16736807495
16736813659
16736821533
16736828247
16736835449
16736840271
16736848694
16736853210
16736859619
16736863830
16736872436
16736877380
16736883850
16736890380
16736895080
16736901306
16736907409
16736914794
16736919921
16736928405
16736935058
16736942260
16736950500
16736955932
16736961120
16736968261
16736975036
16736981140
16736988586
16736994262
16737000610
16737005798
16737010680
16737016601
16737024413
16737031310
16737035705
16737041869
16737046569
16737052245
16737058044
16737063781
16737070861
16737075133
16737081481
16737085448
16737091979
16737095885
16737102416
16737106261
16737113891
16737119689
16737125976
16737129943
16737135009
16737140685
16737146422
16737151915
16737157287
16737163146
16737168761
16737174193
16737178954
16737183532
16737189086
16737193908
16737201049
16737206725
16737212645
16737217711
16737222228
16737226744
16737232299
16737237364
16737244383
16737249877
16737256774
16737262572
16737267882
16737272765
16737279357
16737284606
16737291380
16737297057
16737302306
16737307799
16737312376
16737316832
16737323485
16737329344
16737336607
16737342345
16737348692
16737354369
16737359557
16737364500
16737369627
16737374388
16737383116
16737388792
16737394713
16737399718
16737405577
16737411986
16737416868
16737423033
16737431151
16737436216
16737440916
16737448362
16737455504
16737462095
16737466185
16737472410
16737478697
16737485228
16737491209
16737496092
16737502439
16737507505
16737513243
16737519163
16737524839
16737534422
16737538877
16737547300
16737553465
16737561094
16737565794
16737572325
16737579038
16737585630
16737592405
16737599363
16737603330
16737610227
16737614134
16737619871
16737623167
16737631651
16737636411
16737642271
16737648008
16737653928
16737659116
16737663938
16737671567
16737677549
16737683897
16737688718
16737691709
16737699399
16737703245
16737709897
16737713987
16737721128
16737727170
16737733579
16737737974
16737743833
16737749143
16737755246
16737759092
16737766355
16737772397
16737778867
16737782285
16737788388
16737792844
16737798215
16737803403
16737810544
16737816037
16737823117
16737826779
16737835019
16737839780
16737845578
16737851010
16737860837
16737866330
16737871518
16737877683
16737883664
16737888181
16737893735
16737899960
16737905942
16737911252
16737917905
16737922360
16737927243
16737934018
16737939633
16737945126
16737952023
16737957394
16737963620
16737968625
16737974057
16737979672
16737984494
16737990903
16738000119
16738005490
16738011593
16738016781
16738021542
16738025937
16738029782
16738036862
16738043210
16738049923
16738055050
16738059384
16738065731
16738072140
16738077816
16738083126
16738090084
16738096615
16738102536
16738109127
