16842748691
16842753635
16842758823
16842763889
16842769260
16842774143
16842779086
16842784702
16842789157
16842795627
16842799838
16842804660
16842809909
16842815036
16842820529
16842825656
16842830417
16842837009
16842842014
16842848239
16842856235
16842862643
16842869296
16842877536
16842883761
16842892673
16842899386
16842903903
16842912387
16842918002
16842924533
16842930148
16842936252
16842941073
16842946872
16842955478
16842959018
16842966769
16842975558
16842983615
16842992099
16842997409
16843005282
16843012484
16843021456
16843027865
16843035556
16843044772
16843054415
16843063754
16843068209
16843075472
16843083163
16843091219
16843096591
16843102511
16843108004
16843115450
16843120150
16843127901
16843133395
16843138949
16843145419
16843150545
16843157931
16843162020
16843169833
16843177096
16843182284
16843189608
16843192904
16843200899
16843208590
16843214449
16843223482
16843227328
16843235201
16843243136
16843248446
16843257357
16843264315
16843270723
16843277437
16843282930
16843291231
16843295626
16843306246
16843313814
16843319979
16843326265
16843331392
16843340181
16843346712
16843353304
16843360750
16843364839
16843372530
16843380342
16843387056
16843394624
16843401216
16843409761
16843416597
16843423799
16843430574
16843437105
16843443880
16843450716
16843458650
16843462801
16843471834
16843476839
16843487764
16843494173
16843501802
16843508760
16843516084
16843522554
16843528596
16843535737
16843541597
16843548921
16843555146
16843561677
16843565706
16843572725
16843578096
16843585725
16843589509
16843598664
16843602510
16843611055
16843614839
16843623567
16843632356
16843639741
16843645295
16843652314
16843657807
16843664033
16843670075
16843676179
16843682649
16843687531
16843694245
16843700410
16843706086
16843712800
16843717683
16843724763
16843730317
16843735017
16843743623
16843749421
16843756867
16843762665
16843769562
16843775239
16843783234
16843788727
16843795869
16843802765
16843809723
16843816437
16843823151
16843827179
16843835663
16843843110
16843850495
16843856781
16843864167
16843871125
16843876862
16843884797
16843892304
16843899628
16843907013
16843909516
16843920624
16843927765
16843933808
16843942230
16843948639
16843952973
16843965119
16843972992
16843978851
16843986481
16843992523
16843999420
16844006867
16844013397
16844022430
16844029511
16844036163
16844042938
16844050201
16844057342
16844065643
16844072479
16844080047
16844086517
16844095245
16844100982
16844107574
16844115387
16844123199
16844129913
16844139984
16844146026
16844153167
16844161285
16844169769
16844176178
16844183380
16844191558
16844199981
16844206329
16844215423
16844222076
16844226959
16844235748
16844245025
16844252166
16844260772
16844265655
16844269195
16844277923
16844283965
16844288543
16844292327
16844299835
16844303680
16844310638
16844315582
16844321319
16844326202
16844331878
16844336639
16844342254
16844348540
16844353545
16844359649
16844365996
16844371673
16844378020
16844384002
16844389251
16844396270
16844402251
16844407439
16844412200
16844417266
16844421660
16844427337
16844431670
16844439116
16844445037
16844449370
16844453826
16844461150
16844466094
16844472136
16844477568
16844484710
16844489959
16844496367
16844501616
16844507231
16844512236
16844517852
16844523040
16844530486
16844536040
16844542632
16844547820
16844553618
16844558745
16844566191
16844569548
16844578032
16844581450
16844587737
16844591216
16844597563
16844602873
16844608672
16844614531
16844620390
16844625029
16844630766
16844636809
16844641386
16844647368
16844652312
16844661040
16844667021
16844672636
16844678129
16844685026
16844689787
16844695341
16844700407
16844706572
16844711088
16844717192
16844722014
16844727873
16844733061
16844738737
16844745207
16844750944
16844755278
16844764494
16844771330
16844776396
16844782499
16844789030
16844794279
16844803129
16844813017
16844820280
16844826200
16844831816
16844838835
16844844450
16844851225
16844856901
16844862577
16844866117
16844873869
16844877348
16844885343
16844890653
16844898222
16844901457
16844910062
16844915373
16844923063
16844926847
16844933683
16844939725
16844946317
16844952055
16844958463
16844964017
16844970243
16844975797
16844981351
16844988553
16844999051
16845005765
16845010831
16845014676
16845023099
16845026761
16845034635
16845037992
16845047208
16845053617
16845059598
16845063321
16845069608
16845074735
16845080838
16845085843
16845093045
16845098600
16845105069
16845112088
16845116544
16845123319
16845127835
16845134427
16845140531
16845146207
16845152066
16845158475
16845162930
16845168607
16845174710
16845178189
16845187894
16845192960
16845199124
16845204129
16845210049
16845213590
16845220792
16845224271
16845233975
16845239774
16845245450
16845251004
16845255460
16845258694
16845267300
16845270657
16845280850
16845284695
16845291531
16845297146
16845301114
16845307950
16845312039
16845318753
16845325467
16845331387
16845337185
16845342862
16845348843
16845357998
16845361599
16845372342
16845378994
16845384243
16845391568
16845398037
16845404263
16845410122
16845417813
16845425503
16845433010
16845439175
16845446377
16845452297
16845459438
16845466763
16845476650
16845483120
16845489468
16845496121
16845503689
16845510281
16845518520
16845523220
16845533413
16845538174
16845546352
16845553188
16845562160
16845567348
16845575832
16845585049
16845592617
16845599819
16845607937
16845615383
16845623623
16845631252
16845637905
16845645168
16845654201
16845661464
16845669948
16845677578
16845686061
16845693386
16845702053
16845707729
16845719142
16845727077
16845733425
16845741237
16845749660
16845756801
16845764430
16845771571
16845778163
16845787257
16845794521
16845801479
16845810878
16845817409
16845826747
16845834132
16845843776
16845851283
16845857936
16845864345
16845873500
16845880336
16845891566
16845899135
16845905421
16845911647
16845920131
16845929225
16845937098
16845943385
16845951442
16845960048
16845969081
16845976283
16845984584
16845990870
16845997767
16846005946
16846013514
16846021571
16846028407
16846037196
16846044825
16846053309
16846059962
16846069422
16846076441
16846086329
16846092616
16846101954
16846108485
16846117884
16846127161
16846135340
16846142237
16846151942
16846159144
16846168726
16846175623
16846183192
16846192408
16846200709
16846208765
16846215052
16846225916
16846232325
16846240686
16846247339
16846256556
16846265345
16846273096
16846279627
16846288355
16846297144
16846302271
16846313745
16846321192
16846330774
16846337976
16846344934
16846351343
16846361109
16846367639
16846377954
16846384424
16846389734
16846400964
16846406580
16846418115
16846423120
16846433374
16846438989
16846449121
16846456995
16846464929
16846471155
16846479394
16846488733
16846495935
16846504419
16846512842
16846518945
16846527307
16846536584
16846539514
16846551049
16846556298
16846567529
16846573022
16846583947
16846591149
16846603845
16846611230
16846619042
16846626367
16846635278
16846642236
16846652734
16846660363
16846668054
16846676537
16846684228
16846690637
16846699670
16846705651
16846714684
16846722985
16846731042
16846737572
16846745202
16846753197
16846758874
16846768639
16846773583
16846785058
16846790185
16846800622
16846805504
16846813195
16846816491
16846823571
16846827294
16846836205
16846842247
16846848107
16846853661
16846859764
16846864891
16846868920
16846875695
16846882225
16846887780
16846892235
16846896508
16846903343
16846910057
16846916466
16846924278
16846930565
16846936913
16846942345
16846948387
16846956139
16846962670
16846969627
16846976158
16846980858
16846986473
16846990807
16846997215
16847002403
16847007042
16847013695
16847019005
16847023521
16847029015
16847033226
16847038719
16847043480
16847048302
16847052818
16847060448
16847066063
16847071495
16847074730
16847081932
16847087120
16847092918
16847097618
16847105003
16847110069
16847115928
16847121055
16847127708
16847132530
16847137901
16847142601
16847149620
16847153099
16847159446
16847164085
16847170372
16847174888
16847180320
16847185997
16847193077
16847198570
16847204002
16847209617
16847215660
16847220848
16847227806
16847232810
16847238609
16847245384
16847251304
16847255821
16847261985
16847268516
16847273704
16847279624
16847286704
16847292808
16847299033
16847303489
16847309165
16847315208
16847320945
16847327598
16847333152
16847339866
16847344993
16847351523
16847357566
16847362083
16847367026
16847373923
16847381064
16847387656
16847391746
16847398398
16847403769
16847409812
16847414817
16847421897
16847427146
16847432517
16847437644
16847444846
16847450827
16847455893
16847460715
16847467734
16847472983
16847479636
16847486350
16847492087
16847497641
16847507163
16847515830
16847523398
16847531699
16847539084
16847544028
16847549643
16847555075
16847559897
16847565329
16847570578
16847577231
16847583456
16847588217
16847594321
16847598654
16847602011
16847610068
16847613730
16847622702
16847626059
16847633871
16847637411
16847644186
16847649924
16847654990
16847660849
16847666586
16847671957
16847680014
16847684347
16847690695
16847694357
16847701437
16847704977
16847712607
16847720236
16847726767
16847730307
16847738119
16847741781
16847748373
16847754293
16847761679
16847765524
16847771872
16847777548
16847784262
16847789450
16847795553
16847800253
16847809042
16847814047
16847820028
16847824972
16847831014
16847835897
16847842855
16847847799
16847851461
16847860738
16847864523
16847871542
16847879354
16847884176
16847889486
16847894979
16847900961
16847909261
16847914632
16847920309
16847925497
16847931661
16847938558
16847944662
16847951375
16847956441
16847962301
16847967916
16847974874
16847980489
16847988546
16847993429
16848002096
16848009969
16848019307
16848026326
16848034505
16848039449
16848050801
16848057088
16848066060
16848072652
16848081990
16848090840
16848097493
16848106465
16848114217
16848121297
16848126363
16848137044
16848142903
16848155049
16848163594
16848170552
16848178120
16848188252
16848196248
16848204121
16848213765
16848222005
16848228596
16848238301
16848245015
16848255147
16848263631
16848266499
16848278401
16848287617
16848295552
16848302815
16848309956
16848314961
16848325520
16848330647
16848339619
16848347248
16848357075
16848364033
16848370808
16848377522
16848386128
16848392597
16848401264
16848409748
16848416950
16848426045
16848428852
16848441670
16848444721
16848456440
16848461872
16848470722
16848478108
16848486225
16848493122
16848501789
16848508869
16848517231
16848523457
16848532246
16848539081
16848548664
16848554829
16848563190
16848570026
16848579426
16848585773
16848592731
16848600910
16848607990
16848616657
16848624225
16848631733
16848638019
16848645893
16848652729
16848663105
16848669635
16848677143
16848685382
16848692218
16848701313
16848706439
16848715961
16848721210
16848731525
16848738910
16848745807
16848752033
16848761554
16848768085
16848778217
16848785297
16848793475
16848801593
16848810382
16848816791
16848824725
16848831622
16848836688
16848847674
16848855548
16848862384
16848867328
16848878741
16848886004
16848895099
16848902484
16848912066
16848919757
16848927081
16848933734
16848943805
16848950274
16848958819
16848968341
16848971331
16848985247
16848993609
16849000384
16849011126
16849018695
16849024066
16849034136
16849041827
16849051837
16849059161
16849067461
16849076800
16849083941
16849090838
16849100115
16849106524
16849117022
16849123675
16849132525
16849141131
16849148760
16849155718
16849165789
16849172442
16849177630
16849187884
16849195269
16849204485
16849211870
16849221636
16849229448
16849236467
16849245806
16849253862
16849260515
16849269182
16849277849
16849285906
16849295244
16849301836
16849310747
16849315874
16849326616
16849334978
16849341448
16849348833
16849359453
16849366594
16849375322
16849382768
16849391008
16849397600
16849408342
16849415361
16849424333
16849430498
16849442338
16849446672
16849454668
16849462846
16849466997
16849473039
16849477434
16849483110
16849490983
16849498308
16849503923
16849510820
16849516618
16849522294
16849527421
16849533525
16849539384
16849545610
16849550309
16849558488
16849563432
16849569230
16849574113
16849580644
16849585038
16849592301
16849596696
16849602983
16849609635
16849617021
16849621720
16849628373
16849632890
16849638871
16849645219
16849651566
16849657792
16849663102
16849669206
16849676469
16849681229
16849687760
16849694108
16849701615
16849708146
16849719559
16849730057
16849746354
16849760087
16849769303
16849775223
16849782303
16849785538
16849792923
16849798417
16849802445
16849808182
16849811905
16849817887
16849821732
16849828141
16849833268
16849838395
16849844864
16849851578
16849856461
16849860794
16849865128
16849870377
16849874832
16849880692
16849885819
16849891739
16849896073
16849900894
16849905594
16849912125
16849915543
16849922684
16849927017
16849932083
16849936478
16849942581
16849945694
16849951737
16849956497
16849961929
16849967667
16849974808
16849980362
16849987198
16849992508
16849997757
16850002823
16850008499
16850013443
16850019119
16850023575
16850030044
16850034805
16850044449
16850047684
16850055130
16850058609
16850066849
16850073562
16850078384
16850085037
16850091568
16850093582
16850102493
16850108474
16850114700
16850119827
16850125503
16850130752
16850138321
16850143570
16850151626
16850158584
16850163406
16850170425
16850177505
16850181839
16850189041
16850194473
16850201370
16850207351
16850215103
16850220962
16850227981
16850234329
16850239883
16850244827
16850251663
16850257766
16850266921
16850275527
16850282302
16850293716
16850300552
16850307388
16850312453
16850320510
16850325942
16850331191
16850337844
16850343093
16850347915
16850353286
16850358718
16850363845
16850369155
16850374160
16850381423
16850386611
16850391799
16850395522
16850401870
16850407119
16850411574
16850415969
16850420607
16850423415
16850429885
16850434462
16850438979
16850445388
16850449477
16850454482
16850459059
16850463393
16850468032
16850475661
16850478774
16850485366
16850489760
16850495680
16850500197
16850505446
16850509535
16850517409
16850523146
16850528578
16850531874
16850538100
16850543166
16850549086
16850553725
16850561171
16850567763
16850575514
16850581252
16850589369
16850596571
16850603590
16850611769
16850619093
16850626540
16850633681
16850640700
16850648390
16850657240
16850662977
16850672865
16850679762
16850688002
16850694716
16850704237
16850710890
16850722731
16850729322
16850741529
16850752333
16850762037
16850767958
16850782850
16850792677
16850803907
16850816908
16850830213
16850841139
16850850355
16850859815
16850868360
16850880445
16850889722
16850899976
16850912305
16850919813
16850927442
16850935194
16850945875
16850957044
16850966993
16850976514
16850985425
16850995618
16851003980
16851015577
16851023206
16851036451
16851044507
16851053479
16851062085
16851069165
16851079724
16851084912
16851097119
16851106885
16851115491
16851124829
16851131177
16851141797
16851148755
16851160169
16851165234
16851176038
16851185376
16851194043
16851203259
16851212537
16851221814
16851228955
16851239697
16851245007
16851255383
16851264416
16851273022
16851282422
16851292614
16851302258
16851310315
16851319775
16851330273
16851340283
16851352246
16851361767
16851372326
16851382824
16851393444
16851406750
16851414990
16851427563
16851438671
16851451367
16851457470
16851473217
16851483105
16851493481
16851506786
16851515575
16851528088
16851539440
16851549633
16851560314
16851571422
16851582592
16851591015
16851604747
16851618663
16851629650
16851639232
16851646984
16851658275
16851666454
16851679271
16851684886
16851695445
16851705211
16851718212
16851729747
16851737499
16851746776
16851756664
16851766124
16851775584
16851785106
16851794871
16851803966
16851815623
16851826671
16851841685
16851856700
16851870860
16851880076
16851896068
16851907725
16851915599
16851927195
16851939891
16851946971
16851958689
16851968821
16851977671
16851988108
16851997996
16852005869
16852017100
16852027110
16852036570
16852042002
16852055247
16852064951
16852074534
16852086375
16852093394
16852104868
16852115061
16852124094
16852131968
16852143870
16852155222
16852164744
16852174936
16852184336
16852194468
16852201426
16852212107
16852222422
16852231028
16852237925
16852245737
16852252451
16852261362
16852267588
16852276499
16852284555
16852292063
16852296274
16852302255
16852309641
16852312509
16852318857
16852325632
16852329050
16852334848
16852339670
16852344797
16852350107
16852354440
16852359689
16852364084
16852369089
16852375070
16852379587
16852384958
16852390146
16852395273
16852399606
16852405221
16852409799
16852414621
16852419382
16852424081
16852429269
16852434091
16852438852
16852443735
16852448923
16852458444
16852464792
16852469491
16852476449
16852480661
16852485544
16852493356
16852498544
16852503732
16852508798
16852513864
16852520272
16852525277
16852531808
16852536081
16852542489
16852547311
16852551889
16852556955
16852561471
16852565805
16852571237
16852578683
16852583566
16852587838
16852592172
16852598763
16852601815
16852608224
16852613900
16852618661
16852623544
16852628793
16852634042
16852638680
16852643258
16852647469
16852653390
16852659066
16852664010
16852667062
16852675179
16852680978
16852686166
16852690621
16852695748
16852701241
16852705147
16852710213
16852715707
16852720528
16852724557
16852731637
16852735970
16852741036
16852745919
16852752267
16852757027
16852762276
16852767037
16852772896
16852777718
16852784188
16852787728
16852794930
16852799813
16852805733
16852811348
16852818184
16852824166
16852830635
16852836068
16852842232
16852847420
16852853646
16852858834
16852869759
16852873604
16852880318
16852886360
16852893563
16852898873
16852904915
16852910042
16852916023
16852921639
16852928536
16852934029
16852939888
16852943428
16852950935
16852955696
16852961983
16852967842
16852973213
16852979195
16852985664
16852992317
16852995796
16853004890
16853012092
16853017708
16853025154
16853030525
16853036323
16853043953
16853051338
16853056709
16853063423
16853070930
16853077827
16853082954
16853089668
16853093513
16853100959
16853105537
16853112068
16853115852
16853123542
16853127388
16853135444
16853138923
16853147773
16853153999
16853159675
16853165290
16853169441
16853175666
16853179939
16853186347
16853191108
16853197578
16853202888
16853210334
16853216010
16853222419
16853227790
16853234809
16853240180
16853246772
16853252021
16853259834
16853266242
16853271796
16853277045
16853287055
16853295234
16853302619
16853309882
16853319709
16853326911
16853334540
16853341804
16853351752
16853358893
16853369208
16853373969
16853382636
16853389228
16853399176
16853403937
16853415534
16853420417
16853429694
16853437690
16853444770
16853450263
16853458869
16853467169
16853474738
16853482550
16853489997
16853497931
16853505133
16853510871
16853518500
16853526801
16853534247
16853542059
16853547614
16853560126
16853566657
16853575812
16853581671
16853592230
16853599066
16853606757
16853616217
16853622870
16853630560
16853639288
16853648321
16853654974
16853664923
16853672186
16853680853
16853687506
16853695684
16853705938
16853719122
16853728338
16853734930
16853742926
16853751593
16853760137
16853766607
16853777899
16853784612
16853792974
16853801641
16853807256
16853815557
16853822271
16853828619
16853840093
16853846990
16853854314
16853860967
16853868658
16853875921
16853885198
16853891790
16853901372
16853908758
16853916204
16853923040
16853931158
16853939458
16853945562
16853955144
16853963384
16853972173
16853977300
16853986699
16853995122
16854002996
16854009954
16854017888
16854025457
16854033025
16854039556
16854047185
16854055425
16854064031
16854073064
16854079412
16854087407
16854093205
16854103642
16854111455
16854119328
16854126714
16854137761
16854143559
16854153264
16854158391
16854167119
16854172246
16854183903
16854192448
16854201115
16854209355
16854215581
16854224431
16854230534
16854238896
16854246953
16854256718
16854267399
16854275944
16854284123
16854292729
16854300358
16854310551
16854318791
16854325199
16854334904
16854341496
16854347966
16854354740
16854364567
16854369755
16854382389
16854391728
16854399967
16854409123
16854415897
16854425602
16854435429
16854442082
16854448734
16854457157
16854467716
16854477055
16854484989
16854495548
16854505558
16854515995
16854525089
16854532413
16854554874
16854565128
16854572818
16854581546
16854587955
16854595585
16854603458
16854610111
16854614811
16854621219
16854625309
16854632755
16854636295
16854644840
16854650638
16854657108
16854663089
16854668338
16854675296
16854681461
16854687992
16854690189
16854699344
16854705875
16854712039
16854718082
16854723514
16854731021
16854735904
16854741092
16854746707
16854755801
16854760928
16854766177
16854771793
16854776797
16854783389
16854786929
16854795291
16854797244
16854806155
16854812503
16854818545
16854820499
16854828555
16854834720
16854838748
16854841800
16854851077
16854857425
16854862002
16854865054
16854871768
16854874881
16854881656
16854887759
16854892947
16854896426
16854902224
16854907229
16854912173
16854916873
16854922915
16854926028
16854933169
16854936709
16854942752
16854947879
16854952273
16854956057
16854963565
16854967044
16854974185
16854978152
16854983828
16854989077
16854995852
16855000735
16855005435
16855009829
16855019106
16855024111
16855030520
16855035830
16855042849
16855048953
16855055727
16855062380
16855073244
16855079531
16855085024
16855091860
16855097903
16855102480
16855111635
16855115114
16855122927
16855129153
16855133547
16855139040
16855144594
16855148134
16855155703
16855159121
16855169191
16855176088
16855185793
16855192995
16855203615
16855211000
16855217470
16855224123
16855228701
16855234255
16855239809
16855244814
16855250856
16855256899
16855262819
16855267580
16855275087
16855282533
16855289064
16855296938
16855303530
16855313600
16855318849
16855326418
16855331606
16855338075
16855343446
16855349550
16855354433
16855359315
16855366335
16855373231
16855379701
16855384889
16855390687
16855395692
16855401552
16855407594
16855413576
16855419191
16855425538
16855431398
16855437929
16855442323
16855448549
16855452089
16855460695
16855464540
16855472291
16855476259
16855484071
16855489076
16855493898
16855500856
16855506288
16855510743
16855518251
16855525087
16855529847
16855536195
16855544191
16855549562
16855554933
16855561158
16855567628
16855572999
16855578858
16855583436
16855590089
16855595155
16855602357
16855606996
16855614808
16855620789
16855625611
16855632142
16855637757
16855644166
16855648377
16855654603
16855658021
16855667176
16855671143
16855679200
16855684449
16855695008
16855699525
16855709168
16855713257
16855720704
16855727296
16855732728
16855739075
16855744141
16855749268
16855755372
16855759644
16855766724
16855772889
16855777283
16855783204
16855789185
16855792359
16855800782
16855804871
16855814698
16855822632
16855829712
16855836731
16855843567
16855851197
16855856995
16855866638
16855874878
16855882141
16855887512
16855894165
16855899780
16855908447
16855915650
16855922485
16855926819
16855936035
16855943237
16855950439
16855957581
16855965515
16855975159
16855983337
16855991028
16855999390
16856006714
16856012634
16856021118
16856029541
16856038574
16856045410
16856053161
16856058960
16856068481
16856075805
16856084167
16856091003
16856102600
16856107849
16856118408
16856125610
16856132629
16856140014
16856147216
16856155517
16856163085
16856170288
16856177429
16856184265
16856193481
16856200439
16856209533
16856218627
16856225341
16856234740
16856239135
16856248351
16856254821
16856263793
16856272582
16856280273
16856288573
16856295837
16856303588
16856309142
16856318603
16856324157
16856333800
16856340331
16856348937
16856355102
16856363646
16856370116
16856378173
16856386046
16856394042
16856401732
16856409545
16856417662
16856424987
16856432311
16856440367
16856447631
16856456359
16856465331
16856472472
16856480406
16856486327
16856493285
16856499266
16856509520
16856516295
16856525877
16856530821
16856541136
16856549376
16856556029
16856559691
16856570006
16856577879
16856585081
16856591429
16856598387
16856605223
16856613219
16856623594
16856631041
16856637510
16856644285
16856651610
16856659605
16856667051
16856672911
16856682798
16856689634
16856697508
16856703856
16856711424
16856717588
16856725157
16856732481
16856738768
16856747129
16856753172
16856761778
16856765989
16856775450
16856782896
16856792722
16856799070
16856806699
16856814268
16856821531
16856828550
16856835752
16856843137
16856850767
16856859006
16856864500
16856872434
16856880308
16856887205
16856895017
16856903379
16856912351
16856917478
16856923276
16856931943
16856940976
16856948545
16856956174
16856965696
16856974057
16856981321
16856990049
16856995725
16857003171
16857010739
16857020078
16857027097
16857032773
16857038877
16857048215
16857057187
16857063779
16857070615
16857084043
16857092099
16857098691
16857109677
16857116696
16857124875
16857130368
16857137692
16857141721
16857149411
16857156918
16857163998
16857169430
16857176205
16857180600
16857185666
16857189755
16857195615
16857198239
16857204892
16857208371
16857216000
16857220822
16857226071
16857231259
16857236386
16857241940
16857245968
16857254147
16857258786
16857264645
16857268002
16857274594
16857279110
16857284176
16857288632
16857293698
16857299191
16857304074
16857308956
16857312985
16857318356
16857324398
16857331173
16857336605
16857342465
16857348141
16857355709
16857359432
16857366024
16857370907
16857378597
16857382565
16857390072
16857393734
16857400936
16857405026
16857413265
16857421505
16857428158
16857433285
16857439205
16857445858
16857450130
16857454037
16857461971
16857465755
16857474483
16857478573
16857485897
16857491512
16857497860
16857502804
16857507625
16857514522
16857520565
16857525814
16857532100
16857538204
16857543880
16857548763
16857552120
16857561153
16857563045
16857571895
16857579097
16857583553
16857589595
16857594173
16857599605
16857606197
16857611446
16857618221
16857623897
16857629451
16857634517
16857641658
16857647090
16857652034
16857656978
16857665401
16857673213
16857678890
16857684688
16857691585
16857696773
16857704219
16857709468
16857717647
16857723384
16857728511
16857733211
16857737972
16857743709
16857748714
16857754695
16857761958
16857766719
16857773250
16857777888
16857784175
16857788447
16857794063
16857799617
16857805537
16857811519
16857817500
16857821956
16857827937
16857832759
16857839473
16857843928
16857847407
16857855708
16857859736
16857868098
16857872126
16857878291
16857883418
16857890071
16857895869
16857903865
16857907710
16857913630
16857918818
16857926020
16857930903
16857936824
16857941279
16857947932
16857952632
16857959529
16857963984
16857971003
16857975703
16857981745
16857986323
16857989741
16858000666
16858004694
16858013667
16858018794
16858024775
16858028437
16858035883
16858039423
16858047114
16858052607
16858058527
16858063715
16858069392
16858073969
16858080805
16858085749
16858092829
16858097529
16858103876
16858108576
16858115229
16858120844
16858124384
16858133356
16858137934
16858146540
16858151178
16858159357
16858164972
16858171198
16858177362
16858184748
16858190302
16858198420
16858204401
16858209162
16858215082
16858217218
16858227350
16858229608
16858238397
16858242731
16858250421
16858254206
16858263117
16858266596
16858276544
16858286615
16858296442
16858306757
16858317926
16858328729
16858338373
16858344843
16858355280
16858363885
16858374139
16858381036
16858386590
16858394098
16858401666
16858409357
16858416437
16858423150
16858431329
16858438104
16858446710
16858453851
16858459710
16858467889
16858473626
16858484430
16858490777
16858498590
16858504510
16858511590
16858517633
16858524591
16858530633
16858541802
16858546563
16858555535
16858563958
16858571527
16858577874
16858585565
16858590386
16858601617
16858609368
16858617120
16858625726
16858633111
16858639397
16858646722
16858654900
16858663506
16858670220
16858676690
16858685662
16858692742
16858700982
16858707451
16858717705
16858725457
16858732903
16858740349
16858748406
16858755242
16858763482
16858771782
16858779961
16858786675
16858794243
16858803032
16858809502
16858817192
16858825371
16858833672
16858840325
16858847832
16858854363
16858861443
16858867546
16858876518
16858882805
16858891777
16858896782
16858906120
16858910698
16858923149
16858928886
16858935966
16858944206
16858952141
16858959526
16858967522
16858974541
16858982109
16858989799
16858995659
16859007377
16859015373
16859025871
16859033622
16859045097
16859053276
16859060234
16859073234
16859081779
16859089836
16859097465
16859103813
16859111320
16859117546
16859127067
16859132255
16859142082
16859150199
16859157951
16859164420
16859171989
16859181877
16859187919
16859195487
16859202567
16859209953
16859214225
16859222526
16859230155
16859238456
16859247550
16859253410
16859262076
16859267448
16859275870
16859281241
16859290092
16859297111
16859305717
16859312797
16859321830
16859328483
16859335990
16859342460
16859353446
16859358390
16859368705
16859373038
16859383963
16859389457
16859398795
16859403922
16859414115
16859419364
16859428702
16859434134
16859442923
16859450308
16859459952
16859464957
16859476187
16859481375
16859492545
16859497916
16859508231
16859513236
16859524405
16859532828
16859539236
16859547049
16859555167
16859560782
16859569022
16859576346
16859583670
16859587088
16859595816
16859599600
16859606619
16859611319
16859616995
16859621023
16859629324
16859633169
16859643667
16859648550
16859654348
16859656118
16859664236
16859670828
16859676016
16859683340
16859688101
16859693228
16859699026
16859704580
16859712515
16859717764
16859724234
16859731863
16859739736
16859746206
16859752554
16859758108
16859764089
16859769521
16859774343
16859780264
16859784963
16859790395
16859793508
16859799123
16859804922
16859808950
16859814504
16859820242
16859823721
16859831899
16859835378
16859841421
16859846426
16859853384
16859858999
16859864980
16859869924
16859875417
16859879568
16859885793
16859890066
16859895559
16859901418
16859907400
16859912465
16859918264
16859922170
16859927236
16859931569
16859938161
16859944082
16859949025
16859955190
16859960134
16859965810
16859969106
16859976186
16859982839
16859987783
16859992971
16859999257
16860004872
16860010610
16860015309
16860020742
16860025380
16860031911
16860036305
16860041005
16860046865
16860052907
16860057912
16860061269
16860069081
16860073110
16860080312
16860083486
16860092214
16860095631
16860101613
16860106801
16860112355
16860117665
16860124135
16860128773
16860134633
16860140004
16860146168
16860152394
16860157887
16860164967
16860169545
16860178029
16860181813
16860188832
16860194630
16860198903
16860203908
16860211720
16860216542
16860223622
16860229115
16860235035
16860239430
16860245900
16860251515
16860255299
16860262989
16860267323
16860275685
16860282399
16860291920
16860301075
16860307118
16860314381
16860320423
16860328236
16860334584
16860341480
16860346180
16860352040
16860357228
16860364491
16860368824
16860375233
16860378956
16860386219
16860392872
16860397877
16860404102
16860410755
16860417408
16860422230
16860427845
16860434254
16860439930
16860445728
16860447620
16860455433
16860460377
16860466358
16860472340
16860477833
16860481556
16860489857
16860493946
16860500843
16860506031
16860514698
16860518604
16860525440
16860531604
16860535877
16860541431
16860546863
16860551685
16860558643
16860562549
16860568409
16860573230
16860580555
16860584522
16860590808
16860595264
16860603199
16860608264
16860614490
16860619495
16860625476
16860630847
16860636035
16860640430
16860646411
16860651172
16860657092
16860663074
16860667163
16860672962
16860678821
16860683826
16860687122
16860694995
16860698657
16860705798
16860710986
16860716541
16860721362
16860730029
16860737842
16860746997
16860754260
16860762195
16860768909
16860777637
16860785266
16860792590
16860801501
16860809375
16860816821
16860826281
16860833239
16860842639
16860849597
16860857837
16860866015
16860873034
16860882251
16860891345
16860899096
16860906481
16860916430
16860925524
16860933825
16860943041
16860952136
16860961840
16860970324
16860984545
16860993029
16861001330
16861007494
16861015612
16861023852
16861031481
16861039660
16861048815
16861056078
16861064013
16861070421
16861079699
16861089037
16861097277
16861105028
16861113817
16861121081
16861129076
16861136217
16861146349
16861153490
16861164476
16861170031
16861179430
16861184984
16861196398
16861205126
16861214037
16861221361
16861227892
16861237108
16861244982
16861252977
16861261827
16861268114
16861277330
16861285997
16861293382
16861300645
16861308763
16861318224
16861324571
16861334215
16861341051
16861349168
16861355699
16861364488
16861371202
16861380296
16861385362
16861395799
16861400804
16861410692
16861418992
16861424791
16861435594
16861443162
16861451036
16861458787
16861467576
16861473741
16861482347
16861488328
16861497789
16861504319
16861511460
16861520005
16861528123
16861535081
16861542161
16861549241
16861558457
16861564378
16861574082
16861578660
16861587876
16861595322
16861602647
16861607224
16861616685
16861624619
16861633652
16861643113
16861649461
16861659226
16861666184
16861675217
16861688157
16861698350
16861705002
16861712937
16861722947
16861732590
16861742600
16861751694
16861759201
16861765793
16861774887
16861783188
16861790757
16861797287
16861807114
16861811569
16861821823
16861830368
16861836167
16861845749
16861853012
16861859909
16861865341
16861873642
16861879196
16861887375
16861895310
16861903000
16861909409
16861917099
16861923325
16861933151
16861937607
16861946762
16861950912
16861961044
16861967514
16861974167
16861980636
16861987533
16861994491
16861999862
16862009018
16862017624
16862025192
16862031540
16862039779
16862046310
16862054367
16862061203
16862068649
16862072372
16862079757
16862083602
16862089584
16862093490
16862100448
16862104232
16862113632
16862118942
16862124923
16862129745
16862134262
16862139877
16862144393
16862150619
16862154891
16862161422
16862165572
16862171371
16862176071
16862181869
16862186630
16862193160
16862199142
16862204391
16862209090
16862214889
16862219283
16862222945
16862228133
16862235458
16862239608
16862247115
16862252120
16862256820
16862262008
16862268539
16862274459
16862280868
16862284591
16862291732
16862295211
16862303451
16862310409
16862318099
16862325545
16862333236
16862341109
16862347335
16862353194
16862360579
16862365706
16862369918
16862374861
16862379744
16862383712
16862388411
16862393233
16862398055
16862401900
16862408004
16862412886
16862419600
16862424361
16862430159
16862434493
16862440901
16862445418
16862450606
16862454878
16862462447
16862465010
16862472701
16862476058
16862482771
16862487715
16862493819
16862499922
16862504988
16862511763
16862518477
16862523726
16862530012
16862536177
16862541426
16862547774
16862552412
16862557844
16862564497
16862570418
16862576643
16862582564
16862587324
16862593733
16862598189
16862604048
16862608442
16862613752
16862620039
16862625593
16862629744
16862636458
16862641401
16862648542
16862656538
16862665327
16862671675
16862677351
16862684065
16862688276
16862695051
16862699629
16862707319
16862711042
16862718672
16862723615
16862728864
16862735761
16862741621
16862746504
16862751814
16862756757
16862764082
16862775678
16862785505
16862797102
16862806196
16862817915
16862828046
16862837812
16862847822
16862858259
16862868268
16862877607
16862887128
16862896345
16862905195
16862915204
16862924848
16862933637
16862943158
16862953595
16862962140
16862971723
16862983075
16862992841
16863001691
16863010968
16863020307
16863029096
16863038678
16863048017
16863058698
16863068097
16863076764
16863087628
16863097516
16863106549
16863116254
16863125348
16863135968
16863145245
16863154523
16863162945
16863172894
16863182660
16863190472
16863199994
16863208233
16863217633
16863226483
16863235699
16863244122
16863254010
16863263165
16863272320
16863280621
16863289837
16863299542
16863308636
16863317425
16863327130
16863335247
16863344586
16863354168
16863361431
16863367962
16863378155
16863385845
16863394939
16863404278
16863412640
16863421429
16863428997
16863437603
16863443401
16863450603
16863458050
16863465130
16863471538
16863478496
16863485027
16863492290
16863497112
16863505718
16863512188
16863519817
16863525554
16863535320
16863541912
16863548381
16863555339
16863560894
16863569500
16863576702
16863581768
16863589702
16863595928
16863603313
16863607524
16863614971
16863622478
16863629070
16863635539
16863642314
16863649516
16863654765
16863662822
16863669963
16863678081
16863685649
16863693034
16863699077
16863704631
16863713786
16863721110
16863728313
16863733379
16863739482
16863746867
16863753093
16863760722
16863766154
16863773723
16863779704
16863787456
16863791179
16863799907
16863806743
16863814677
16863821452
16863829203
16863835490
16863841655
16863849467
16863856608
16863863749
16863871379
16863879679
16863887126
16863892863
16863900736
16863906474
16863913920
16863922343
16863930277
16863936991
16863945963
16863951945
16863961588
16863966349
16863974772
16863983256
16863991740
16864000040
16864005656
16864012980
16864020243
16864026102
16864033549
16864041117
16864047465
16864055765
16864065592
16864074198
16864081400
16864091166
16864104105
16864123575
16864136820
16864149210
16864158792
16864167948
16864178019
16864188150
16864193704
16864207010
16864214151
16864221109
16864229471
16864233804
16864243265
16864251932
16864257730
16864264444
16864270914
16864279276
16864288370
16864295450
16864303629
16864310709
16864318765
16864325174
16864333536
16864338602
16864348672
16864357583
16864364419
16864373208
16864381814
16864389749
16864396402
16864404702
16864411294
16864422159
16864427774
16864436624
16864441323
16864449929
16864458841
16864466592
16864473428
16864482095
16864488809
16864497354
16864505960
16864512551
16864521707
16864528481
16864537820
16864546060
16864552590
16864558755
16864567117
16864575845
16864584145
16864591164
16864599099
16864606301
16864613442
16864621926
16864630044
16864637490
16864645608
16864653603
16864658303
16864663491
16864670083
16864675149
16864682534
16864686745
16864698647
16864702736
16864708352
16864713967
16864719155
16864725136
16864730080
16864735268
16864740456
16864747231
16864750649
16864759072
16864762734
16864769936
16864777382
16864781533
16864787087
16864793068
16864798134
16864803749
16864810890
16864814797
16864820595
16864824745
16864829750
16864836708
16864841652
16864846962
16864853127
16864858681
16864866554
16864870644
16864877968
16864881691
16864888649
16864891945
16864898170
16864901955
16864909889
16864913490
16864920204
16864926674
16864932167
16864939430
16864944557
16864951515
16864957191
16864963966
16864968483
16864972206
16864979530
16864983925
16864992164
16864999305
16865006874
16865013527
16865020057
16865025367
16865031776
16865037330
16865044899
16865050026
16865058082
16865063880
16865069923
16865074501
16865080055
16865084388
16865090553
16865095558
16865103309
16865107887
16865114173
16865120948
16865126441
16865132484
16865137000
16865142616
16865149696
16865154762
16865158485
16865167945
16865173743
16865180213
16865185096
16865191016
16865196265
16865203345
16865209083
16865217078
16865222755
16865228126
16865233619
16865239966
16865244971
16865250587
16865256995
16865262244
16865268287
16865274512
16865280189
16865284034
16865291907
16865295264
16865303138
16865307227
16865315406
16865322608
16865329627
16865334876
16865339454
16865345069
16865351538
16865357398
16865362586
16865367835
16865372168
16865377783
16865382300
16865391150
16865395240
16865402808
16865408789
16865413184
16865417029
16865425269
16865428992
16865438696
16865444312
16865449927
16865453955
16865459692
16865464941
16865470129
16865474036
16865485327
16865492346
16865498145
16865504980
16865510535
16865517126
16865522436
16865529211
16865534094
16865540198
16865550390
16865556128
16865561987
16865567541
16865573584
16865579687
16865585058
16865592627
16865599280
16865610876
16865616186
16865624243
16865629675
16865639380
16865644690
16865652502
16865657263
16865664099
16865670874
16865676550
16865681677
16865689733
16865694738
16865699560
16865704748
16865709875
16865714392
16865720129
16865724401
16865732031
16865736913
16865742223
16865748083
16865752538
16865758337
16865763708
16865768346
16865775243
16865781591
16865785680
16865791479
16865796362
16865801061
16865807470
16865813757
16865820837
16865825780
16865835119
16865840734
16865848669
16865854284
16865862462
16865870397
16865878026
16865886937
16865895543
16865901952
16865910802
16865917943
16865922948
16865932775
16865941625
16865950109
16865957311
16865965306
16865970311
16865980748
16865988683
16865994603
16866001256
16866012670
16866017980
16866026830
16866033910
16866042943
16866049657
16866057530
16866063512
16866074498
16866081761
16866089268
16866098302
16866105626
16866112340
16866119542
16866126195
16866138158
16866145421
16866152318
16866160374
16866168797
16866174901
16866183201
16866191807
16866198216
16866206883
16866215916
16866223790
16866230015
16866237828
16866242527
16866254185
16866259251
16866271336
16866278904
16866285008
16866293186
16866300450
16866307163
16866316075
16866323277
16866334385
16866341953
16866349705
16866357090
16866365269
16866374241
16866380650
16866389683
16866399143
16866406223
16866414036
16866420078
16866428196
16866436863
16866444309
16866450962
16866461399
16866470310
16866479770
16866486973
16866496677
16866506321
16866515293
16866522800
16866532016
16866539280
16866549533
16866554843
16866565158
16866572544
16866579929
16866589389
16866596652
16866603549
16866612216
16866620883
16866628208
16866637424
16866645969
16866652499
16866661899
16866670505
16866676059
16866686862
16866691928
16866701633
16866709079
16866718295
16866725986
16866735934
16866743014
16866751071
16866757174
16866765903
16866774569
16866780429
16866789035
16866797213
16866805941
16866814547
16866822726
16866829684
16866837619
16866843783
16866852023
16866859957
16866868869
16866874179
16866885104
16866889681
16866899935
16866908358
16866914706
16866921664
16866931551
16866936984
16866947360
16866955233
16866962496
16866969454
16866977023
16866985629
16866995638
16867002779
16867010714
16867017855
16867025851
16867032076
16867043368
16867050814
16867060518
16867067843
16867076998
16867084139
16867092379
16867100008
16867108797
16867117647
16867127962
16867135347
16867142794
16867152559
16867160372
16867166536
16867175936
16867182100
16867194002
16867201753
16867210176
16867217134
16867226351
16867232576
16867238680
16867244356
16867249910
16867256746
16867262727
16867268037
16867274812
16867280061
16867287080
16867290926
16867300264
16867307161
16867311372
16867317232
16867322603
16867327974
16867333772
16867335542
16867344453
16867351289
16867357393
16867362642
16867367280
16867372774
16867379121
16867385225
16867390718
16867397798
16867403718
16867409761
16867415559
16867421907
16867425813
16867433686
16867438935
16867449556
16867456330
16867462068
16867468293
16867472932
16867480073
16867485200
16867492402
16867495515
16867501985
16867507234
16867512666
16867516267
16867526643
16867531648
16867537385
16867543000
16867546967
16867553498
16867557893
16867563874
16867572358
16867578584
16867583161
16867589631
16867594147
16867600800
16867605561
16867612580
16867619599
16867625336
16867630768
16867636567
16867640961
16867647187
16867653412
16867659760
16867669526
16867675507
16867680756
16867687287
16867693268
16867697846
16867706086
16867712494
16867718476
16867722321
16867731171
16867738251
16867744660
16867749909
16867755646
16867761689
16867770600
16867779267
16867784943
16867791168
16867799469
16867805084
16867811981
16867819855
16867825287
16867831940
16867837311
16867842865
16867849518
16867854706
16867860077
16867868744
16867872406
16867879425
16867885590
16867891327
16867896027
16867901764
16867905914
16867914398
16867920868
16867925934
16867931976
16867937530
16867943024
16867947723
16867955169
16867962189
16867967193
16867971283
16867977936
16867982086
16867987640
16867993866
16867999725
16868006134
16868013092
16868019622
16868024322
16868030181
16868034698
16868041534
16868045013
16868054107
16868061187
16868065521
16868070587
16868077423
16868081146
16868089141
16868094024
16868102264
16868106292
16868113799
16868119476
16868125823
16868130828
16868136565
16868141753
16868148528
16868155364
16868161407
16868167632
16868172942
16868177459
16868183746
16868188811
16868195769
16868202605
16868207915
16868211822
16868218230
16868224395
16868229034
16868235381
16868242339
16868246367
16868253325
16868258574
16868264007
16868269256
16868275725
16868283294
16868290069
16868294890
16868299285
16868305144
16868311065
16868316192
16868320769
16868328215
16868332122
16868341033
16868347380
16868352568
16868358794
16868366362
16868372039
16868380889
16868387358
16868393584
16868399504
16868405119
16868411284
16868416594
16868423125
16868429106
16868434111
16868439726
16868444243
16868450163
16868456023
16868461394
16868466948
16868472197
16868477690
16868483427
16868489287
16868494170
16868498808
16868505583
16868510832
16868517424
16868522490
16868528044
16868532561
16868538603
16868543730
16868550139
16868554655
16868563017
16868568449
16868574309
16868579252
16868585905
16868591459
16868597685
16868602690
16868611113
16868617765
16868626921
16868632414
16868641813
16868649565
16868656156
16868663664
16868671110
16868676420
16868680815
16868685392
16868690214
16868694853
16868699247
16868705168
16868710417
16868715421
16868720060
16868724943
16868729704
16868734220
16868739164
16868745084
16868750394
16868755766
16868761015
16868766142
16868770353
16868775785
16868782072
16868787321
16868792753
16868798124
16868802885
16868806791
16868812772
16868816617
16868825101
16868830106
16868836088
16868841581
16868848966
16868853971
16868859098
16868865201
16868872464
16868876066
16868882901
16868887357
16868892911
16868898771
16868903898
16868909574
16868917813
16868924710
16868931913
16868935758
16868944486
16868948270
16868956143
16868961270
16868969205
16868974454
16868978910
16868984098
16868989224
16868993375
16868998319
16869001248
16869008695
16869014737
16869019742
16869024686
16869030240
16869036038
16869041470
16869046353
16869051846
16869057401
16869062222
16869067288
16869073209
16869077847
16869082425
16869090726
16869097073
16869102017
16869107815
16869112637
16869119168
16869124844
16869128873
16869137784
16869142911
16869148038
16869152554
16869159817
16869164517
16869171292
16869177151
16869182950
16869188138
16869193997
16869199307
16869204556
16869210476
16869216275
16869220852
16869227139
16869233059
16869238674
16869244778
16869250210
16869254727
16869260952
16869267422
16869274014
16869279202
16869285855
16869292263
16869298916
16869303921
16869310513
16869316189
16869322170
16869328640
16869334560
16869339565
16869344875
16869350796
16869355679
16869361782
16869368008
16869374233
16869380764
16869385403
16869389004
16869397793
16869403957
16869408291
16869413235
16869422695
16869426723
16869433193
16869438503
16869444912
16869449795
16869456508
16869461452
16869468776
16869474025
16869480495
16869486599
16869493862
16869498989
16869505153
16869510158
16869519741
16869525905
16869531520
16869538478
16869544399
16869548732
16869554531
16869560390
16869566493
16869571804
16869578334
16869582973
16869589687
16869595851
16869601222
16869605861
16869613979
16869618495
16869625209
16869629421
16869634486
16869639858
16869646632
16869651820
16869659816
16869666713
16869671596
16869677394
16869682765
16869686977
16869691859
16869698207
16869704677
16869709621
16869715114
16869721583
16869727016
16869731044
16869737025
16869741786
16869750697
16869755336
16869761744
16869768214
16869773829
16869778407
16869784266
16869790004
16869795680
16869800074
16869806422
16869811122
16869817469
16869821620
16869828151
16869832789
16869839320
16869844935
16869851283
16869857447
16869861964
16869867457
16869873622
16869879298
16869885218
16869892054
16869896632
16869902552
16869908351
16869914942
16869920680
16869927149
16869935389
16869941248
16869949427
16869954432
16869960535
16869967127
16869973719
16869978358
16869986231
16869991785
16869999232
16870006617
16870012903
16870018336
16870026636
16870032557
16870039515
16870044398
16870050684
16870057093
16870063440
16870068750
16870075831
16870082972
16870091333
16870096888
16870104212
16870109217
16870115870
16870122766
16870128992
16870134363
16870141443
16870144983
16870153223
16870158594
16870163721
16870169031
16870173548
16870178980
16870184717
16870190576
16870194666
16870200281
16870206018
16870210291
16870215967
16870221887
16870225671
16870232568
16870236231
16870243005
16870246790
16870254480
16870258508
16870267236
16870274194
16870278955
16870285791
16870290491
16870294092
16870303064
16870309045
16870315027
16870321130
16870325281
16870331140
16870335596
16870341882
16870348535
16870354761
16870359948
16870367578
16870371972
16870377954
16870383935
16870389978
16870395654
16870402978
16870407617
16870411279
16870419946
16870423913
16870430993
16870436120
16870443444
16870449670
16870455957
16870461083
16870467126
16870471887
16870477929
16870483178
16870490136
16870497155
16870502953
16870507775
16870511620
16870521447
16870525536
16870532067
16870535729
16870543603
16870549645
16870557946
16870563927
16870569970
16870575097
16870580895
16870587121
16870593041
16870601159
16870606347
16870611108
16870619652
16870624657
16870632165
16870638024
16870644372
16870650536
16870657128
16870662255
16870669823
16870677392
16870685021
16870691674
16870697350
16870703148
16870713585
16870722924
16870728783
16870735680
16870742821
16870744957
16870752831
16870759606
16870766564
16870772118
16870778282
16870785362
16870790611
16870795860
16870802086
16870808190
16870812950
16870820946
16870824974
16870832542
16870836205
16870842979
16870848106
16870855553
16870861778
16870868858
16870874046
16870879478
16870885338
16870892113
16870897179
16870902855
16870908897
16870913902
16870919395
16870924766
16870931358
16870937034
16870941795
16870945579
16870954857
16870960899
16870966209
16870969932
16870976951
16870983543
16870988731
16870993614
16871000084
16871003929
16871010521
16871014549
16871021812
16871026573
16871031456
16871036094
16871044822
16871050437
16871057151
16871062583
16871070030
16871077049
16871082847
16871088951
16871099693
16871103538
16871110740
16871115318
16871123069
16871129417
16871134605
16871139304
16871146018
16871151084
16871158530
16871165733
16871171470
16871177634
16871184043
16871189292
16871195212
16871199729
16871206809
16871212302
16871219321
16871225059
16871231589
16871236533
16871240500
16871248435
16871252891
16871260764
16871266135
16871271994
16871277121
16871283530
16871291098
16871299582
16871302878
16871313559
16871319480
16871325766
16871332236
16871337851
16871342124
16871352622
16871358786
16871364096
16871368979
16871374411
16871379477
16871384848
16871391135
16871397605
16871403220
16871409079
16871413474
16871419211
16871422263
16871429709
16871433005
16871442160
16871448508
16871454916
16871463827
16871470358
16871475485
16871483359
16871488180
16871493918
16871499289
16871503989
16871510702
16871516318
16871520041
16871528219
16871532187
16871539755
16871543661
16871552389
16871555746
16871564535
16871568380
16871575399
16871581198
16871587790
16871593161
16871600241
16871606222
16871611044
16871615805
16871622702
16871628927
16871636251
16871641378
16871649557
16871655233
16871661093
16871667806
16871672994
16871678427
16871685568
16871690756
16871696127
16871701071
16871707906
16871713033
16871720846
16871726034
16871733175
16871739034
16871744466
16871749837
16871753316
16871762167
16871765890
16871772909
16871778707
16871785482
16871790792
16871797079
16871802694
16871808431
16871813253
16871819967
16871824788
16871831869
16871836812
16871842550
16871848348
16871850667
16871859700
16871865133
16871869405
16871875936
16871881795
16871887899
16871892171
16871896627
16871905172
16871909505
16871918355
16871922139
16871931539
16871937459
16871943135
16871946858
16871954305
16871959249
16871964009
16871968831
16871976888
16871980428
16871988362
16871993184
16871997090
16872001485
16872007344
16872012593
16872018575
16872023763
16872029622
16872034200
16872039327
16872043721
16872049031
16872053731
16872059712
16872064412
16872070454
16872075703
16872081746
16872086507
16872092000
16872097310
16872104024
16872109334
16872115132
16872119649
16872125935
16872130147
16872136006
16872142354
16872149128
16872154866
16872159993
16872164204
16872170063
16872176167
16872178669
16872187764
16872191853
16872201558
16872205891
16872212300
16872217182
16872223225
16872227131
16872234700
16872239643
16872247212
16872251118
16872256855
16872262043
16872267842
16872272297
16872277973
16872283833
16872289448
16872295735
16872300678
16872305866
16872310810
16872317097
16872321919
16872327473
16872331196
16872338825
16872345295
16872349812
16872353291
16872361591
16872366535
16872373310
16872376911
16872384296
16872389851
16872396320
16872401874
16872407673
16872413715
16872421467
16872426594
16872434284
16872440815
16872449177
16872455280
16872460407
16872470112
16872477558
16872486042
16872493976
16872498432
16872517597
16872521503
16872531635
16872539508
16872548725
16872557086
16872563007
16872573200
16872580890
16872588764
16872594623
16872601642
16872605731
16872614093
16872618549
16872625934
16872630939
16872638263
16872643573
16872649066
16872653522
16872659747
16872664447
16872670428
16872675616
16872683002
16872688617
16872695392
16872699908
16872706012
16872711932
16872716754
16872721271
16872728900
16872734088
16872740252
16872746051
16872751605
16872755938
16872761432
16872768023
16872774371
16872780413
16872785724
16872791339
16872795367
16872801593
16872805133
16872813494
16872816912
16872824725
16872828387
16872836138
16872839373
16872845660
16872850604
16872856036
16872861834
16872870318
16872876360
16872882952
16872887774
16872892779
16872898028
16872903582
16872908587
16872917010
16872921526
16872929278
16872935442
16872942828
16872948687
16872954852
16872960162
16872967547
16872973284
16872979082
16872985247
16872990801
16872995562
16873002154
16873007769
16873014544
16873020708
16873022906
16873031328
16873036883
16873042009
16873045672
16873055315
16873059282
16873071367
16873076555
16873084490
16873091143
16873098833
16873105486
16873108721
16873118303
16873127642
16873136858
16873144060
16873147600
16873158830
16873164568
16873174700
16873182085
16873184892
16873198625
16873203508
16873218279
16873224626
16873233415
16873240984
16873248918
16873257036
16873263444
16873269060
16873277360
16873283220
16873291826
16873298051
16873303178
16873307756
16873314409
16873319353
16873326005
16873330400
16873336137
16873341935
16873347856
16873353227
16873358293
16873364274
16873370073
16873376054
16873380449
16873383683
16873390519
16873395219
16873400163
16873406694
16873414018
16873418718
16873425248
16873428666
16873434465
16873439958
16873447282
16873452226
16873460588
16873466447
16873471940
16873478044
16873482316
16873486894
16873494828
16873500565
16873505143
16873510819
16873516740
16873523148
16873527909
16873533768
16873539506
16873544694
16873550675
16873556412
16873558854
16873566239
16873570084
16873577164
16873581986
16873586869
16873593400
16873599381
16873604264
16873610551
16873615677
16873620865
16873625443
16873630875
16873636185
16873641190
16873647965
16873654313
16873663041
16873671280
16873677628
16873683182
16873689042
16873696061
16873702530
16873708756
16873713150
16873719437
16873725235
16873728897
16873734085
16873738480
16873746292
16873753067
16873758805
16873763504
16873769119
16873774491
16873779801
16873792557
16873797501
16873804459
16873809464
16873816727
16873821732
16873829239
16873833878
16873841629
16873846817
16873852310
16873856888
16873861954
16873867996
16873872391
16873877945
16873882767
16873887527
16873892898
16873897476
16873903091
16873907852
16873913406
16873918228
16873924331
16873929825
16873935562
16873940750
16873945816
16873951309
16873955215
16873960769
16873967971
16873972793
16873979263
16873984512
16873989761
16873994217
16874000259
16874004531
16874010635
16874016677
16874020706
16874026199
16874031021
16874035659
16874041275
16874046768
16874052993
16874057632
16874063003
16874067397
16874073562
16874078323
16874084976
16874089980
16874097305
16874104018
16874110061
16874116470
16874121719
16874126296
16874132522
16874137649
16874142837
16874149978
16874156509
16874161269
16874166335
16874172744
16874178298
16874185073
16874190261
16874198073
16874203383
16874208632
16874214980
16874219314
16874225173
16874231521
16874237380
16874243117
16874249343
16874254958
16874259536
16874265883
16874271071
16874276503
16874283400
16874289443
16874296828
16874300917
16874308120
16874314955
16874325026
16874331008
16874337477
16874343520
16874352126
16874358412
16874364455
16874369582
16874376296
16874382643
16874389845
16874394545
16874401442
16874406508
16874413466
16874420851
16874426894
16874432326
16874437941
16874441786
16874449782
16874453322
16874462172
16874467482
16874473463
16874478895
16874484389
16874490614
16874496290
16874501906
16874507033
16874512587
16874515883
16874523573
16874527113
16874536329
16874540114
16874546949
16874552137
16874558912
16874564711
16874569593
16874576124
16874580763
16874588331
16874592909
16874600599
16874607008
16874612379
16874618971
16874623915
16874629774
16874634413
16874640516
16874645643
16874653456
16874659132
16874665540
16874670423
16874676710
16874681043
16874689344
16874693739
16874700208
16874706190
16874712721
16874718580
16874723890
16874730787
16874737440
16874743177
16874748426
16874755323
16874761732
16874766614
16874773939
16874779676
16874785596
16874792127
16874795728
16874803968
16874808362
16874817945
16874823011
16874829358
16874835035
16874839429
16874846082
16874852796
16874859510
16874865064
16874870679
16874875806
16874882703
16874886914
16874896009
16874901197
16874909375
16874916638
16874925122
16874932874
16874939893
16874945996
16874958203
16874967359
16874976087
16874984448
16874995374
16875003552
16875012708
16875021497
16875029370
16875041089
16875048657
16875058850
16875067700
16875075696
16875083020
16875090161
16875096936
16875103528
16875111157
16875118908
16875126416
16875135144
16875141919
16875150830
16875159131
16875162548
16875177136
16875187024
16875194226
16875202221
16875209790
16875215649
16875224133
16875231823
16875241467
16875251049
16875257763
16875265453
16875272228
16875279797
16875289013
16875297192
16875304577
16875312023
16875318371
16875328381
16875334484
16875343395
16875351879
16875359997
16875368236
16875377880
16875385876
16875393810
16875401501
16875410595
16875416088
16875425792
16875433727
16875441417
16875449779
16875455639
16875466503
16875472911
16875482311
16875488292
16875495311
16875505687
16875516368
16875523021
16875531932
16875539195
16875546764
16875554027
16875560985
16875568065
16875576000
16875586253
16875593211
16875600047
16875606334
16875611095
16875620006
16875624583
16875632701
16875639354
16875642223
16875655284
16875662425
16875671519
16875676585
16875686290
16875693614
16875700206
16875709605
16875712657
16875725779
16875733897
16875744334
16875752757
16875761668
16875768626
16875771617
16875783091
16875788157
16875801402
16875809214
16875818186
16875824534
16875831614
16875838450
16875845652
16875854868
16875859873
16875869639
16875874766
16875885020
16875889292
16875897715
16875903269
16875910044
16875914500
16875920359
16875925242
16875931712
16875934702
16875942210
16875945505
16875952036
16875956248
16875963389
16875966929
16875974253
16875979197
16875984568
16875989329
16875994700
16875997568
16876006052
16876011912
16876017649
16876023691
16876027720
16876033213
16876037302
16876042917
16876049326
16876055368
16876060190
16876066294
16876070383
16876074900
16876080454
16876085581
16876094370
16876100656
16876106638
16876110178
16876117441
16876120798
16876127146
16876131967
16876138559
16876143930
16876150583
16876155466
16876161264
16876166635
16876171335
16876177194
16876183359
16876189035
16876194528
16876199472
16876204538
16876208994
16876215280
