16669608326
16669613758
16669618641
16669624623
16669631214
16669636830
16669641773
16669645435
16669651295
16669657337
16669662220
16669667713
16669672657
16669678028
16669683888
16669687855
16669693714
16669699207
16669703602
16669709827
16669713856
16669720631
16669726185
16669731312
16669737476
16669743824
16669749195
16669755970
16669762012
16669767383
16669774402
16669781421
16669787891
16669795765
16669801136
16669808582
16669811939
16669821216
16669829761
16669835804
16669845508
16669852588
16669859302
16669866138
16669873096
16669881397
16669887683
16669897449
16669906665
16669914050
16669920154
16669925281
16669932422
16669937732
16669945911
16669952564
16669957141
16669963184
16669968799
16669976978
16669981433
16669990222
16669995166
16670002307
16670005786
16670012988
16670018664
16670023975
16670030688
16670036609
16670042956
16670046924
16670053393
16670059802
16670066394
16670071765
16670080798
16670087207
16670093554
16670097400
16670105151
16670111621
16670117663
16670123950
16670130175
16670136950
16670142688
16670151477
16670157092
16670164721
16670172900
16670180041
16670186389
16670193103
16670199328
16670206774
16670210803
16670219103
16670226000
16670232287
16670238696
16670245532
16670249499
16670256152
16670262988
16670269213
16670275317
16670281725
16670288866
16670295824
16670301989
16670310290
16670316698
16670322314
16670330736
16670336840
16670343310
16670346850
16670356493
16670362658
16670368578
16670375231
16670382006
16670388720
16670395189
16670400438
16670406725
16670412523
16670418627
16670427111
16670435656
16670442003
16670448961
16670455736
16670461046
16670467760
16670475817
16670481371
16670488878
16670494737
16670501757
16670507189
16670515306
16670519762
16670529283
16670535265
16670541795
16670549669
16670554735
16670561327
16670569017
16670576891
16670581346
16670589342
16670594835
16670601549
16670609300
16670615770
16670622667
16670629259
16670635667
16670642564
16670648424
16670657030
16670664781
16670671068
16670678880
16670684800
16670692735
16670699571
16670706773
16670711168
16670721299
16670726670
16670735032
16670739122
16670747239
16670751329
16670760850
16670766587
16670775010
16670784165
16670791490
16670798387
16670807664
16670814500
16670822679
16670830735
16670837815
16670847093
16670858628
16670863633
16670871201
16670878770
16670884873
16670891648
16670901047
16670905686
16670915391
16670919785
16670930039
16670934373
16670943101
16670949082
16670956589
16670962815
16670969224
16670975266
16670985154
16670989609
16670997910
16671003708
16671013108
16671017258
16671027146
16671033371
16671041916
16671048325
16671055893
16671063034
16671072861
16671079636
16671087631
16671094101
16671100876
16671105210
16671111069
16671116928
16671122605
16671126755
16671132492
16671138474
16671140305
16671149521
16671155258
16671160019
16671167831
16671172043
16671176865
16671182724
16671187668
16671193954
16671197250
16671203903
16671209640
16671214218
16671219040
16671225326
16671229294
16671236374
16671240097
16671246445
16671251633
16671257797
16671263290
16671269272
16671274032
16671279403
16671284225
16671290329
16671293808
16671299728
16671304428
16671310897
16671314010
16671321945
16671325119
16671332077
16671336105
16671343673
16671347641
16671355270
16671359237
16671365341
16671370895
16671377731
16671383407
16671389816
16671395797
16671402267
16671407882
16671414718
16671421005
16671426620
16671433822
16671441757
16671447982
16671452682
16671458114
16671465011
16671472030
16671478133
16671482955
16671487350
16671494674
16671500472
16671505416
16671512191
16671517501
16671523299
16671527511
16671532210
16671539229
16671542769
16671549605
16671555160
16671560836
16671565658
16671571822
16671577010
16671584334
16671589034
16671595076
16671599837
16671605636
16671610946
16671616256
16671620711
16671627486
16671631697
16671637496
16671642073
16671648787
16671653975
16671659651
16671665755
16671673995
16671678572
16671684676
16671689620
16671693343
16671700423
16671704329
16671712569
16671716353
16671723555
16671729353
16671735091
16671739913
16671746138
16671751204
16671757857
16671764082
16671769453
16671775801
16671782332
16671787398
16671793257
16671798323
16671801924
16671810469
16671816878
16671822981
16671828352
16671834334
16671839644
16671846480
16671851240
16671858076
16671863325
16671870466
16671877424
16671883101
16671887861
16671894270
16671899458
16671903120
16671910872
16671916243
16671921980
16671927595
16671933699
16671939436
16671945173
16671950300
16671956098
16671961103
16671968061
16671973005
16671976789
16671984602
16671988630
16671996137
16671999861
16672007246
16672014509
16672022382
16672028181
16672034284
16672041609
16672048078
16672051679
16672059003
16672065412
16672074445
16672080244
16672085798
16672092695
16672097761
16672103254
16672108747
16672114362
16672120100
16672122053
16672131513
16672137189
16672141523
16672144880
16672152387
16672156232
16672163923
16672169782
16672174787
16672181806
16672186384
16672189801
16672196821
16672200544
16672208234
16672211957
16672218427
16672223249
16672229291
16672234601
16672240277
16672244733
16672252790
16672257794
16672262555
16672269330
16672275189
16672281110
16672290265
16672296002
16672304669
16672310834
16672319257
16672327313
16672334332
16672342816
16672350385
16672357465
16672368573
16672375653
16672380414
16672392438
16672397565
16672408246
16672415570
16672423627
16672430768
16672440899
16672448651
16672456769
16672463849
16672472516
16672478985
16672488019
16672496991
16672505719
16672512738
16672517620
16672529095
16672537579
16672543804
16672551190
16672560955
16672568035
16672576641
16672583660
16672592632
16672599896
16672607586
16672616802
16672624859
16672631329
16672640606
16672649883
16672657757
16672664043
16672673565
16672680279
16672688641
16672698162
16672704815
16672712688
16672720440
16672728680
16672736980
16672743999
16672752788
16672761577
16672770611
16672779094
16672790752
16672795696
16672810955
16672821819
16672828533
16672838543
16672845195
16672852214
16672859905
16672866741
16672871074
16672880107
16672888164
16672895610
16672899944
16672911296
16672915813
16672925823
16672933391
16672941814
16672946635
16672956706
16672963542
16672971782
16672978313
16672987285
16672993632
16673001567
16673011088
16673017131
16673023479
16673032756
16673040019
16673045756
16673052348
16673061076
16673067851
16673078471
16673083720
16673092265
16673098796
16673106730
16673112712
16673119365
16673127482
16673134745
16673140483
16673148051
16673153849
16673161601
16673168803
16673176432
16673181803
16673191203
16673197123
16673205607
16673211283
16673218485
16673225382
16673232462
16673240824
16673246439
16673258830
16673265726
16673273539
16673278239
16673287577
16673294474
16673302103
16673309000
16673318461
16673325480
16673332316
16673338114
16673346110
16673354227
16673361124
16673369059
16673378458
16673384867
16673393473
16673401712
16673407511
16673415201
16673423502
16673429911
16673434671
16673445658
16673450540
16673460306
16673466898
16673474710
16673480387
16673488260
16673497476
16673508035
16673516153
16673524820
16673532694
16673541238
16673547891
16673557901
16673565652
16673577127
16673585001
16673595621
16673601907
16673608011
16673617654
16673626687
16673632913
16673639627
16673646402
16673651529
16673657510
16673662210
16673668435
16673672403
16673679727
16673683450
16673690225
16673696634
16673707498
16673713052
16673723367
16673734109
16673740640
16673750222
16673756448
16673764138
16673771890
16673779336
16673788064
16673798318
16673806069
16673812417
16673819863
16673826638
16673834939
16673843118
16673850381
16673858559
16673865029
16673871621
16673877908
16673886880
16673896462
16673905862
16673914712
16673922829
16673931740
16673939248
16673947487
16673955544
16673962624
16673970986
16673981057
16673989052
16673997109
16674006936
16674013466
16674025917
16674032326
16674041054
16674047707
16674057656
16674066078
16674074623
16674082436
16674088722
16674097389
16674104042
16674113442
16674122292
16674129860
16674138588
16674147316
16674153481
16674162025
16674170448
16674177711
16674188148
16674194618
16674206093
16674213844
16674223244
16674237037
16674245338
16674255653
16674266395
16674279518
16674289039
16674297889
16674306434
16674316078
16674324256
16674330848
16674341590
16674350135
16674358009
16674366798
16674375221
16674382850
16674389259
16674398719
16674406959
16674417701
16674427528
16674441200
16674458167
16674477393
16674494910
16674513953
16674531531
16674550635
16674570166
16674588843
16674607154
16674618567
16674626075
16674634314
16674649634
16674666175
16674680091
16674692114
16674699805
16674708594
16674720435
16674733130
16674745032
16674752295
16674760413
16674771948
16674779578
16674786658
16674793310
16674801306
16674809546
16674817114
16674826636
16674834387
16674842810
16674850378
16674857885
16674865149
16674873938
16674882422
16674890905
16674899145
16674907019
16674915380
16674923132
16674930883
16674938879
16674947485
16674955847
16674963476
16674971472
16674980444
16674986913
16674996374
16675005163
16675012426
16675021520
16675029272
16675036047
16675045385
16675053197
16675061315
16675069555
16675077673
16675088110
16675096776
16675105443
16675112340
16675121984
16675130529
16675139501
16675146154
16675157140
16675164769
16675173559
16675182592
16675190099
16675196691
16675205968
16675212743
16675223058
16675231237
16675239415
16675250646
16675259862
16675269750
16675276708
16675282811
16675288548
16675296971
16675301244
16675310277
16675316075
16675322911
16675330846
16675335912
16675343907
16675349583
16675356175
16675361485
16675370274
16675377232
16675384190
16675391514
16675397008
16675403721
16675410252
16675416783
16675424229
16675431004
16675436619
16675442723
16675448155
16675456273
16675460545
16675469761
16675482823
16675488011
16675494175
16675500340
16675506627
16675515232
16675519627
16675530491
16675537266
16675544712
16675551487
16675557286
16675564976
16675573338
16675581577
16675588963
16675595188
16675601658
16675608128
16675614781
16675621006
16675628452
16675635471
16675641697
16675647129
16675655186
16675661594
16675668552
16675676121
16675684299
16675692112
16675698460
16675707493
16675713779
16675721714
16675727939
16675732517
16675743992
16675750583
16675758518
16675768161
16675777500
16675786350
16675800449
16675807346
16675816074
16675823825
16675831638
16675842563
16675850803
16675858066
16675863315
16675870212
16675875827
16675883884
16675890231
16675896030
16675901645
16675909580
16675913486
16675922580
16675926669
16675934848
16675942172
16675949008
16675955295
16675962680
16675968722
16675976596
16675983737
16675991366
16675997043
16676004306
16676009128
16676018588
16676023227
16676033114
16676037631
16676047885
16676052463
16676062716
16676068087
16676077853
16676082553
16676091037
16676097323
16676104159
16676110934
16676119601
16676126986
16676134616
16676141085
16676150668
16676158053
16676165927
16676171969
16676178683
16676184908
16676193453
16676200045
16676208346
16676214266
16676221285
16676226656
16676234103
16676242709
16676251742
16676259859
16676266329
16676272433
16676279574
16676287752
16676293001
16676300204
16676309725
16676316500
16676322725
16676330477
16676337191
16676342623
16676352266
16676358431
16676369173
16676375765
16676383822
16676390657
16676400057
16676407198
16676414827
16676420748
16676430330
16676437227
16676444734
16676450960
16676459139
16676466707
16676473177
16676481050
16676484224
16676496065
16676503023
16676510103
16676517061
16676520601
16676527864
16676534639
16676541170
16676547456
16676553987
16676558870
16676562715
16676568025
16676572420
16676577608
16676581697
16676587739
16676590669
16676596834
16676601778
16676605806
16676609102
16676617280
16676623079
16676627412
16676632783
16676637666
16676642671
16676646516
16676652437
16676657991
16676662690
16676666414
16676671602
16676676362
16676680879
16676686311
16676689546
16676697053
16676700105
16676706269
16676709260
16676716096
16676719209
16676725923
16676731355
16676737031
16676740449
16676747529
16676752656
16676756379
16676761018
16676765290
16676770356
16676778840
16676782136
16676788239
16676793000
16676799653
16676803925
16676808198
16676813142
16676819367
16676824921
16676830109
16676835175
16676839814
16676844575
16676850556
16676854890
16676861787
16676866669
16676871613
16676877961
16676883271
16676887360
16676892975
16676897553
16676904267
16676908784
16676915864
16676920197
16676925690
16676929902
16676936616
16676940644
16676947053
16676952729
16676957184
16676962433
16676967438
16676972138
16676977143
16676982819
16676986542
16676994049
16676999543
16677003510
16677008088
16677015351
16677019684
16677029877
16677035553
16677041474
16677046967
16677055145
16677061371
16677067352
16677075653
16677080170
16677087189
16677092804
16677098053
16677103302
16677109528
16677115387
16677120209
16677127899
16677133087
16677139496
16677145721
16677151886
16677156952
16677163788
16677170624
16677178314
16677184784
16677188812
16677192230
16677199554
16677203522
16677211578
16677213775
16677220856
16677224273
16677230865
16677234161
16677241729
16677246795
16677251251
16677257721
16677262176
16677267669
16677271515
16677276214
16677281646
16677285980
16677290985
16677297638
16677300933
16677306488
16677311370
16677315765
16677319122
16677326080
16677329620
16677337799
16677342132
16677348907
16677351959
16677360137
16677364593
16677371429
16677375884
16677384002
16677388030
16677396392
16677401824
16677406524
16677409698
16677417938
16677423614
16677428375
16677433868
16677439727
16677443755
16677448028
16677453338
16677459075
16677465667
16677470550
16677476287
16677480620
16677485625
16677491363
16677496551
16677502654
16677508086
16677514495
16677518279
16677523894
16677528167
16677532622
16677539641
16677544280
16677553191
16677559722
16677570586
16677577605
16677588469
16677593596
16677604460
16677615142
16677623503
16677632476
16677642424
16677651580
16677659819
16677665434
16677669951
16677682280
16677688628
16677695769
16677702788
16677709441
16677715483
16677722319
16677732878
16677738921
16677747588
16677753508
16677761137
16677767119
16677775664
16677780424
16677790495
16677794829
16677802763
16677809782
16677816557
16677822233
16677829313
16677838102
16677843535
16677851042
16677858854
16677865690
16677871367
16677879606
16677885099
16677895353
16677902677
16677909758
16677916044
16677924772
16677929350
16677937345
16677944181
16677953764
16677962370
16677968351
16677975797
16677983366
16677987943
16677997709
16678006376
16678014677
16678022794
16678028776
16678038297
16678044218
16678051176
16678061674
16678070402
16678077177
16678085233
16678091642
16678099943
16678107145
16678112882
16678119901
16678130277
16678135404
16678144010
16678151700
16678157071
16678164945
16678170438
16678178434
16678185941
16678193387
16678201810
16678208524
16678214261
16678218778
16678228604
16678237882
16678244290
16678252652
16678258267
16678267056
16678276456
16678285977
16678294888
16678304227
16678311856
16678320889
16678328885
16678333707
16678346219
16678356229
16678363248
16678369351
16678376126
16678382535
16678389920
16678396145
16678401517
16678410977
16678417630
16678425320
16678431729
16678438992
16678444851
16678453396
16678460598
16678467678
16678475674
16678482632
16678489163
16678496243
16678504177
16678509671
16678519070
16678526089
16678532315
16678540615
16678545986
16678553799
16678561123
16678568142
16678577358
16678582180
16678592678
16678600979
16678608913
16678615139
16678622952
16678630825
16678639187
16678645962
16678654140
16678661037
16678668789
16678676906
16678682705
16678691616
16678698635
16678706447
16678715175
16678721462
16678729580
16678736599
16678743801
16678754604
16678762050
16678772060
16678778957
16678786220
16678794094
16678803249
16678810695
16678820339
16678825710
16678829067
16678836940
16678840358
16678846706
16678850612
16678857082
16678861476
16678867214
16678870448
16678877834
16678881496
16678886745
16678892116
16678898769
16678902675
16678910609
16678913783
16678921108
16678924892
16678932826
16678937160
16678946559
16678953456
16678959071
16678965602
16678971644
16678977382
16678982692
16678992457
16678997218
16679004909
16679010829
16679016688
16679020656
16679027614
16679032435
16679038966
16679042811
16679050441
16679054591
16679062098
16679066188
16679072779
16679078761
16679083522
16679088527
16679094264
16679097987
16679105921
16679110072
16679117030
16679123072
16679128199
16679131556
16679141383
16679148097
16679154383
16679159205
16679167567
16679174159
16679179102
16679185450
16679192225
16679197535
16679202174
16679208704
16679213404
16679219752
16679225062
16679230982
16679237147
16679242579
16679248804
16679252467
16679260950
16679267908
16679274378
16679283411
16679288965
16679292689
16679301722
16679309717
16679315577
16679317408
16679327051
16679329004
16679337061
16679340357
16679347498
16679351832
16679361536
16679365198
16679372217
16679377100
16679383387
16679388758
16679393885
16679398828
16679407312
16679412317
16679418177
16679424097
16679430200
16679434900
16679438440
16679445703
16679449793
16679457666
16679461511
16679468714
16679473657
16679479944
16679485071
16679490930
16679495508
16679503931
16679508875
16679514429
16679520288
16679526270
16679531396
16679535242
16679543909
16679548730
16679558252
16679563806
16679569665
16679574853
16679583581
16679588647
16679593408
16679602197
16679607263
16679612451
16679618554
16679624231
16679628137
16679633813
16679640344
16679646997
16679653528
16679658715
16679662744
16679668725
16679674096
16679678491
16679684594
16679691735
16679696374
16679702050
16679707543
16679711694
16679717187
16679720239
16679727868
16679735314
16679740869
16679745812
16679751550
16679757165
16679761315
16679766564
16679773034
16679777001
16679784203
16679787866
16679795495
16679799157
16679808007
16679812890
16679818566
16679823022
16679831445
16679836571
16679842248
16679848717
16679854272
16679858788
16679865014
16679869469
16679873620
16679882348
16679884362
16679893334
16679896752
16679903710
16679909508
16679915307
16679920495
16679928734
16679936669
16679944420
16679949303
16679960839
16679967125
16679972618
16679977684
16679982811
16679988243
16679994164
16680000573
16680007103
16680013207
16680019493
16680027001
16680033287
16680039086
16680044335
16680052025
16680057945
16680063927
16680071312
16680078026
16680083763
16680089501
16680098412
16680105431
16680114098
16680120567
16680131126
16680136558
16680146385
16680151512
16680161705
16680170555
16680177025
16680185448
16680194420
16680204796
16680212059
16680218284
16680226097
16680231163
16680240379
16680246483
16680253013
16680259605
16680266502
16680272117
16680278587
16680286583
16680293296
16680299705
16680305686
16680312706
16680318199
16680326194
16680333213
16680339378
16680345481
16680351890
16680358421
16680365440
16680371787
16680377464
16680386070
16680390342
16680399802
16680406028
16680412864
16680418235
16680425254
16680434104
16680439536
16680447227
16680454124
16680460654
16680467124
16680474631
16680481528
16680491782
16680496116
16680505088
16680512107
16680517417
16680524802
16680531699
16680541221
16680549216
16680554465
16680561911
16680568442
16680575644
16680581626
16680588279
16680596701
16680603537
16680612448
16680616538
16680625266
16680630820
16680639426
16680648642
16680654196
16680665793
16680673422
16680681479
16680686301
16680695517
16680703757
16680711203
16680718039
16680725607
16680733481
16680739157
16680747763
16680754294
16680762411
16680768576
16680776144
16680784201
16680791098
16680798910
16680810019
16680817770
16680827414
16680839193
16680846273
16680855490
16680862387
16680871237
16680878134
16680890036
16680897665
16680904806
16680912435
16680918173
16680925802
16680931356
16680941488
16680947714
16680955953
16680962362
16680969930
16680976400
16680987997
16680994955
16681002035
16681009725
16681017049
16681026266
16681032308
16681040243
16681050191
16681055135
16681062154
16681068990
16681078695
16681084798
16681092245
16681098531
16681107503
16681114889
16681122152
16681128866
16681135885
16681143087
16681148580
16681158406
16681164388
16681172689
16681178975
16681186727
16681190999
16681199605
16681207723
16681215169
16681222066
16681228414
16681230367
16681236409
16681240804
16681247151
16681253438
16681257894
16681263204
16681266866
16681270833
16681274495
16681282002
16681286763
16681293843
16681298360
16681303487
16681308553
16681313130
16681316792
16681323201
16681329243
16681334004
16681338704
16681343648
16681349385
16681352620
16681357625
16681362569
16681368062
16681371541
16681378987
16681382771
16681389180
16681394368
16681400532
16681404133
16681412068
16681416951
16681427022
16681435322
16681442341
16681448201
16681457051
16681461384
16681469746
16681473652
16681483967
16681486042
16681493977
16681499226
16681504231
16681508625
16681513630
16681518452
16681522846
16681529011
16681533467
16681537190
16681545735
16681547505
16681556599
16681561909
16681566181
16681569477
16681577229
16681580769
16681589191
16681592670
16681599873
16681605549
16681611042
16681615803
16681621662
16681627705
16681632709
16681638142
16681645161
16681649677
16681655903
16681661701
16681667499
16681673359
16681675800
16681684650
16681688373
16681701862
16681707477
16681712238
16681716144
16681722431
16681728351
16681734638
16681740802
16681744953
16681749530
16681755695
16681761066
16681765766
16681769916
16681777851
16681782795
16681788532
16681794086
16681798175
16681803852
16681809284
16681814472
16681818683
16681827106
16681831561
16681837848
16681842304
16681848834
16681854267
16681859149
16681864093
16681871478
16681876544
16681881000
16681885638
16681892230
16681896381
16681902179
16681907001
16681912799
16681918842
16681923846
16681930499
16681935992
16681941486
16681947650
16681952167
16681958942
16681965411
16681969562
16681976153
16681981341
16681986896
16681995318
16682002337
16682008990
16682015765
16682019977
16682027057
16682033221
16682040606
16682044513
16682052691
16682058123
16682063983
16682069720
16682074664
16682080950
16682086627
16682093341
16682098284
16682104083
16682109027
16682114886
16682119586
16682125445
16682130267
16682135455
16682140154
16682146929
16682151751
16682157366
16682162798
16682168108
16682173419
16682180071
16682185381
16682191302
16682196307
16682202959
16682207720
16682214190
16682219622
16682225237
16682230303
16682235979
16682241228
16682246966
16682254534
16682259478
16682264361
16682273455
16682279009
16682285845
16682291826
16682296648
16682303118
16682307451
16682313677
16682319964
16682324724
16682331072
16682336138
16682344988
16682353533
16682362688
16682368792
16682380144
16682386431
16682395708
16682402788
16682411333
16682418657
16682428301
16682436235
16682444963
16682452226
16682461809
16682467180
16682477495
16682482866
16682493181
16682502702
16682509294
16682517656
16682526201
16682534318
16682540910
16682549394
16682555742
16682566606
16682573747
16682581437
16682588884
16682597001
16682604326
16682613176
16682621049
16682630815
16682637529
16682648698
16682658342
16682666093
16682675920
16682682572
16682692765
16682700456
16682710465
16682720964
16682730241
16682738908
16682745316
16682752397
16682762406
16682770219
16682776505
16682784989
16682793229
16682797990
16682807328
16682815751
16682821549
16682830949
16682837418
16682846696
16682853470
16682860428
16682867325
16682876786
16682884659
16682892472
16682897782
16682908097
16682914872
16682922806
16682930130
16682938919
16682945694
16682954605
16682962235
16682969010
16682976273
16682982987
16682993485
16682999039
16683010575
16683015763
16683026505
16683031998
16683042862
16683051773
16683058304
16683067459
16683073990
16683083145
16683089859
16683099625
16683106888
16683117752
16683123001
16683133682
16683138931
16683149429
16683154678
16683163650
16683173294
16683181656
16683186661
16683196914
16683206192
16683212539
16683217239
16683227920
16683233169
16683245254
16683250442
16683259903
16683264724
16683274063
16683280838
16683289138
16683295120
16683305252
16683312576
16683320999
16683327346
16683336624
16683342605
16683350173
16683358108
16683367507
16683373977
16683383010
16683389236
16683393874
16683404556
16683412978
16683419570
16683427810
16683439040
16683444411
16683454116
16683460891
16683469497
16683476638
16683485183
16683492812
16683503005
16683507705
16683517043
16683525588
16683531569
16683535781
16683546157
16683554946
16683562697
16683570876
16683578810
16683587722
16683594008
16683603285
16683610610
16683620375
16683627150
16683636916
16683644179
16683653334
16683659377
16683666640
16683675124
16683683974
16683690504
16683697279
16683703749
16683709364
16683714735
16683719740
16683726515
16683731703
16683736647
16683741225
16683745009
16683750685
16683755018
16683758925
16683766371
16683772413
16683776320
16683781874
16683786024
16683791517
16683795729
16683802321
16683807264
16683812819
16683818617
16683823072
16683827223
16683833326
16683837599
16683847059
16683852064
16683856703
16683861341
16683867201
16683872999
16683877760
16683882093
16683891676
16683896620
16683902845
16683907606
16683914381
16683919020
16683925428
16683930067
16683937635
16683943800
16683949171
16683953871
16683957472
16683965650
16683972181
16683977552
16683985242
16683991041
16683997327
16684003492
16684009351
16684015455
16684022840
16684028455
16684034315
16684039625
16684048780
16684053907
16684062513
16684069959
16684075818
16684081983
16684088514
16684096509
16684102979
16684110730
16684116651
16684123304
16684127088
16684133374
16684138684
16684144788
16684149549
16684155042
16684161328
16684166700
16684170789
16684180738
16684186170
16684192334
16684198865
16684204358
16684207715
16684215833
16684223889
16684230237
16684235547
16684241040
16684247571
16684252576
16684258130
16684262341
16684268262
16684275647
16684279797
16684287976
16684291394
16684297192
16684302502
16684307996
16684312573
16684320935
16684326794
16684332654
16684338330
16684343884
16684348096
16684352978
16684359570
16684364697
16684371472
16684377209
16684381421
16684386731
16684392163
16684397595
16684401989
16684407361
16684414624
16684419568
16684425915
16684431225
16684437573
16684442212
16684448071
16684451123
16684459118
16684463696
16684469067
16684475659
16684481884
16684486157
16684491040
16684497631
16684505017
16684511852
16684518017
16684524548
16684530041
16684535046
16684542248
16684547985
16684554516
16684559704
16684563854
16684572582
16684578991
16684586132
16684592968
16684599682
16684606579
16684610058
16684622326
16684627880
16684636608
16684645031
16684650524
16684658214
16684665111
16684675487
16684685436
16684694591
16684705150
16684712169
16684717540
16684726390
16684735302
16684745983
16684755809
16684760387
16684771068
16684777111
16684786876
16684793773
16684802196
16684811473
16684818370
16684823741
16684833141
16684838756
16684849559
16684856029
16684863841
16684870738
16684877086
16684883861
16684892955
16684900157
16684909679
16684918285
16684925365
16684932628
16684938670
16684948375
16684954783
16684965220
16684974925
16684981395
16684991527
16685002879
16685013560
16685017894
16685035960
16685048289
16685058848
16685070750
16685081309
16685089488
16685102122
16685109324
16685123545
16685135020
16685146861
16685158335
16685170969
16685181467
16685193980
16685204783
16685214915
16685225046
16685239756
16685249705
16685262095
16685276377
16685286753
16685300181
16685304880
16685323923
16685337046
16685346689
16685354807
16685369394
16685377390
16685392710
16685400583
16685415537
16685423776
16685439218
16685447092
16685463327
16685471201
16685484872
16685496164
16685509286
16685521005
16685534067
16685545419
16685555612
16685569772
16685580026
16685590219
16685601388
16685614694
16685626840
16685636911
16685641305
16685662179
16685672921
16685686227
16685695993
16685706368
16685717660
16685729196
16685740304
16685754037
16685766305
16685780099
16685788033
16685801888
16685811715
16685826180
16685836007
16685847115
16685856454
16685866952
16685875863
16685884774
16685892891
16685902291
16685910775
16685919075
16685922005
16685933724
16685941903
16685948006
16685958077
16685964669
16685973397
16685980171
16685988228
16685995125
16686003426
16686009957
16686020088
16686025032
16686035286
16686042976
16686052620
16686060555
16686069710
16686076729
16686083626
16686093819
16686098946
16686109383
16686117866
16686123848
16686132027
16686139839
16686147713
16686153999
16686162849
16686171150
16686178718
16686185615
16686193855
16686202766
16686209297
16686219123
16686225715
16686230720
16686241706
16686250618
16686259101
16686265876
16686274360
16686279914
16686289070
16686298286
16686305000
16686316169
16686322761
16686331916
16686339057
16686349738
16686357002
16686364143
16686372504
16686381538
16686388496
16686397102
16686403937
16686416083
16686426459
16686429389
16686443000
16686453864
16686462104
16686470344
16686477485
16686486335
16686491462
16686501349
16686509162
16686517951
16686526557
16686532782
16686539801
16686549201
16686553900
16686565558
16686575873
16686586249
16686590827
16686600470
16686606757
16686612555
16686619757
16686625495
16686631110
16686636603
16686638434
16686645697
16686652838
16686656867
16686663641
16686668158
16686674139
16686678046
16686683295
16686688971
16686693426
16686696844
16686702521
16686706671
16686711798
16686716681
16686722052
16686728583
16686734137
16686739142
16686744696
16686749090
16686756476
16686760931
16686765997
16686770209
16686776068
16686779913
16686784796
16686789373
16686795477
16686799505
16686804632
16686809698
16686813910
16686819403
16686824591
16686828863
16686834539
16686839361
16686846930
16686851934
16686856268
16686864447
16686870184
16686877630
16686881353
16686886968
16686893133
16686900762
16686907476
16686913946
16686919622
16686925787
16686930547
16686936712
16686943792
16686948614
16686953375
16686961126
16686968084
16686971929
16686979131
16686985052
16686989629
16686995061
16687000799
16687004461
16687011358
16687015081
16687023443
16687029180
16687035711
16687037908
16687045965
16687049993
16687056768
16687063848
16687068242
16687073736
16687078130
16687081487
16687089422
16687094976
16687101445
16687103643
16687113591
16687117986
16687125432
16687131292
16687137700
16687143804
16687150334
16687156011
16687162603
16687169561
16687174993
16687179509
16687185857
16687191106
16687198186
16687202580
16687208928
16687215581
16687220036
16687225957
16687231389
16687236455
16687239751
16687249638
16687253056
16687260808
16687266911
16687271855
16687275456
16687283513
16687290288
16687296818
16687301884
16687307988
16687313786
16687319096
16687325261
16687331853
16687336735
16687340642
16687348454
16687351994
16687359196
16687364995
16687371892
16687376957
16687382451
16687387700
16687393376
16687400883
16687405949
16687413273
16687418461
16687425175
16687430546
16687435917
16687444035
16687449284
16687456486
16687461430
16687468144
16687473027
16687479557
16687484928
16687488835
16687498722
16687503544
16687511906
16687519047
16687523686
16687530399
16687536869
16687546818
16687553715
16687559147
16687565495
16687571964
16687578434
16687583561
16687589725
16687593754
16687602726
16687608890
16687614811
16687618412
16687627201
16687632572
16687637943
16687641910
16687649906
16687654239
16687662540
16687666630
16687674320
16687679264
16687685795
16687691166
16687697269
16687702884
16687709171
16687715091
16687720829
16687727909
16687734317
16687742374
16687752445
16687763309
16687773136
16687784061
16687793094
16687796817
16687809207
16687821109
16687827457
16687835880
16687844241
16687851382
16687858035
16687865482
16687872684
16687881229
16687887759
16687896976
16687903567
16687912479
16687917361
16687927432
16687932864
16687943179
16687951236
16687957461
16687965579
16687974490
16687979922
16687989383
16687997195
16688007266
16688012393
16688022647
16688029910
16688038516
16688045901
16688053347
16688062564
16688070681
16688077273
16688086428
16688092837
16688101016
16688109683
16688116396
16688124819
16688130068
16688141970
16688147097
16688157168
16688164492
16688172915
16688179385
16688189333
16688195986
16688204897
16688213564
16688221316
16688229738
16688236086
16688244875
16688250124
16688261049
16688266298
16688276125
16688282595
16688291567
16688296267
16688306154
16688313784
16688322329
16688329592
16688338686
16688345522
16688355226
16688361635
16688371401
16688378359
16688383241
16688393617
16688403444
16688410036
16688418092
16688425356
16688432985
16688441896
16688449098
16688458315
16688465273
16688474977
16688481691
16688490724
16688497133
16688505800
16688514284
16688522829
16688529603
16688540346
16688546815
16688555604
16688563112
16688572267
16688581300
16688588014
16688597657
16688603273
16688615541
16688624330
16688634156
16688640748
16688650331
16688659547
16688665589
16688674684
16688682862
16688691346
16688697633
16688707337
16688713258
16688720155
16688728211
16688732789
16688744447
16688752747
16688758912
16688763551
16688774842
16688779542
16688790650
16688795777
16688805115
16688812440
16688820985
16688827210
16688835084
16688841248
16688847840
16688856507
16688865235
16688872193
16688879273
16688885804
16688892823
16688898804
16688907105
16688912781
16688922120
16688930848
16688937195
16688943177
16688951905
16688960388
16688966919
16688974854
16688981384
16688990112
16688999451
16689008545
16689016174
16689024963
16689035278
16689041870
16689050720
16689059265
16689067444
16689073730
16689083130
16689089416
16689097961
16689104492
16689115234
16689122009
16689131958
16689138611
16689148681
16689156006
16689163452
16689169067
16689176147
16689183899
16689189270
16689194030
16689202209
16689207702
16689213867
16689218505
16689225463
16689231201
16689236206
16689242858
16689244751
16689253173
16689256774
16689264587
16689268859
16689276489
16689280212
16689288268
16689291992
16689299377
16689303039
16689311584
16689320861
16689327941
16689336913
16689340026
16689347594
16689354186
16689360778
16689369689
16689377013
16689382812
16689388305
16689393188
16689399718
16689404296
16689411071
16689415404
16689421142
16689425353
16689431396
16689435790
16689442687
16689446166
16689455565
16689461364
16689466308
16689472411
16689478881
16689484740
16689488524
16689494933
16689501281
16689508910
16689514098
16689519225
16689525328
16689530699
16689535887
16689542235
16689549559
16689554381
16689561461
16689563903
16689572386
16689576354
16689583495
16689589110
16689595397
16689601744
16689607176
16689612120
16689619505
16689625121
16689633116
16689638854
16689644469
16689649352
16689657652
16689663573
16689667296
16689674315
16689679991
16689685911
16689691588
16689697630
16689702513
16689708311
16689715025
16689721007
16689727171
16689729429
16689738463
16689740599
16689750303
16689754271
16689761839
16689768004
16689773131
16689777708
16689785276
16689790770
16689797361
16689802244
16689808775
16689813353
16689820372
16689826292
16689830137
16689836607
16689842344
16689848692
16689854368
16689860105
16689865415
16689872862
16689877806
16689884580
16689891660
16689896360
16689902952
16689906736
16689915159
16689918699
16689926634
16689934141
16689941770
16689945554
16689953611
16689960081
16689966489
16689972349
16689979490
16689984617
16689989927
16689994199
16690000791
16690005552
16690014585
16690019285
16690023679
16690029539
16690033933
16690039731
16690045530
16690051572
16690056089
16690061948
16690067319
16690072019
16690078550
16690082822
16690088865
16690093015
16690099912
16690106015
16690110898
16690116269
16690121518
16690127927
16690133542
16690137937
16690147092
16690152036
16690157712
16690163938
16690169736
16690174253
16690179929
16690186276
16690190488
16690198728
16690202756
16690209165
16690214108
16690220212
16690225827
16690231870
16690236386
16690243710
16690249081
16690254819
16690259824
16690266415
16690270749
16690277219
16690281674
16690288937
16690294675
16690300046
16690304501
16690308163
16690317319
16690320737
16690326840
16690332516
16690339840
16690345028
16690351559
16690356381
16690362423
16690367367
16690374264
16690380002
16690389767
16690399472
16690405819
16690414914
16690422909
16690427548
16690437374
16690442684
16690453610
16690462460
16690471188
16690480587
16690490109
16690496761
16690504086
16690512814
16690520138
16690530148
16690534908
16690544918
16690549862
16690559811
16690567562
16690577084
16690584774
16690595150
16690603756
16690611080
16690617916
16690627621
16690634884
16690645260
16690652279
16690665523
16690673397
16690679989
16690689266
16690697322
16690703853
16690712459
16690719539
16690724849
16690737300
16690743160
16690752559
16690759822
16690768062
16690775630
16690787288
16690794490
16690803096
16690810970
16690819515
16690826289
16690835689
16690842097
16690853389
16690859676
16690868953
16690875911
16690883662
16690892146
16690900508
16690907466
16690917598
16690924006
16690932796
16690939448
16690947017
16690956172
16690963252
16690971919
16690979670
16690988520
16690994807
16691003535
16691012568
16691019587
16691028315
16691035334
16691043757
16691051325
16691060176
16691069209
16691075556
16691084284
16691093134
16691098444
16691108393
16691116389
16691125666
16691132685
16691140742
16691147089
16691156794
16691163264
16691172480
16691181025
16691190241
16691196711
16691204035
16691212824
16691221308
16691229914
16691237604
16691245478
16691255304
16691263544
16691270685
16691278498
16691287165
16691293207
16691301935
16691308100
16691316645
16691325373
16691333368
16691340143
16691348383
16691354730
16691364313
16691371637
16691380426
16691387750
16691396784
16691405206
16691414728
16691424432
16691433344
16691440057
16691450372
16691457147
16691466547
16691474481
16691484857
16691494623
16691503046
16691511835
16691521295
16691530755
16691538995
16691546563
16691555597
16691564081
16691569085
16691578302
16691585809
16691594842
16691602472
16691611566
16691618585
16691627740
16691634393
16691643426
16691649896
16691659539
16691667901
16691676019
16691683221
16691692254
16691698663
16691703607
16691716180
16691721490
16691733147
16691742120
16691748162
16691755852
16691765862
16691773003
16691779717
16691789117
16691797173
16691803887
16691811394
16691817803
16691822686
16691829278
16691834649
16691840447
16691845513
16691851311
16691856499
16691862908
16691866204
16691872796
16691877739
16691884453
16691889397
16691896172
16691901055
16691906487
16691912102
16691918572
16691923516
16691929070
16691934075
16691942742
16691947441
16691954094
16691958550
16691965019
16691969902
16691976189
16691980644
16691984368
16691992607
16691997551
16692003899
16692009392
16692014763
16692019280
16692025200
16692032524
16692038445
16692042778
16692049980
16692054375
16692060966
16692065605
16692072014
16692076530
16692079948
16692089165
16692092399
16692099235
16692104118
16692110710
16692115898
16692121513
16692127495
16692135490
16692141472
16692148185
16692153373
16692160698
16692165153
16692172538
16692177665
16692189079
16692192802
16692200615
16692204155
16692211540
16692216667
16692222343
16692226188
16692233695
16692238334
16692244377
16692249320
16692255607
16692260612
16692267448
16692273490
16692280326
16692285026
16692290824
16692295463
16692299857
16692306388
16692311820
16692318351
16692323234
16692330070
16692335685
16692340141
16692346488
16692351371
16692357719
16692363578
16692369132
16692375541
16692380729
16692386649
16692388663
16692397025
16692403434
16692409293
16692413199
16692419364
16692424369
16692431693
16692437308
16692442618
16692448905
16692453421
16692460013
16692466544
16692471000
16692477530
16692483939
16692489615
16692493949
16692499808
16692506156
16692510306
16692517142
16692522513
16692528311
16692533438
16692539420
16692544242
16692549918
16692554495
16692563223
16692567679
16692573294
16692579581
16692585684
16692590201
16692593741
16692602164
16692606497
16692614554
16692617972
16692625235
16692630667
16692636160
16692641165
16692647208
16692652090
16692658987
16692663382
16692670035
16692675101
16692681021
16692687552
16692693106
16692698904
16692704397
16692710440
16692715750
16692720755
16692726858
16692734915
16692740164
16692747122
16692753042
16692760550
16692765799
16692771902
16692777212
16692784475
16692789663
16692797659
16692802542
16692812002
16692818045
16692823965
16692828421
16692834402
16692840872
16692846304
16692851492
16692855581
16692863699
16692867178
16692873831
16692879324
16692886038
16692890981
16692896352
16692901418
16692909231
16692913992
16692920828
16692925405
16692931203
16692938039
16692944143
16692948476
16692956228
16692960622
16692963979
16692972219
16692975759
16692982351
16692987539
16692994070
16692999258
16693004934
16693010061
16693018667
16693026113
16693033437
16693039724
16693049001
16693057607
16693066152
16693072438
16693077321
16693089528
16693097341
16693103810
16693110768
16693120046
16693127126
16693134572
16693144033
16693151296
16693157765
16693166432
16693175771
16693182240
16693190541
16693197987
16693206593
16693214589
16693223561
16693228444
16693239308
16693244313
16693254262
16693261586
16693270741
16693277821
16693287892
16693294850
16693303151
16693310414
16693318898
16693325429
16693336232
16693343678
16693351307
16693357289
16693365773
16693374623
16693382313
16693388295
16693397145
16693403675
16693413624
16693420155
16693428639
16693435231
16693441883
16693450794
16693462879
16693468434
16693481434
16693487232
16693500050
16693505360
16693515369
16693523365
16693535450
16693545460
16693554493
16693562061
16693568470
16693578113
16693584583
16693589710
16693601551
16693606312
16693617298
16693622547
16693633533
16693640613
16693648121
16693654407
16693663685
16693673145
16693680774
16693687183
16693696216
16693703113
16693707996
16693719287
16693725025
16693736011
16693741016
16693752613
16693757556
16693767993
16693775318
16693784290
16693791370
16693800098
16693807239
16693815906
16693822864
16693832812
16693839221
16693851123
16693857593
16693867847
16693874805
16693882922
16693891467
16693899280
16693908252
16693916308
16693922595
16693930102
16693940905
16693946399
16693957324
16693963794
16693973315
16693978381
16693990161
16694001391
16694007800
16694012927
16694024646
16694034045
16694040331
16694049243
16694057177
16694066393
16694072802
16694081103
16694089343
16694098010
16694104174
16694112841
16694119494
16694129015
16694136767
16694144823
16694150805
16694159289
16694167956
16694173876
16694182848
16694191515
16694198778
16694206835
16694213976
16694223314
16694230456
16694237963
16694245470
16694255114
16694262560
16694272081
16694279284
16694289110
16694296984
16694305407
16694315599
16694324755
16694331835
16694342150
16694349291
16694357713
16694364610
16694375231
16694382372
16694394518
16694401903
16694410997
16694417467
16694422350
16694431444
16694436266
16694442918
16694448473
16694455736
16694460741
16694465990
16694471300
16694477403
16694483201
16694488512
16694494859
16694497056
16694506334
16694509935
16694516649
16694522935
16694528856
16694531968
16694538621
16694543504
16694548570
16694553453
16694559983
16694564927
16694571641
16694576829
16694582261
16694586900
16694592820
16694599046
16694603746
16694609666
16694613145
16694621141
16694624497
16694631455
16694636888
16694643174
16694648545
16694653489
16694659898
16694665330
16694669908
16694675889
16694681016
16694687486
16694693284
16694698655
16694704514
16694710679
16694715379
16694721177
16694725755
16694731614
16694739548
16694744981
16694751755
16694756699
16694762498
16694767258
16694774216
16694778794
16694786179
16694790574
16694796128
16694803269
16694808762
16694814866
16694821152
16694827744
16694834092
16694838608
16694844834
16694850876
16694856064
16694860581
16694867112
16694871750
16694877121
16694883164
16694888352
16694894394
16694898789
16694905503
16694909897
16694915573
16694921677
16694928269
16694935166
16694942063
16694949082
16694955307
16694961655
16694967148
16694974167
16694983566
16694988510
16694994309
16695000595
16695005478
16695010056
16695016830
16695021042
16695027634
16695032211
16695038071
16695043503
16695048508
16695053879
16695059860
16695066269
16695072677
16695077316
16695082870
16695089462
16695095383
16695099533
16695106064
16695110275
16695116318
16695121933
16695127731
16695131820
16695134933
16695144211
16695149826
16695153854
16695157089
16695165634
16695171432
16695175521
16695180526
16695186813
16695191452
16695197494
16695202011
16695207870
16695212448
16695218124
16695223068
16695228805
16695234542
16695239120
16695244979
16695249984
16695254074
16695260055
16695264633
16695271163
16695277450
16695279708
16695288070
16695295577
16695299728
16695305221
16695311202
16695316207
16695322066
16695327254
16695332626
16695335921
16695343978
16695347518
16695354293
16695359237
16695366012
16695371017
16695377486
16695382430
16695388167
16695393172
16695399337
16695405196
16695410201
16695416732
16695421493
16695427596
16695431197
16695439071
16695442855
16695451339
16695454940
16695463179
16695466780
16695474410
16695479659
16695486129
16695491133
16695497603
16695504195
16695510604
16695520552
16695526107
16695533187
16695540328
16695546797
16695553755
16695558882
16695565291
16695569380
16695575667
16695581465
16695589217
16695593855
16695599349
16695603316
16695609908
16695614302
16695620039
16695625349
16695632307
16695638045
16695642195
16695647078
16695653975
16695659468
16695664717
16695669417
16695675764
16695680647
16695686079
16695691023
16695697493
16695702986
16695707441
16695714033
16695721724
16695727339
16695732649
16695738813
16695743147
16695748518
16695754011
16695758040
16695764753
16695769819
16695776594
16695783003
16695788069
16695792524
16695799299
16695804304
16695807966
16695816328
16695822615
16695827131
16695832502
16695838789
16695844221
16695850263
16695854780
16695862653
16695868635
16695875471
16695881880
16695888532
16695894453
16695900312
16695906294
16695914655
16695918684
16695926923
16695932050
16695937604
16695942487
16695948102
16695955732
16695961286
16695967451
16695972455
16695978376
16695983930
16695989789
16695995893
16696002363
16696007612
16696013410
16696017621
16696023969
16696027387
16696035260
16696040204
16696045820
16696050397
16696058332
16696063886
16696069379
16696075788
16696081525
16696086042
16696091962
16696096906
16696108258
16696112226
16696121259
16696127973
16696134625
16696138227
16696144635
16696152875
16696164288
16696169171
16696177838
16696185040
16696190595
16696195355
16696200726
16696204694
16696212201
16696218304
16696223004
16696229230
16696233563
16696241559
16696249432
16696256268
16696264081
16696270123
16696276776
16696281720
16696286542
16696293377
16696299054
16696303570
16696310345
16696315228
16696323590
16696328900
16696335431
16696339947
16696346417
16696351483
16696358136
16696363812
16696370404
16696375347
16696379376
16696385662
16696392620
16696396893
16696403546
16696408917
16696415325
16696419842
16696424664
16696431072
16696436016
16696442364
16696447979
16696453777
16696458965
16696465313
16696469769
16696475933
16696482403
16696487530
16696493389
16696500530
16696506390
16696511028
16696517376
16696521893
16696527813
16696531231
16696538677
16696543926
16696550213
16696555401
16696561687
16696567058
16696572735
16696578899
16696583965
16696590923
16696597820
16696603069
16696610515
16696614666
16696621074
16696626262
16696632427
16696636882
16696644573
16696649517
16696655010
16696661480
16696667400
16696673137
16696678386
16696682781
16696686626
16696694744
16696698711
16696706462
16696710369
16696718669
16696724040
16696730815
16696736919
16696744914
16696750896
16696757243
16696763530
16696770366
16696775493
16696782817
16696788310
16696800212
16696805583
16696810954
16696815044
16696821025
16696825114
16696832317
16696837199
16696845561
16696850627
16696856608
16696860698
16696866008
16696873088
16696879008
16696884074
16696892802
16696897258
16696902690
16696908610
16696913493
16696918803
16696924052
16696930156
16696936076
16696941508
16696944926
16696952617
16696956034
16696963969
16696967753
16696975077
16696978801
16696986613
16696990458
16696998515
16697003520
16697009501
16697015055
16697021281
16697026530
16697033366
16697038737
16697044413
16697048869
16697055522
16697060771
16697067545
16697072062
16697078776
16697085062
16697090006
16697096049
16697101786
16697106120
16697111124
16697117716
16697121928
16697130106
16697135905
16697142863
16697147929
16697153727
16697159159
16697163859
16697168925
16697178202
16697184977
16697191263
16697197184
16697201761
16697207499
16697213785
16697219706
16697225199
16697231241
16697236612
16697242472
16697248575
16697253519
16697258280
16697264322
16697269388
16697276895
16697285807
16697291666
16697293436
16697301309
16697305887
16697311441
16697315470
16697325662
16697333353
16697340921
16697347147
16697353739
16697361002
16697365885
16697374307
16697380960
16697388467
16697394388
16697400980
16697405801
16697411600
16697416421
16697422830
16697427591
16697432962
16697437112
16697443521
16697448099
16697454080
16697460062
16697467630
16697473245
16697479898
16697484903
16697491617
16697496560
16697501382
16697508401
16697514139
16697519143
16697524087
16697528299
16697534707
16697540811
16697545694
16697555520
16697560403
16697566568
16697572061
16697576577
16697582864
16697587930
16697594216
16697599099
16697603982
16697610147
16697614785
16697620645
16697626321
16697630960
16697636697
16697642617
16697648965
16697653787
16697659524
16697663979
16697669778
16697675454
16697680398
16697686074
16697690163
16697697671
16697701028
16697709023
16697712563
16697719094
16697725503
16697730935
16697735818
16697740273
16697746621
16697752663
16697756875
16697763589
16697768288
16697774392
16697780190
16697784402
16697792336
16697798867
16697803505
16697808754
16697815651
16697820534
16697826210
16697831948
16697838173
16697843483
16697848610
16697853066
16697860329
16697864968
16697870827
16697876870
16697883644
16697887978
16697893959
16697898903
16697904091
16697911293
16697919350
16697926247
16697930886
16697942909
16697948647
16697954262
16697959999
16697966286
16697972572
16697978371
16697980629
16697991432
16697996681
16698001991
16698006935
16698012733
16698018105
16698023720
16698027626
16698034889
16698038429
16698045326
16698048744
16698056068
16698059242
16698066688
16698070473
16698079506
16698083473
16698094154
16698101417
16698106605
16698114906
16698121010
16698125160
16698133400
16698136757
16698143592
16698147010
16698155006
16698159034
16698166114
16698171547
16698177101
16698181678
16698187355
16698193031
16698199256
16698204139
16698210121
16698215553
16698222755
16698227638
16698232459
16698237953
16698243812
16698249732
16698255042
16698261024
16698266700
16698272498
16698277747
16698284156
16698288062
16698295264
16698300269
16698306800
16698312110
16698320716
16698325294
16698331519
16698336463
16698341834
16698349097
16698351356
16698360206
16698367469
16698372901
16698380103
16698385169
16698389014
16698395972
16698402198
16698407630
16698413550
16698419471
16698425086
16698432593
16698435889
16698443030
16698447730
16698452735
16698459876
16698466956
16698472388
16698476538
16698484351
16698488562
16698495764
16698501013
16698506995
16698511511
16698518225
16698524329
16698532569
16698539588
16698547583
16698554358
16698559912
16698568518
16698574500
16698582434
16698587866
16698595313
16698601538
16698607458
16698613806
16698620337
16698625708
16698632849
16698639136
16698643652
16698649145
16698653540
16698660193
16698667090
16698672766
16698679358
16698683386
16698691687
16698695959
16698702368
16698708410
16698715490
16698720373
16698726599
16698731237
16698738501
16698744238
16698750341
16698754675
16698759741
16698765356
16698770910
16698777624
16698782995
16698787390
16698790808
16698798986
16698802709
16698810705
16698817114
16698822729
16698827734
16698834387
16698840673
16698845007
16698851232
16698857885
16698863622
16698867284
16698877111
16698882055
16698887975
16698894079
16698899816
16698907751
16698912756
16698919958
16698925573
16698929784
16698936620
16698940954
16698948888
16698953344
16698962072
16698966100
16698972936
16698978307
16698986242
16698990697
16698996801
16699003454
16699010412
16699015600
16699021215
16699027379
16699032628
16699037755
16699044164
16699048497
16699055211
16699060949
16699064855
16699072240
16699077550
16699084325
16699089696
16699095555
16699100865
16699108251
16699114354
16699120763
16699125951
16699132298
16699138890
16699145238
16699153783
16699158238
16699169225
16699176488
16699182164
16699188756
16699196324
16699198827
16699209019
16699213231
16699222020
16699224095
16699233311
16699237645
16699244603
16699249486
16699254735
16699260045
16699266942
16699272374
16699279393
16699284337
16699289341
16699294529
16699300511
16699305211
16699312169
16699318028
16699324620
16699329503
16699334629
16699342381
16699346959
16699353794
16699358128
16699366062
16699372044
16699377720
16699383213
16699390843
16699396092
16699401951
16699407688
16699414036
16699418797
16699424046
16699430210
16699432591
16699441807
16699445713
16699452671
16699457310
16699464146
16699469334
16699475925
16699482090
16699487888
16699492710
16699498447
16699505650
16699510838
16699515476
16699519260
16699527988
16699531834
16699538181
16699543064
16699549167
16699553257
16699561558
16699566746
16699572239
16699578831
16699584995
16699589756
16699593662
16699605015
16699609470
16699619724
16699626682
16699631809
16699635654
16699642917
16699649143
16699655185
16699660556
16699666172
16699670566
16699676242
16699681919
16699688755
16699693515
16699697299
16699705905
16699714267
16699718845
16699723972
16699731052
16699735141
16699742160
16699746921
16699754855
16699759860
16699766086
16699770908
16699778842
16699785434
16699792453
16699798068
16699802524
16699810031
16699816623
16699823459
16699829684
16699838046
16699845431
16699850192
16699855319
16699859714
16699867343
16699872958
16699879367
16699885959
16699891147
16699895785
16699899508
16699907748
16699911898
16699920565
16699924472
16699932040
16699936374
16699944186
16699949618
16699954196
16699961032
16699967868
16699972933
16699978915
16699984225
16699991915
16699998873
16700004916
16700009554
16700016085
16700022616
16700028292
16700036349
16700041903
16700047213
16700052523
16700058321
16700065035
16700071200
16700076083
16700083041
16700085299
16700094149
16700098116
16700106173
16700110323
16700116793
16700122164
16700129427
16700135103
16700139925
16700144442
16700151705
16700156527
16700160738
16700170321
16700172762
16700180697
16700185274
16700193331
16700197176
16700204195
16700210604
16700216463
16700221163
16700227022
16700231783
16700239290
16700244051
16700250093
16700255770
16700259432
16700267549
16700272676
16700279879
16700283480
16700290315
16700296602
16700301729
16700307405
16700314546
16700320223
16700325716
16700331819
16700338289
16700345247
16700351045
16700355928
16700362276
16700368990
16700374910
16700380525
16700387422
16700393282
16700400545
16700406831
16700416963
16700425508
16700431489
16700437715
16700444795
16700450777
16700457002
16700461519
16700470186
16700475435
16700481050
16700487459
16700494111
16700499360
16700504731
16700510591
16700518770
16700524141
16700529695
16700536958
16700542207
16700547151
16700551240
16700560578
16700564729
16700571809
16700575349
16700582124
16700586579
16700594575
16700599946
16700604585
16700609406
16700617890
16700622834
16700629304
16700634187
16700640901
16700646150
16700652802
16700658601
16700662507
16700671235
16700675813
16700682954
16700688325
16700693757
16700698945
16700705964
16700710664
16700718659
16700723359
16700730012
16700735566
16700739350
16700748383
16700754975
16700760407
16700764191
16700773835
16700777741
16700787018
16700792573
16700798371
16700805268
16700811432
16700816254
16700825287
16700832917
16700838715
16700843598
16700850922
16700856537
16700863556
16700868561
16700876190
16700882721
16700889130
16700894501
16700901398
16700907746
16700911408
16700918549
16700924835
16700931000
16700935883
16700943207
16700948578
16700955841
16700960846
16700967377
16700973053
16700980316
16700987396
16700991119
16700999054
16701002960
16701010773
16701016083
16701022247
16701027435
16701036041
16701041595
16701050628
16701056366
16701065338
16701071380
16701079681
16701084625
16701089081
16701099762
16701106659
16701112762
16701120391
16701127960
16701133087
16701137603
16701143280
16701149139
16701154571
16701159637
16701166107
16701170562
16701176849
16701182647
16701188140
16701195098
16701199737
16701205657
16701211456
16701217132
16701221588
16701227508
16701231963
16701239715
16701244720
16701251678
16701256439
16701263885
16701268401
16701273589
16701279571
16701288909
16701295806
16701298492
16701311248
16701318084
16701324004
16701328765
16701338958
16701345244
16701351043
16701357635
16701364165
16701369781
16701374419
16701380034
16701386260
16701392058
16701396087
16701401824
16701406463
16701412383
16701416411
16701421965
16701428435
16701432219
16701440825
16701444426
16701452483
16701456328
16701463225
16701467986
16701474456
16701479949
16701487883
16701492095
16701499358
16701504302
16701510527
16701514983
16701521208
16701525725
16701534392
16701539336
16701546294
16701552336
16701557524
16701562041
16701565642
16701574126
16701578276
16701585783
16701589568
16701597868
16701601469
16701608183
16701613005
16701619658
16701624846
16701632780
16701638273
16701644316
16701648527
16701655058
16701659636
16701668120
16701676176
16701684599
16701690031
16701697294
16701702787
16701709074
16701713835
16701721037
16701728422
16701736540
16701741850
16701747526
16701751554
16701756132
16701761442
16701766752
16701771391
16701778837
16701784269
16701790129
16701794462
16701800199
16701804350
16701809904
16701815641
16701822599
16701829618
16701839262
16701847013
16701855619
16701861967
16701870634
16701880155
16701887968
16701894559
16701901578
16701909635
16701919157
16701928861
16701942960
16701950223
16701956327
16701965116
16701973417
16701980802
16701990079
16701999112
16702005826
16702013822
16702022733
16702030301
16702037503
16702044950
16702052152
16702060025
16702067472
16702070401
16702080167
16702087552
16702094388
16702101773
16702109097
16702116910
16702122830
16702131375
16702138760
16702144498
16702151212
16702159451
16702167691
16702174161
16702179959
16702188992
16702194791
16702202969
16702207364
16702218106
16702225552
16702232876
16702237149
16702246914
16702255093
16702262539
16702270230
16702278225
16702286465
16702292874
16702301846
16702309903
16702318203
16702327603
16702336148
16702342434
16702351834
16702361050
16702369839
16702377590
16702386257
16702394802
16702401089
16702410549
16702419277
16702426479
16702435635
16702443691
16702450771
16702459866
16702466763
16702474331
16702481228
16702490871
16702497890
16702506069
16702513027
16702523220
16702528103
16702539028
16702547939
16702557277
16702562771
16702573940
16702583828
16702592006
16702600368
16702607875
16702615566
16702622463
16702631923
16702639125
16702649562
16702659999
16702666713
16702673854
16702680812
16702689174
16702696620
16702706020
16702714321
16702723049
16702731654
16702738612
16702746791
16702754665
16702763393
16702774196
16702782680
16702790187
16702797938
16702805812
16702814174
16702824184
16702831386
16702838893
16702847926
16702855494
16702865016
16702871547
16702880031
16702886683
16702897181
16702906886
16702912318
16702922694
16702930873
16702939173
16702945521
16702955409
16702963404
16702970423
16702979090
16702987147
16702994837
16703003138
16703010768
16703016871
16703028224
16703035792
16703043238
16703051661
16703059962
16703067530
16703075648
16703084132
16703093470
16703102076
16703110560
16703118311
16703128321
16703136561
16703145167
16703152125
16703160792
16703170984
16703179285
16703189295
16703197168
16703201563
16703206446
16703210779
16703215174
16703222498
16703227808
16703232874
16703236170
16703242578
16703248011
16703253138
16703258325
16703264307
