16773906704
16773912747
16773918545
16773923062
16773928982
16773934963
16773941250
16773946621
16773952908
16773958767
16773965054
16773971767
16773977810
16773983303
16773989040
16773996243
16774004910
16774011013
16774015957
16774023708
16774030422
16774036220
16774043239
16774048672
16774055019
16774060390
16774066555
16774072719
16774079128
16774085354
16774091518
16774098476
16774103664
16774111965
16774117397
16774123623
16774128872
16774134426
16774140712
16774146328
16774152980
16774161403
16774174282
16774180263
16774186733
16774191860
16774196193
16774202785
16774207485
16774213405
16774218593
16774224208
16774230251
16774235622
16774241115
16774246242
16774251369
16774257045
16774262843
16774267909
16774273036
16774278590
16774284084
16774289821
16774296779
16774302516
16774308376
16774314479
16774320583
16774326930
16774333461
16774339809
16774347438
16774354945
16774362636
16774367579
16774376185
16774383143
16774389247
16774396144
16774405116
16774411342
16774418971
16774426112
16774433436
16774441005
16774448085
16774457728
16774466883
16774474818
16774480250
16774488124
16774494349
16774502406
16774508387
16774514735
16774520655
16774529078
16774537074
16774543177
16774550684
16774556727
16774563136
16774572108
16774577601
16774587733
16774593897
16774600550
16774608363
16774613978
16774621912
16774629847
16774636927
16774645960
16774655115
16774666651
16774678553
16774684717
16774695582
16774701441
16774709864
16774715723
16774722986
16774730921
16774737330
16774745142
16774753504
16774759546
16774766809
16774773035
16774780054
16774785669
16774792688
16774799219
16774806421
16774813196
16774821008
16774826502
16774834375
16774840357
16774848108
16774854883
16774861292
16774866602
16774872644
16774880884
16774887720
16774896326
16774903467
16774911706
16774919275
16774925684
16774932275
16774941247
16774945825
16774955896
16774961755
16774969263
16774975732
16774981653
16774987756
16774998010
16775004297
16775010644
16775018945
16775025659
16775035119
16775041894
16775048059
16775054101
16775062646
16775069238
16775075402
16775084802
16775092248
16775098901
16775106042
16775112756
16775118554
16775127221
16775133874
16775140832
16775148034
16775154809
16775162011
16775168908
16775176537
16775183617
16775190514
16775200219
16775208703
16775217065
16775225487
16775233666
16775240563
16775248437
16775255456
16775262902
16775269799
16775276879
16775283776
16775289757
16775294701
16775300988
16775306664
16775314537
16775321312
16775329857
16775336327
16775343651
16775349755
16775355492
16775361473
16775366234
16775370812
16775376244
16775382103
16775386742
16775390709
16775396080
16775402367
16775407555
16775412255
16775417259
16775421959
16775426964
16775432030
16775436485
16775442101
16775448509
16775454369
16775460472
16775466637
16775471275
16775477379
16775481895
16775486168
16775491600
16775495995
16775501305
16775507042
16775512230
16775516380
16775520836
16775526329
16775531273
16775536766
16775542381
16775546715
16775551964
16775557457
16775560936
16775566368
16775572960
16775578270
16775583458
16775589988
16775595298
16775601829
16775607872
16775614463
16775620323
16775625938
16775631370
16775635826
16775641868
16775647422
16775652732
16775658653
16775663963
16775669273
16775674583
16775679649
16775684837
16775690574
16775694663
16775700889
16775706993
16775712974
16775719016
16775725242
16775731040
16775736961
16775742942
16775748069
16775753928
16775759910
16775765586
16775770896
16775776939
16775782066
16775787376
16775792930
16775798484
16775803489
16775810996
16775816367
16775823020
16775829246
16775837180
16775847983
16775854819
16775862998
16775869346
16775875388
16775880454
16775885886
16775891196
16775896811
16775902060
16775907309
16775912375
16775918479
16775923301
16775929038
16775933860
16775938376
16775943808
16775948569
16775955710
16775959983
16775965476
16775971091
16775975730
16775982138
16775986716
16775991721
16775997580
16776002890
16776007529
16776012961
16776018942
16776024375
16776028891
16776034323
16776040244
16776045798
16776051657
16776057333
16776062705
16776068686
16776072958
16776078329
16776083823
16776089682
16776096213
16776102255
16776107809
16776114279
16776120261
16776126059
16776133322
16776139975
16776145956
16776151938
16776157309
16776163229
16776168478
16776174460
16776180319
16776186606
16776192038
16776198141
16776203451
16776209433
16776214743
16776220663
16776228109
16776231894
16776237997
16776245077
16776250631
16776255636
16776261312
16776267721
16776273825
16776278341
16776285543
16776290670
16776296408
16776301473
16776307211
16776314474
16776320150
16776325826
16776330892
16776336385
16776342428
16776350179
16776360616
16776370443
16776378744
16776384969
16776397115
16776402792
16776413290
16776422323
16776438192
16776445211
16776454488
16776463582
16776472188
16776479818
16776488057
16776496419
16776504659
16776512594
16776520711
16776530111
16776538228
16776544515
16776552510
16776561116
16776569173
16776577108
16776585408
16776593709
16776602315
16776611165
16776619161
16776627217
16776635213
16776642781
16776650960
16776659383
16776667439
16776676656
16776684834
16776691670
16776701802
16776709187
16776717305
16776725239
16776733113
16776740498
16776748616
16776757405
16776765828
16776773274
16776780476
16776790059
16776798115
16776805745
16776813069
16776823689
16776832051
16776839863
16776848164
16776854695
16776861714
16776869038
16776879780
16776885029
16776895893
16776904377
16776911518
16776918965
16776928120
16776933247
16776943989
16776951435
16776959431
16776967487
16776976337
16776984394
16776991413
16776999653
16777009357
16777017414
16777026020
16777031940
16777040668
16777048847
16777055927
16777066181
16777073261
16777081562
16777090046
16777098102
16777105793
16777113910
16777123127
16777130512
16777140522
16777149005
16777156208
16777165485
16777173786
16777180988
16777188251
16777197284
16777205341
16777218463
16777229938
16777237506
16777246295
16777256183
16777265460
16777274921
16777284076
16777291522
16777300372
16777309283
16777317462
16777324664
16777332843
16777341815
16777349994
16777357013
16777365130
16777373004
16777381305
16777390948
16777399249
16777407061
16777415057
16777421588
16777431536
16777439227
16777447589
16777454119
16777461261
16777470050
16777477252
16777487445
16777494769
16777502825
16777510089
16777520220
16777527361
16777535418
16777544695
16777549944
16777560503
16777565752
16777576434
16777584612
16777591936
16777599200
16777608599
16777616167
16777626177
16777631548
16777639971
16777650286
16777656939
16777665178
16777672686
16777683123
16777690203
16777698259
16777705156
16777715227
16777722795
16777731218
16777739641
16777747820
16777756182
16777761858
16777767534
16777773455
16777779375
16777785662
16777790911
16777797319
16777804155
16777810076
16777814775
16777820635
16777826433
16777832109
16777837236
16777843828
16777851213
16777856767
16777863847
16777869463
16777872697
16777877336
16777880937
16777887529
16777893938
16777899553
16777905717
16777910844
16777915300
16777920671
16777926103
16777931962
16777937150
16777946184
16777951921
16777960954
16777967302
16777974992
16777980729
16777991472
16777998307
16778004411
16778010331
16778017472
16778022355
16778029435
16778035966
16778042375
16778047746
16778052995
16778058366
16778063188
16778068437
16778073808
16778079057
16778083634
16778088883
16778094499
16778100297
16778106950
16778110612
16778116532
16778123368
16778128800
16778135453
16778139237
16778146561
16778152482
16778160477
16778164689
16778173051
16778178849
16778185136
16778190263
16778195695
16778202286
16778206254
16778214188
16778220231
16778225297
16778231217
16778236405
16778241898
16778246720
16778253861
16778261674
16778268021
16778275040
16778280777
16778285599
16778291398
16778296769
16778302689
16778308243
16778313858
16778320816
16778324967
16778331559
16778337723
16778343216
16778349320
16778356827
16778364029
16778370560
16778376480
16778382096
16778388993
16778394730
16778400650
16778406510
16778413651
16778420059
16778426529
16778431168
16778438370
16778444046
16778450455
16778457840
16778461685
16778468704
16778472366
16778477615
16778484146
16778489944
16778497147
16778503311
16778510513
16778517349
16778522903
16778532059
16778541336
16778550735
16778558182
16778566543
16778575943
16778588577
16778598404
16778605240
16778615493
16778623794
16778633377
16778639846
16778647659
16778655777
16778663284
16778670974
16778677322
16778681777
16778690750
16778696487
16778702102
16778706680
16778712722
16778719436
16778726150
16778730666
16778737685
16778743118
16778747756
16778753127
16778758620
16778764907
16778770095
16778776443
16778783096
16778789870
16778796279
16778802627
16778807510
16778812820
16778820022
16778823928
16778830642
16778836989
16778845656
16778851943
16778858352
16778864272
16778870742
16778876845
16778883437
16778889724
16778895705
16778901259
16778905898
16778910964
16778917861
16778922927
16778929641
16778938796
16778944045
16778949843
16778956069
16778961867
16778967238
16778972304
16778978896
16778986159
16778994887
16779002883
16779012709
16779021010
16779028029
16779036452
16779047316
16779055495
16779062941
16779072035
16779079298
16779089491
16779097792
16779105910
16779114210
16779123244
16779130995
16779139845
16779147535
16779155409
16779163283
16779170973
16779181532
16779188551
16779197828
16779205519
16779216566
16779225172
16779233351
16779241407
16779250318
16779259657
16779268446
16779278334
16779287000
16779295667
16779306654
16779318372
16779325880
16779336561
16779344923
16779353651
16779361890
16779370252
16779378187
16779386182
16779393629
16779401380
16779408704
16779417615
16779424818
16779436536
16779444898
16779451490
16779459607
16779466260
16779475660
16779482374
16779489331
16779501477
16779507703
16779514356
16779523694
16779530347
16779537671
16779546155
16779550916
16779560498
16779570386
16779577039
16779585340
16779591809
16779598706
16779607434
16779615064
16779622693
16779632153
16779638745
16779646314
16779655225
16779663586
16779670117
16779677441
16779685254
16779695569
16779702038
16779709302
16779715893
16779723828
16779732495
16779737439
16779748181
16779756726
16779763501
16779771008
16779779553
16779787487
16779794384
16779804394
16779815014
16779821850
16779829602
16779836926
16779844433
16779852795
16779860058
16779866589
16779876721
16779883923
16779891491
16779897961
16779904492
16779914135
16779921764
16779930615
16779938671
16779947216
16779954723
16779961620
16779969128
16779977001
16779984447
16779991222
16780000988
16780007519
16780014171
16780023815
16780031627
16780038769
16780045482
16780056286
16780065197
16780077282
16780085888
16780098888
16780109691
16780119701
16780130565
16780138134
16780145580
16780153148
16780160594
16780168163
16780176402
16780184337
16780190624
16780197765
16780205821
16780213023
16780219432
16780226695
16780232921
16780240245
16780248302
16780255443
16780262462
16780267955
16780275584
16780282786
16780291148
16780298411
16780304759
16780311961
16780318492
16780323863
16780328258
16780334056
16780340953
16780345958
16780350902
16780354991
16780361400
16780367198
16780372508
16780377025
16780381541
16780387034
16780391978
16780396434
16780401439
16780405711
16780411387
16780418711
16780423899
16780430064
16780435618
16780440623
16780446116
16780451853
16780456858
16780462229
16780468089
16780472422
16780477000
16780481394
16780487498
16780491831
16780497569
16780502207
16780507151
16780511973
16780517527
16780522593
16780529429
16780534251
16780542002
16780545298
16780551035
16780556528
16780562144
16780567576
16780572520
16780582896
16780588938
16780595042
16780601389
16780606882
16780611887
16780617136
16780622263
16780627573
16780634836
16780640024
16780645273
16780651438
16780656504
16780664805
16780670237
16780677073
16780685617
16780691843
16780697031
16780704599
16780709848
16780715219
16780721689
16780726694
16780732614
16780737436
16780742563
16780749338
16780753733
16780758859
16780763742
16780770456
16780775034
16780780405
16780787363
16780792490
16780797251
16780802683
16780807504
16780814035
16780818491
16780823740
16780829599
16780834909
16780839975
16780845407
16780850778
16780856149
16780863473
16780868478
16780874704
16780879770
16780885934
16780891733
16780895822
16780901193
16780908212
16780913766
16780918405
16780924325
16780931100
16780936349
16780942026
16780947519
16780953378
16780959054
16780965524
16780971383
16780977060
16780982858
16780987863
16780993356
16780999704
16781005502
16781011239
16781017099
16781021615
16781027291
16781033456
16781039376
16781047982
16781054025
16781059701
16781068490
16781074594
16781080392
16781086740
16781092538
16781098153
16781104379
16781110543
16781116341
16781122323
16781127877
16781133736
16781139230
16781144234
16781151131
16781155465
16781160592
16781165902
16781171334
16781176949
16781182076
16781186837
16781193429
16781199105
16781204415
16781209298
16781214486
16781219247
16781225777
16781232430
16781239815
16781248299
16781252999
16781260689
16781268868
16781275399
16781284310
16781289925
16781296029
16781301400
16781308419
16781312264
16781320381
16781325875
16781331734
16781337838
16781343880
16781349678
16781355171
16781360604
16781366097
16781373116
16781378548
16781383370
16781388802
16781394539
16781400032
16781405159
16781410652
16781415718
16781421089
16781427620
16781431465
16781441597
16781449593
16781456490
16781463753
16781473762
16781481331
16781491890
16781497383
16781508613
16781514107
16781524727
16781532234
16781539070
16781549812
16781556404
16781564521
16781573616
16781581916
16781589180
16781597541
16781607490
16781615486
16781621894
16781632637
16781639411
16781650337
16781657539
16781665168
16781676338
16781681953
16781694892
16781700080
16781711555
16781720161
16781727607
16781736396
16781743964
16781754768
16781763801
16781773139
16781780646
16781788520
16781795966
16781802558
16781811957
16781818854
16781826362
16781835334
16781842963
16781850470
16781858100
16781866218
16781873481
16781881842
16781889350
16781897406
16781904975
16781911994
16781919684
16781928473
16781936713
16781945746
16781954169
16781963141
16781973578
16781979804
16781988288
16781998663
16782006842
16782020636
16782031317
16782038824
16782045721
16782055182
16782062689
16782070807
16782077521
16782084723
16782091559
16782099432
16782106940
16782115301
16782122503
16782130133
16782137701
16782147284
16782155096
16782161810
16782170843
16782177679
16782186590
16782193304
16782202764
16782210333
16782217901
16782224554
16782233892
16782241339
16782249090
16782256475
16782264410
16782271856
16782279608
16782287237
16782295721
16782303167
16782311102
16782318731
16782325750
16782338079
16782344610
16782353460
16782363042
16782372015
16782379217
16782386236
16782392400
16782400152
16782406377
16782414922
16782421575
16782430364
16782437444
16782445745
16782452764
16782458928
16782466008
16782473760
16782484258
16782491887
16782499456
16782506047
16782513921
16782522832
16782530400
16782538579
16782547124
16782554265
16782561955
16782570378
16782577886
16782585332
16782592534
16782600530
16782608586
16782615666
16782623296
16782631230
16782638676
16782646672
16782654362
16782662053
16782670109
16782677556
16782684209
16782693791
16782701604
16782708195
16782714848
16782727116
16782737431
16782751408
16782762150
16782770634
16782781376
16782790348
16782797917
16782803654
16782809574
16782816471
16782821171
16782826176
16782832279
16782837773
16782842839
16782848210
16782853520
16782859379
16782864811
16782870793
16782877323
16782884831
16782889897
16782895878
16782901554
16782906193
16782911259
16782916813
16782922489
16782927921
16782932621
16782938358
16782944584
16782951176
16782955509
16782960880
16782966740
16782972843
16782977726
16782983097
16782986393
16782991764
16782997623
16783002506
16783006107
16783013370
16783019779
16783024601
16783027958
16783033146
16783038028
16783043216
16783049198
16783055973
16783061649
16783067386
16783072879
16783077762
16783083683
16783087711
16783093448
16783101444
16783107853
16783112674
16783118656
16783123844
16783129032
16783133609
16783138919
16783144596
16783150150
16783155826
16783161991
16783165592
16783172183
16783176090
16783183475
16783188480
16783193302
16783199161
16783204166
16783210086
16783215518
16783220767
16783225345
16783231265
16783236087
16783243350
16783248721
16783254153
16783258487
16783263675
16783269046
16783276248
16783284610
16783291141
16783298221
16783304507
16783310489
16783318240
16783323184
16783330691
16783339297
16783344973
16783354617
16783359012
16783366458
16783371951
16783377688
16783382449
16783387637
16783391726
16783396243
16783400576
16783405520
16783411868
16783417483
16783422427
16783427432
16783431887
16783437380
16783441836
16783447085
16783452334
16783459170
16783463503
16783468752
16783473879
16783479495
16783484377
16783489260
16783494326
16783499453
16783505007
16783509951
16783514468
16783519228
16783524233
16783529238
16783534731
16783540224
16783545168
16783550295
16783555605
16783561587
16783566469
16783571169
16783576174
16783583193
16783589358
16783594668
16783602846
16783607180
16783613772
16783617495
16783625612
16783632204
16783638125
16783641482
16783647280
16783653994
16783659243
16783664064
16783668886
16783676149
16783680239
16783686708
16783690859
16783697634
16783703432
16783707460
16783712831
16783717958
16783725344
16783730165
16783736147
16783742189
16783747866
16783752626
16783758364
16783764833
16783771059
16783776796
16783782655
16783787294
16783792848
16783797731
16783803102
16783806703
16783813173
16783820192
16783824892
16783828676
16783834352
16783840211
16783846498
16783849977
16783861940
16783867677
16783873903
16783880922
16783887514
16783893983
16783900880
16783908449
16783915101
16783925233
16783930421
16783940065
16783945375
16783953981
16783961732
16783971315
16783977540
16783984620
16783991090
16783999025
16784003663
16784011415
16784018067
16784027772
16784035279
16784041322
16784048646
16784054688
16784062257
16784069947
16784077821
16784088441
16784095887
16784102235
16784110047
16784117249
16784124818
16784133485
16784141663
16784149781
16784157410
16784164674
16784172486
16784182007
16784187562
16784195923
16784203370
16784212342
16784220887
16784229126
16784237122
16784243531
16784250428
16784257019
16784263184
16784271790
16784279663
16784288636
16784295960
16784304627
16784310730
16784319031
16784325684
16784333069
16784341431
16784350098
16784356446
16784365296
16784371887
16784380798
16784387390
16784394348
16784403931
16784409485
16784416626
16784424561
16784432007
16784439514
16784448242
16784456665
16784465698
16784473877
16784481262
16784488830
16784496765
16784502746
16784511902
16784519348
16784525024
16784534912
16784541321
16784548889
16784555969
16784562744
16784572204
16784578857
16784583862
16784596801
16784605529
16784612854
16784620666
16784628295
16784638915
16784646911
16784658630
16784671020
16784679504
16784688781
16784698791
16784704711
16784714355
16784719909
16784729675
16784736877
16784743468
16784752441
16784759643
16784769225
16784776671
16784785949
16784793761
16784803344
16784810668
16784820495
16784829040
16784837157
16784844909
16784853515
16784861327
16784868041
16784875365
16784882750
16784890990
16784898009
16784905333
16784914061
16784921385
16784929076
16784936339
16784942382
16784952147
16784958434
16784967162
16784974181
16784984190
16784989317
16784999144
16785004027
16785014403
16785019225
16785028258
16785038634
16785044920
16785052550
16785060911
16785068663
16785076720
16785084959
16785092711
16785100645
16785108519
16785116209
16785123716
16785131407
16785138670
16785146055
16785153807
16785161741
16785168821
16785176146
16785182676
16785190306
16785197081
16785204832
16785212706
16785220518
16785227903
16785235350
16785241636
16785249204
16785255735
16785261900
16785268980
16785273130
16785279295
16785283140
16785288450
16785294065
16785298887
16785304807
16785312132
16785315977
16785322813
16785326658
16785334226
16785338621
16785344480
16785348753
16785357236
16785362852
16785370176
16785376462
16785383542
16785389524
16785396848
16785405759
16785413205
16785417661
16785423032
16785428159
16785434263
16785440122
16785445554
16785450071
16785455747
16785461850
16785467466
16785472715
16785478757
16785483701
16785489621
16785495542
16785501340
16785507444
16785513852
16785520322
16785526303
16785530881
16785536984
16785543759
16785550107
16785560178
16785564816
16785570004
16785575437
16785581540
16785587827
16785594174
16785601071
16785608029
16785613156
16785620114
16785624692
16785629941
16785635678
16785647580
16785654050
16785660153
16785666379
16785672299
16785675717
16785681882
16785686764
16785693417
16785700253
16785705502
16785709164
16785716855
16785722348
16785726681
16785732541
16785738156
16785745602
16785751400
16785755978
16785761654
16785766659
16785774166
16785778927
16785784298
16785790036
16785795590
16785800350
16785805538
16785811337
16785816036
16785822079
16785825497
16785831295
16785839352
16785844662
16785850094
16785854305
16785859371
16785865902
16785869991
16785877499
16785883297
16785888973
16785894894
16785900753
16785904293
16785910275
16785914974
16785920712
16785927975
16785933956
16785940731
16785944332
16785952999
16785956966
16785964718
16785971554
16785981563
16785987484
16785994320
16786001156
16786008602
16786013729
16786020076
16786025020
16786031124
16786036556
16786041195
16786046505
16786052913
16786058468
16786064937
16786068416
16786075496
16786080318
16786085567
16786090145
16786096248
16786100887
16786105953
16786111263
16786118282
16786124446
16786131221
16786137447
16786142696
16786148738
16786155818
16786162532
16786169124
16786172847
16786180232
16786189266
16786196346
16786203365
16786207515
16786214168
16786221431
16786226375
16786232845
16786238094
16786243159
16786248775
16786254878
16786263667
16786269221
16786274287
16786280269
16786286128
16786291621
16786297664
16786302608
16786309688
16786315486
16786320430
16786326533
16786333064
16786338618
16786343196
16786348140
16786356318
16786362544
16786367793
16786373103
16786379939
16786384822
16786388484
16786396052
16786403376
16786409297
16786413081
16786421015
16786426020
16786430293
16786436457
16786442561
16786450495
16786457636
16786465937
16786473506
16786481867
16786489069
16786493952
16786503107
16786511591
16786519160
16786527827
16786536555
16786543635
16786551630
16786560236
16786570063
16786577631
16786583430
16786594538
16786601923
16786611750
16786618342
16786629145
16786640192
16786649042
16786658442
16786669062
16786677790
16786686090
16786693415
16786701349
16786708490
16786718317
16786725824
16786734857
16786741937
16786749201
16786756708
16786763727
16786770807
16786779352
16786787409
16786795770
16786803033
16786809320
16786818292
16786824884
16786833307
16786841058
16786847345
16786855035
16786863153
16786874017
16786880914
16786887750
16786896600
16786903192
16786911859
16786920404
16786928094
16786935174
16786943841
16786951043
16786958429
16786964044
16786973199
16786980340
16786985162
16786994866
16787001886
16787007806
16787015130
16787022882
16787032647
16787042535
16787050347
16787056390
16787063897
16787071465
16787078790
16787086785
16787094720
16787103875
16787112237
16787118951
16787127007
16787135308
16787142693
16787148980
16787156182
16787164788
16787171502
16787180657
16787187005
16787193841
16787202263
16787210137
16787216179
16787223687
16787234063
16787239739
16787247551
16787258294
16787264458
16787271843
16787279168
16787286553
16787295220
16787303215
16787309807
16787319451
16787326409
16787333855
16787341179
16787348625
16787355950
16787364861
16787373833
16787381828
16787388969
16787397148
16787407402
16787415825
16787424736
16787438530
16787445183
16787455742
16787464348
16787472282
16787482292
16787490043
16787497490
16787503959
16787511772
16787519035
16787527031
16787536308
16787544487
16787553581
16787561454
16787567741
16787576408
16787583549
16787590568
16787599601
16787606620
16787611991
16787620902
16787626884
16787634879
16787641288
16787650321
16787656486
16787663505
16787670341
16787680412
16787687370
16787695365
16787703605
16787707999
16787716911
16787723502
16787733085
16787739982
16787750236
16787754813
16787763785
16787770316
16787778007
16787786979
16787791739
16787803824
16787809073
16787814872
16787818595
16787824820
16787830863
16787836051
16787841483
16787847098
16787854544
16787863578
16787871512
16787878714
16787886771
16787895255
16787903617
16787913077
16787918936
16787923392
16787928031
16787932608
16787937735
16787943045
16787948294
16787953177
16787958426
16787962576
16787967459
16787972403
16787977652
16787983511
16787988455
16787992606
16787996695
16788001028
16788004996
16788008902
16788013235
16788020132
16788025320
16788029776
16788034109
16788038748
16788044668
16788048270
16788052908
16788058645
16788065726
16788070730
16788076773
16788083487
16788088492
16788093680
16788102530
16788108267
16788113943
16788119253
16788125296
16788130484
16788135061
16788141287
16788145193
16788150686
16788155508
16788159292
16788164968
16788169546
16788175955
16788181448
16788185842
16788191152
16788195364
16788201467
16788205252
16788210012
16788214346
16788219473
16788224417
16788228872
16788232900
16788236807
16788242117
16788247854
16788253896
16788258779
16788263479
16788268301
16788274954
16788280508
16788285696
16788292104
16788298452
16788301809
16788307668
16788312185
16788317556
16788322439
16788327993
16788334035
16788338552
16788344106
16788348928
16788353750
16788359670
16788364919
16788370901
16788378042
16788384694
16788390005
16788394948
16788400258
16788403615
16788409353
16788414419
16788421193
16788425893
16788429982
16788436330
16788440725
16788446767
16788451528
16788457021
16788465017
16788471486
16788477956
16788484731
16788492726
16788498586
16788504079
16788509145
16788514882
16788520680
16788527089
16788533010
16788538625
16788543935
16788548024
16788554860
16788561757
16788568288
16788572255
16788578786
16788584218
16788588551
16788595448
16788603810
16788610341
16788617909
16788624379
16788628590
16788638051
16788642140
16788650319
16788654164
16788661305
16788666493
16788670949
16788675648
16788682240
16788687428
16788692189
16788698170
16788703602
16788708729
16788713978
16788719471
16788725636
16788732045
16788741017
16788745594
16788753346
16788759205
16788765370
16788771046
16788776356
16788782460
16788787770
16788793019
16788799061
16788805226
16788810902
16788815052
16788819691
16788825428
16788831104
16788836842
16788842396
16788847584
16788853932
16788858875
16788864369
16788870350
16788875477
16788879932
16788886036
16788894032
16788901478
16788907825
16788915150
16788921497
16788928150
16788938038
16788944263
16788951649
16788958546
16788967090
16788976002
16788983692
16788990345
16788998707
16789005237
16789012745
16789019275
16789026966
16789034229
16789041675
16789049183
16789056446
16789064136
16789071826
16789079761
16789087696
16789095569
16789103198
16789111499
16789119739
16789127246
16789135547
16789143237
16789152149
16789160510
16789165759
16789173145
16789182056
16789192615
16789200977
16789209582
16789216846
16789224414
16789231982
16789240222
16789247424
16789255481
16789265185
16789286853
16789296740
16789302417
16789312488
16789320056
16789329394
16789336902
16789347644
16789356494
16789364733
16789372668
16789380786
16789387866
16789396289
16789404284
16789410693
16789418505
16789426562
16789434619
16789443041
16789450488
16789458117
16789466235
16789474596
16789481982
16789488696
16789496142
16789504137
16789511401
16789521654
16789529833
16789535876
16789543749
16789551745
16789558642
16789565417
16789572436
16789581225
16789588671
16789595812
16789602831
16789611620
16789619616
16789627367
16789635180
16789642077
16789649401
16789657457
16789664843
16789672289
16789680223
16789686632
16789694200
16789702928
16789711168
16789718553
16789726000
16789734300
16789741747
16789749315
16789756761
16789764635
16789768907
16789779161
16789786668
16789793199
16789799913
16789808214
16789815172
16789824815
16789832567
16789839891
16789846788
16789856187
16789864061
16789872178
16789879869
16789889451
16789897203
16789904283
16789911668
16789919664
16789927110
16789932847
16789942857
16789950425
16789958116
16789966722
16789974473
16789980516
16789988145
16789996202
16790003648
16790012864
16790018235
16790028550
16790033921
16790042893
16790053269
16790060716
16790074082
16790082383
16790091904
16790101670
16790109666
16790118088
16790126694
16790134568
16790141221
16790150376
16790157578
16790162522
16790172227
16790180222
16790187790
16790194199
16790201645
16790208725
16790218613
16790225754
16790234116
16790240769
16790245774
16790255234
16790262253
16790268662
16790274033
16790278977
16790284348
16790291062
16790296616
16790300644
16790305710
16790311569
16790317002
16790323532
16790329392
16790335495
16790341782
16790347275
16790352829
16790360092
16790366562
16790373276
16790379746
16790384628
16790390366
16790396347
16790402084
16790408249
16790414230
16790418991
16790424667
16790430221
16790435470
16790441818
16790446823
16790452133
16790458908
16790464096
16790468612
16790474594
16790481613
16790487289
16790492782
16790498398
16790504867
16790511093
16790516403
16790520004
16790526901
16790533126
16790538253
16790543319
16790548629
16790556259
16790562179
16790567550
16790573226
16790578842
16790585067
16790591964
16790598800
16790604904
16790611068
16790615768
16790622970
16790628585
16790634017
16790640426
16790645919
16790652084
16790658920
16790666549
16790672347
16790678573
16790684005
16790690719
16790696395
16790702682
16790707931
16790713851
16790720992
16790727645
16790733932
16790739974
16790746200
16790752791
16790760360
16790767501
16790776717
16790782149
16790787154
16790792891
16790798629
16790803878
16790809249
16790815474
16790820540
16790825789
16790831221
16790836531
16790841780
16790847213
16790852340
16790858382
16790864180
16790869734
16790875655
16790880599
16790885848
16790890486
16790895552
16790904158
16790909407
16790914534
16790919783
16790924300
16790929488
16790934981
16790940962
16790947981
16790952071
16790959090
16790962935
16790970137
16790975020
16790980818
16790986617
16790992049
16791000166
16791005598
16791012984
16791016768
16791022444
16791028609
16791034834
16791040449
16791046065
16791051741
16791057966
16791064070
16791070296
16791075606
16791081770
16791086775
16791093550
16791099165
16791104353
16791110090
16791116438
16791120039
16791126875
16791131941
16791137312
16791143232
16791149336
16791156172
16791162397
16791167280
16791174360
16791181806
16791191145
16791199995
16791210310
16791217024
16791225324
16791232343
16791241194
16791248640
16791260908
16791272810
16791281232
16791288435
16791295759
16791303388
16791310712
16791319929
16791327375
16791335981
16791345014
16791351911
16791359785
16791368940
16791377241
16791386335
16791393903
16791402021
16791410566
16791418866
16791427228
16791432965
16791442853
16791452253
16791459760
16791467206
16791475507
16791483014
16791491315
16791498883
16791507916
16791515058
16791521955
16791529401
16791536725
16791546002
16791552838
16791560346
16791571210
16791580914
16791592206
16791599957
16791607770
16791620587
16791629498
16791640057
16791649335
16791657879
16791666791
16791677960
16791686993
16791697125
16791708477
16791717999
16791728009
16791737286
16791748272
16791756207
16791767498
16791779278
16791790264
16791800579
16791810955
16791819317
16791829937
16791838238
16791851177
16791858929
16791869732
16791878582
16791888775
16791896770
16791917217
16791935711
16791957012
16791974712
16791992840
16792014934
16792034587
16792054363
16792073467
16792093730
16792105754
16792115398
16792126689
16792141399
16792160259
16792178447
16792197856
16792215800
16792227031
16792236735
16792246135
16792256206
16792265788
16792275432
16792286418
16792297404
16792307841
16792315715
16792325602
16792335063
16792344889
16792355876
16792365397
16792376139
16792386210
16792395121
16792405131
16792414347
16792423991
16792432780
16792443217
16792452494
16792462992
16792472330
16792483012
16792492289
16792505106
16792513163
16792523295
16792532511
16792542032
16792554606
16792563578
16792572489
16792584452
16792592386
16792602884
16792610758
16792622171
16792631266
16792641458
16792650675
16792660135
16792669107
16792679605
16792688516
16792696817
16792705789
16792716898
16792726480
16792736856
16792746439
16792755411
16792765176
16792774881
16792787515
16792795389
16792804117
16792814371
16792823770
16792831827
16792842813
16792851114
16792862649
16792870462
16792880838
16792892373
16792901895
16792908120
16792914468
16792924356
16792932412
16792938760
16792946328
16792952066
16792958169
16792964578
16792972940
16792980264
16792986795
16792993386
16792999429
16793007302
16793012795
16793020486
16793026956
16793033059
16793040933
16793047524
16793053323
16793061074
16793067117
16793074563
16793080910
16793087991
16793094826
16793102700
16793113564
16793121072
16793129983
16793140298
16793147317
16793155495
16793162209
16793169777
16793178566
16793185280
16793193154
16793199440
16793206093
16793212441
16793219094
16793225380
16793232643
16793240090
16793246620
16793252236
16793257057
16793261940
16793267800
16793272988
16793279701
16793283425
16793290871
16793296486
16793301613
16793306923
16793311257
16793316750
16793322792
16793327919
16793333473
16793336647
16793345680
16793348915
16793355202
16793362160
16793367409
16793371315
16793381691
16793388100
16793393898
16793397987
16793404030
16793409462
16793416237
16793422279
16793426491
16793433327
16793437477
16793442909
16793449379
16793454445
16793460853
16793466896
16793473304
16793477028
16793483803
16793489662
16793494545
16793499977
16793505958
16793511634
16793517311
16793522743
16793529090
16793533302
16793539100
16793545448
16793552040
16793555702
16793565589
16793572120
16793577491
16793583778
16793590431
16793595924
16793600868
16793606849
16793612647
16793618568
16793624915
16793631080
16793635719
16793641822
16793648109
16793653968
16793660011
16793666297
16793672645
16793678687
16793682838
16793688941
16793695350
16793701026
16793707557
16793711341
16793718055
16793725501
16793731483
16793738135
16793744544
16793751563
16793757911
16793764747
16793771399
16793777747
16793785010
16793788978
16793795203
16793800513
16793805701
16793811560
16793817664
16793823584
16793828589
16793834143
16793840430
16793845130
16793850379
16793855750
16793860755
16793866187
16793871863
16793877906
16793883643
16793889197
16793895362
16793901343
16793907935
16793911353
16793918189
16793923743
16793928931
16793933997
16793940711
16793946753
16793951575
16793956458
16793961890
16793967017
16793973669
16793979285
16793983008
16793991309
16793996374
16794001318
16794007422
16794012793
16794016760
16794022742
16794028906
16794037146
16794040808
16794046545
16794052221
16794058691
16794063635
16794069494
16794075964
16794082800
16794089087
16794094763
16794099829
16794106482
16794110571
16794117895
16794121984
16794129797
16794135534
16794139379
16794147863
16794152319
16794157812
16794164099
16794169958
16794176306
16794182226
16794188513
16794195165
16794201574
16794207372
16794213354
16794219030
16794223364
16794232519
16794238805
16794244543
16794251318
16794257543
16794261388
16794267736
16794273534
16794280248
16794286169
16794292882
16794298376
16794304540
16794309911
16794313940
16794322484
16794327306
16794334569
16794345312
16794351354
16794356908
16794363744
16794370458
16794376806
16794382970
16794388524
16794395055
16794400792
16794405248
16794410863
16794415685
16794423070
16794431615
16794439611
16794447484
16794455052
16794461705
16794468968
16794477208
16794484838
16794493199
16794501073
16794509618
16794517125
16794524693
16794532201
16794538609
16794546666
16794556004
16794563695
16794571873
16794579869
16794585667
16794593236
16794602208
16794609593
16794616917
16794624303
16794632969
16794637974
16794645115
16794653843
16794660496
16794668797
16794675450
16794683140
16794691319
16794700108
16794708043
16794714817
16794723423
16794731358
16794739231
16794749241
16794755162
16794764805
16794772740
16794779759
16794787876
16794796238
16794801426
16794812168
16794820164
16794828770
16794836094
16794845860
16794852695
16794861240
16794869358
16794877415
16794886509
16794894565
16794902317
16794910801
16794918308
16794926426
16794935215
16794941257
16794951572
16794956882
16794967685
16794972568
16794981479
16794988437
16794998203
16795020908
16795029575
16795038425
16795046360
16795055271
16795063327
16795070285
16795078708
16795087497
16795093723
16795104404
16795110568
16795120273
16795127780
16795136935
16795144443
16795155734
16795164096
16795172458
16795181796
16795188815
16795195956
16795204684
16795210788
16795220553
16795228122
16795235324
16795243075
16795251010
16795258273
16795264560
16795271396
16795280429
16795287082
16795295810
16795303073
16795311068
16795320712
16795325961
16795334750
16795344943
16795351168
16795358370
16795364901
16795374789
16795381442
16795388949
16795397067
16795404452
16795411349
16795418856
16795427523
16795434969
16795441744
16795449374
16795457796
16795467257
16795475741
16795484713
16795491915
16795499666
16795507479
16795514925
16795522372
16795530123
16795538729
16795546236
16795553560
16795561495
16795569674
16795577364
16795584139
16795591158
16795599886
16795606844
16795617952
16795625582
16795633333
16795641085
16795647859
16795654634
16795662386
16795669649
16795678255
16795686006
16795694429
16795701509
16795708467
16795718172
16795725618
16795732210
16795740450
16795747041
16795753694
16795760713
16795767976
16795776521
16795784639
16795791963
16795799287
16795807527
16795815278
16795822786
16795828218
16795833955
16795839631
16795844514
16795850313
16795856416
16795862397
16795867341
16795872224
16795879182
16795884492
16795894014
16795898652
16795907441
16795911592
16795918550
16795925203
16795930329
16795936006
16795944062
16795947602
16795954804
16795960237
16795964936
16795969819
16795976289
16795981904
16795988008
16795991731
16795998139
16796003632
16796009553
16796014375
16796017915
16796025056
16796032441
16796038606
16796044221
16796049592
16796055329
16796061860
16796065522
16796072236
16796078156
16796083466
16796089631
16796095307
16796099396
16796105439
16796110993
16796115937
16796121857
16796128388
16796134797
16796140473
16796146943
16796152314
16796156220
16796162812
16796167817
16796173127
16796179779
16796183686
16796191864
16796196930
16796201569
16796207672
16796213349
16796218964
16796224701
16796230927
16796236359
16796241913
16796247772
16796254120
16796258698
16796263703
16796270661
16796275910
16796281891
16796286469
16796292267
16796298126
16796304291
16796309601
16796315216
16796322174
16796327728
16796333527
16796336945
16796344025
16796349518
16796352692
16796359161
16796364899
16796372772
16796376312
16796382538
16796388336
16796394440
16796399933
16796405121
16796411407
16796417938
16796422699
16796428558
16796434173
16796439483
16796444610
16796450592
16796455597
16796461395
16796468292
16796475433
16796482818
16796492706
16796494781
16796508392
16796516449
16796522491
16796528167
16796535858
16796543060
16796547760
16796553192
16796559417
16796564300
16796570159
16796575958
16796582366
16796587615
16796593414
16796598541
16796602691
16796609710
16796615691
16796620696
16796626189
16796631561
16796637115
16796643768
16796648589
16796655730
16796660369
16796666595
16796672637
16796678252
16796684661
16796689849
16796695647
16796700835
16796706512
16796713592
16796718902
16796723479
16796731170
16796735137
16796740813
16796747649
16796753631
16796759551
16796765288
16796771758
16796777556
16796783477
16796789153
16796793364
16796800933
16796806121
16796812346
16796817778
16796823699
16796829497
16796833708
16796841521
16796845549
16796852507
16796858367
16796863433
16796869841
16796875517
16796879363
16796885832
16796892241
16796898528
16796902434
16796908782
16796916106
16796923735
16796929350
16796937041
16796942107
16796949614
16796955778
16796962920
16796969145
16796976164
16796980803
16796988066
16796994719
16797000395
16797007597
16797012846
16797019438
16797027128
16797032255
16797040617
16797044951
16797051542
16797058012
16797069120
16797077543
16797087309
16797096586
16797105497
16797114469
16797123014
16797131437
16797139311
16797149504
16797157804
16797167082
16797176298
16797185697
16797192777
16797200956
16797208585
16797217191
16797225126
16797234586
16797243253
16797251127
16797257841
16797265775
16797273466
16797281461
16797289884
16797297758
16797307584
16797314908
16797320890
16797331144
16797338346
16797343656
16797356107
16797361356
16797372464
16797380277
16797386869
16797395414
16797401700
16797410733
16797420377
16797426786
16797436063
16797442594
16797450040
16797456754
16797463895
16797473538
16797481168
16797490018
16797497769
16797505948
16797513394
16797519132
16797526212
16797535489
16797543057
16797551602
16797563260
16797572476
16797579922
16797587125
16797595181
16797603726
16797611905
16797619351
16797626980
16797635891
16797644925
16797652981
16797662442
16797670376
16797678433
16797687283
16797691922
16797702542
16797710904
16797719570
16797726834
16797735012
16797743252
16797753018
16797760220
16797769375
16797776638
16797786709
16797793484
16797801846
16797809170
16797818691
16797829617
16797838100
16797845913
16797852566
16797860683
16797872280
16797881435
16797890468
16797898220
16797909511
16797919216
16797929287
16797939846
16797948452
16797962978
16797969875
16797979641
16797985500
16797993435
16798003505
16798011379
16798016628
16798025661
16798033168
16798041042
16798050441
16798057521
16798063991
16798072536
16798081630
16798089137
16798096156
16798103114
16798112758
16798120082
16798127773
16798135219
16798142970
16798151332
16798158778
16798166652
16798176173
16798184169
16798191981
16798199977
16798208766
16798217799
16798224208
16798234828
16798240809
16798250453
16798257472
16798264674
16798274501
16798282313
16798289088
16798298365
16798304896
16798314051
16798323085
16798331080
16798340724
16798349085
16798356837
16798367274
16798374110
16798380457
16798387660
16798396021
16798401515
16798408595
16798414149
16798420618
16798426112
16798432276
16798438258
16798443079
16798449732
16798456690
16798461329
16798468104
16798473536
16798482081
16798488367
16798493250
16798500269
16798505518
16798511744
16798516932
16798524256
16798529749
16798536585
16798542078
16798548853
16798553858
16798560938
16798571741
16798579065
16798586084
16798592920
16798601587
16798607874
16798615015
16798619959
16798627832
16798633753
16798639490
16798643762
16798648950
16798653528
16798658960
16798665003
16798672754
16798678308
16798683862
16798687280
16798692957
16798697656
16798703943
16798709558
16798714441
16798719263
16798723108
16798727258
16798732935
16798737268
16798740686
16798747949
16798755518
16798761133
16798766443
16798771326
16798778284
16798783044
16798788904
16798793909
16798800867
16798807336
16798813196
16798817712
16798824609
16798830346
16798836206
16798841333
16798847802
16798854028
16798859582
16798865625
16798871179
16798875451
16798882165
16798888147
16798895410
16798901147
16798905664
16798912439
16798918786
16798922509
16798929650
16798934045
16798942834
16798949792
16798953088
16798959313
16798966210
16798971154
16798977563
16798983666
16798990441
16798995507
16799001794
16799006921
16799013635
16799019189
16799026086
16799031457
16799036645
16799040612
16799048119
16799054711
16799061669
16799067528
16799072777
16799080407
16799085534
16799092003
16799098839
16799105431
16799111474
16799119225
16799125207
16799129357
16799136620
16799142724
16799146935
16799154320
16799160912
16799166466
16799174157
16799181176
16799191307
16799198754
16799206505
16799214012
16799219078
16799226158
16799233422
16799237694
16799244469
16799250267
16799257958
16799262901
16799268944
16799275170
16799279869
16799284996
16799288780
16799296471
16799303795
16799307823
16799314293
16799319359
16799323326
16799330589
16799336876
16799341759
16799345421
16799352379
16799357262
16799362938
16799369713
16799375633
16799380150
16799387169
16799392357
16799398765
16799405174
16799411094
16799414940
16799421776
16799427574
16799431846
16799438804
16799444298
16799449669
16799456810
16799462669
16799468895
16799473961
16799480064
16799486778
16799491722
16799498069
16799504417
16799510215
16799516990
16799522239
16799527427
16799533042
16799538230
16799544761
16799550804
16799554954
16799562827
16799568015
16799573509
16799580345
16799584617
16799591514
16799597007
16799603172
16799610679
16799614585
16799621970
16799627952
16799631919
16799639548
16799643455
16799650169
16799656272
16799662864
16799668113
16799673789
16799680503
16799685935
16799692344
16799697837
16799703818
16799709373
16799715537
16799720969
16799727744
16799733848
16799739402
16799746299
16799752707
16799757163
16799764060
16799770957
16799774314
16799781882
16799786399
16799795432
16799802756
16799808371
16799814841
16799822592
16799828452
16799835593
16799842307
16799849875
16799857871
16799866232
16799871604
16799875327
16799882041
16799889304
16799894125
16799898154
16799905844
16799911215
16799915915
16799921957
16799927390
16799933371
16799938376
16799945273
16799951498
16799957236
16799963217
16799969443
16799975668
16799982138
16799986655
16799992880
16799998617
16800005453
16800010275
16800016134
16800021933
16800026755
16800033529
16800039389
16800045736
16800051413
16800056662
16800061911
16800068686
16800075460
16800080038
16800085897
16800092306
16800098104
16800104147
16800108908
16800114584
16800122213
16800126119
16800132467
16800138082
16800146017
16800152548
16800157980
16800163473
16800170309
16800176229
16800181600
16800186605
16800193014
16800199850
16800205892
16800210714
16800217123
16800222860
16800229086
16800234212
16800240133
16800247884
16800253744
16800259298
16800264974
16800271871
16800277364
16800283712
16800288961
16800294942
16800301351
16800307882
16800313985
16800319967
16800325094
16800331563
16800336934
16800342855
16800349263
16800353109
16800359700
16800366231
16800371541
16800377034
16800380941
16800387349
16800393941
16800400472
16800407369
16800414510
16800419637
16800427999
16800433858
16800440450
16800446797
16800453023
16800460957
16800467122
16800473836
16800479573
16800485921
16800491902
16800497273
16800502034
16800507527
16800513203
16800519490
16800525288
16800530843
16800535847
16800541341
16800549397
16800555745
16800561360
16800567280
16800573079
16800576680
16800583333
16800589009
16800594807
16800598836
16800605488
16800610615
16800617268
16800622029
16800627705
16800633076
16800639302
16800643879
16800649617
16800655903
16800662007
16800667439
16800673176
16800678059
16800684346
16800690510
16800697041
16800701619
16800707478
16800713520
16800720234
16800725727
16800730915
16800737202
16800743550
16800750202
16800756184
16800760090
16800766926
16800773274
16800778767
16800784870
16800790974
16800797749
16800803425
16800807270
16800814350
16800821003
16800825886
16800831196
16800837116
16800844501
16800851520
16800857258
16800861347
16800868000
16800874348
16800881367
16800885883
16800892719
16800900226
16800905475
16800911457
16800916706
16800923237
16800929462
16800933429
16800941974
16800948139
16800953510
16800958271
16800966510
16800972492
16800976825
16800983295
16800990314
16800998249
16801004596
16801009845
16801016803
16801023456
16801029804
16801035907
16801041950
16801048908
16801058795
16801063617
16801070575
16801075946
16801084186
16801090839
16801097675
16801104083
16801110736
16801116412
16801120380
16801128314
16801134051
16801138629
16801143451
16801146991
16801154254
16801160663
16801165485
16801171344
16801176654
16801182330
16801188006
16801194781
16801200641
16801205584
16801210284
16801216083
16801222125
16801228900
16801233844
16801240008
16801246722
16801252581
16801256976
16801263507
16801269732
16801274737
16801281085
16801287616
16801293475
16801299395
16801305682
16801311297
16801316058
16801321490
16801328021
16801332965
16801336749
16801344012
16801349627
16801355486
16801361468
16801367144
16801372759
16801378924
16801384600
16801390826
16801397234
16801406268
16801419756
16801436907
16801445025
16801453753
16801463457
16801472979
16801482439
16801490740
16801500506
16801505510
16801511065
16801516558
16801522295
16801527361
16801534136
16801539446
16801545488
16801551043
16801557573
16801563860
16801570147
16801575335
16801581865
16801586687
16801592485
16801597307
16801603166
16801608477
16801613726
16801620561
16801624651
16801630754
16801634355
16801641680
16801647844
16801652910
16801658891
16801663530
16801673845
16801681963
16801687883
16801694048
16801701311
16801708757
16801714555
16801722490
16801727739
16801732561
16801737138
16801742326
16801746965
16801750871
16801755571
16801761186
16801767229
16801771989
16801777482
16801782915
16801787980
16801793535
16801798845
16801804399
16801811113
16801818193
16801822404
16801828691
16801834855
16801840410
16801846269
16801853959
16801860612
16801866227
16801872270
16801882524
16801887773
16801893388
16801898759
16801905961
16801911698
16801917436
16801921342
16801930131
16801935868
16801941483
16801948380
16801954484
16801960038
16801967973
16801972794
16801978715
16801983781
16801992204
16801997636
16802002824
16802009049
16802016129
16802022599
16802028275
16802034257
16802040360
16802048417
16802053544
16802057999
16802065385
16802069535
16802077408
16802082291
16802088273
16802093949
16802102738
16802108536
16802114762
16802120011
16802123612
16802130875
16802136185
16802141251
16802147660
16802151444
16802158768
16802164566
16802171402
16802177201
16802183609
16802190079
16802195450
16802201615
16802206497
16802214981
16802220230
16802226944
16802232804
16802239945
16802245682
16802250137
16802256302
16802263138
16802270645
16802275589
16802280472
16802285416
16802289871
16802295303
16802301468
16802306534
16802312027
16802316971
16802321121
16802327103
16802331009
16802336746
16802344376
16802350174
16802355789
16802360428
16802367203
16802371597
16802374466
16802383072
16802389114
16802393997
16802399063
16802403641
16802410110
16802415298
16802420181
16802426651
16802431472
16802435928
16802441665
16802447769
16802453323
16802458511
16802463089
16802467422
16802472610
16802477066
16802481887
16802487258
16802492874
16802498428
16802504287
16802509658
16802514358
16802520034
16802527175
16802531021
16802540359
16802546340
16802549819
16802556716
16802561416
16802564834
16802570876
16802578262
16802583938
16802589309
16802594802
16802600845
16802606399
16802612136
16802615554
16802623122
16802629775
16802635146
16802641250
16802647353
16802652968
16802657973
16802663161
16802670363
16802676040
16802681960
16802688735
16802694045
16802699843
16802706008
16802709548
16802718642
16802725783
16802730727
16802738662
16802745559
16802753371
16802760207
16802766188
16802775344
16802780898
16802787245
16802792861
16802799636
16802804091
16802808852
16802815200
16802820326
16802826369
16802831130
16802836745
16802841384
16802845290
16802852614
16802858046
16802864516
16802869338
16802874770
16802879591
16802884291
16802889296
16802895461
16802902357
16802906752
16802911879
16802917616
16802922743
16802927687
16802932997
16802940016
16802945753
16802952284
16802958143
16802963820
16802969435
16802974013
16802979262
16802986464
16802991591
16802996657
16803003370
16803007643
16803012892
16803018568
16803025709
16803032179
16803039259
16803044813
16803050489
16803055433
16803060560
16803067213
16803072767
16803080397
16803086073
16803092909
16803098097
16803103529
16803108534
16803113966
16803121473
16803127027
16803133558
16803138380
16803144422
16803147901
16803154554
16803160169
16803169752
16803176161
16803181654
16803187208
16803192396
16803196973
16803202467
16803208692
16803215528
16803220350
16803226270
16803230848
16803237806
16803243360
16803249036
16803255811
16803261915
16803267652
16803272352
16803277662
16803283094
16803288770
16803296888
16803303052
16803308851
16803315015
16803321973
16803328931
16803334485
16803338453
16803349927
16803356336
16803362012
16803367444
16803372449
16803380201
16803385266
16803391431
16803397840
16803404981
16803409925
16803413587
16803422071
16803425916
16803432752
16803440320
16803445569
16803452100
16803457105
16803463025
16803467969
16803474744
16803479810
16803485303
16803494153
16803499402
16803504163
16803510754
16803515881
16803521497
16803526623
16803531750
16803539380
16803546643
16803551892
16803557934
16803563000
16803569165
16803574170
16803581738
16803588025
16803594433
16803600171
16803604687
16803609692
16803616040
16803621045
16803628003
16803633191
16803640332
16803645398
16803650952
16803655957
16803662976
16803668042
16803674511
16803680554
16803688305
16803691967
16803698315
16803705334
16803709667
16803716381
16803721325
16803728405
16803733044
16803738598
16803744763
16803750012
16803756298
16803762829
16803768444
16803775829
16803781567
16803786388
16803792126
16803797924
16803805309
16803810436
16803816540
16803823620
16803829357
16803834972
16803840588
16803845592
16803851513
16803858837
16803865612
16803871654
16803877392
16803884228
16803890575
16803895702
16803902477
16803911937
16803918102
16803923900
16803931041
16803936474
16803943126
16803948619
16803955944
16803963207
16803969432
16803975170
16803981517
16803987377
16803993541
16803999584
16804007762
16804013622
16804019237
16804025157
16804030651
16804036266
16804042186
16804047740
16804052562
16804059825
16804065074
16804070689
16804076854
16804082408
16804087352
16804092052
16804098338
16804105785
16804111522
16804117137
16804122020
16804126964
16804133983
16804139720
16804146068
16804151988
16804157725
16804162730
16804169078
16804174266
16804181102
16804186229
16804192454
16804198863
16804205333
16804210399
16804217357
16804222422
16804229869
16804235057
16804240489
16804246653
16804254100
16804259043
16804265147
16804270213
16804276744
16804281748
16804287059
16804295176
16804300181
16804305186
16804311595
16804316783
16804323313
16804328501
16804335459
16804341929
16804349375
16804355174
16804361521
16804367014
16804372263
16804377696
16804384959
16804389048
16804396006
16804401377
16804406016
16804412974
16804418711
16804425242
16804430979
16804437815
16804443613
16804449717
16804455637
16804461313
16804467234
16804473337
16804481699
16804489023
16804495981
16804503306
16804509714
16804516184
16804523020
16804531138
16804537485
16804544260
16804550119
16804555613
16804561167
16804566416
16804572092
16804580393
16804586496
16804592905
16804598886
16804603586
16804609384
16804615366
16804621164
16804627634
16804633432
16804640634
16804646188
16804651865
16804657480
16804662668
16804668283
16804674509
16804680368
16804685129
16804690927
16804697580
16804703622
16804709421
16804715158
16804719980
16804725900
16804732675
16804737985
16804745309
16804749887
16804756601
16804760446
16804767831
16804774362
16804780710
16804784494
16804791879
16804797799
16804804452
16804810312
16804816110
16804822519
16804829599
16804834909
16804840829
16804846078
16804852914
16804858224
16804865060
16804870858
16804876779
16804882028
16804888253
16804893685
16804900765
16804906564
16804912301
16804918466
16804925790
16804931405
16804936837
16804942941
16804949166
16804954842
16804961190
16804967172
16804972543
16804979379
16804985299
16804991280
16804997445
16805001961
16805008858
16805014413
16805019295
16805025765
16805031319
16805037545
16805044625
16805048958
16805056222
16805062691
16805068551
16805075814
16805082345
16805089852
16805095589
16805103219
16805109505
16805117196
16805123177
16805129647
16805136238
16805142647
16805148323
16805153695
16805161019
16805166817
16805172921
16805177315
16805184395
16805191658
16805196663
16805202400
16805208260
16805214180
16805219795
16805226143
16805232979
16805237068
16805244698
16805250496
16805256722
16805262581
16805267769
16805274300
16805280769
16805287605
16805292915
16805299507
16805305916
16805311897
16805317512
16805323921
16805329292
16805336006
16805341682
16805347786
16805354256
16805360542
16805366340
16805372017
16805377144
16805383064
16805387947
16805393196
16805401130
16805405281
16805413887
16805417732
16805425361
16805431343
16805437080
16805442390
16805448738
16805456428
16805464973
16805469245
16805476142
16805481636
16805488410
16805494392
16805498603
16805504341
16805512031
16805518134
16805524116
16805529609
16805535835
16805541023
16805547126
16805552863
16805559272
16805564460
16805570380
16805576179
16805583076
16805588813
16805595405
16805600898
16805605720
16805611091
16805616950
16805622810
16805627814
16805634223
16805642646
16805646430
16805652411
16805659308
16805664618
16805670905
16805676398
16805682624
16805690375
16805697272
16805701972
16805708197
16805714789
16805721442
16805728278
16805735358
16805743293
16805750556
16805757025
16805762336
16805767524
16805773444
16805779914
16805786566
16805792060
16805799994
16805806769
16805811835
16805817267
16805823432
16805828620
16805836432
16805842536
16805847479
16805855109
16805860541
16805866583
16805872992
16805879157
16805886176
16805892645
16805897772
16805903387
16805910406
16805916022
16805923346
16805928961
16805935980
16805941351
16805948614
16805953863
16805959295
16805964361
16805970831
16805975653
16805982550
16805989691
16805995978
16806000982
16806008246
16806013861
16806017706
16806024908
16806030951
16806039740
16806046270
16806051825
16806057501
16806062262
16806070013
16806075750
16806082159
16806088995
16806096929
16806101446
16806107183
16806114080
16806120184
16806125433
16806131658
16806137090
16806144415
16806149847
16806155828
16806161810
16806167974
16806172979
16806178777
16806185369
16806191900
16806198858
16806204534
16806209905
16806215948
16806221868
16806228033
16806233037
16806239995
16806245305
16806250982
16806256963
16806262456
16806267278
16806272588
16806279973
16806286992
16806292302
16806298833
16806305791
16806312749
16806319402
16806328679
16806337590
16806345708
16806352239
16806359685
16806365544
16806371404
16806377996
16806383916
16806390752
16806396367
16806401372
16806410405
16806415593
16806422063
16806426946
16806433354
16806439580
16806445683
16806450993
16806455876
16806462346
16806467046
16806472234
16806478032
16806485051
16806490239
16806496037
16806502324
16806508183
16806513676
16806519292
16806525395
16806533940
16806539311
16806545170
16806550297
16806556035
16806562260
16806567875
16806575505
16806581425
16806587834
16806593571
16806598881
16806604435
16806609745
16806615422
16806622685
16806628727
16806634831
16806641117
16806647526
16806653019
16806658024
16806663822
16806672612
16806678593
16806684696
16806690556
16806696903
16806702641
16806707707
16806713627
16806719914
16806725834
16806732792
16806738468
16806743168
16806748783
16806755802
16806761173
16806768070
16806773808
16806779362
16806785648
16806791691
16806796696
16806803715
16806809330
16806815555
16806821415
16806827030
16806832584
16806838077
16806843754
16806849491
16806855594
16806860721
16806869449
16806874454
16806879459
16806887089
16806893131
16806898990
16806905399
16806912174
16806918827
16806927066
16806934940
16806943363
16806951541
16806957889
16806965152
16806971683
16806979557
16806987369
16806992008
16806997745
16807004459
16807009159
16807015994
16807021488
16807026492
16807033267
16807038638
16807044071
16807049808
16807056583
16807062564
16807069034
16807074954
16807080020
16807085757
16807092471
16807098392
16807104129
16807110477
16807116153
16807122195
16807127444
16807132999
16807138980
16807145206
16807151614
16807157413
16807162906
16807168765
16807174319
16807179995
16807185000
16807189700
16807196292
16807202823
16807209231
16807214785
16807219851
16807225833
16807231448
16807237674
16807242862
16807249514
16807254275
16807260318
16807266543
16807271853
16807277346
16807282229
16807288882
16807294741
16807302249
16807308657
16807315432
16807322878
16807327822
16807333376
16807338992
16807344912
