16739321344
16739324945
16739328057
16739331536
16739334527
16739337884
16739341180
16739344842
16739348504
16739352715
16739356317
16739360894
16739365106
16739368951
16739373284
16739377862
16739382317
16739386773
16739390679
16739395562
16739400323
16739406487
16739412408
16739418267
16739423394
16739430352
16739437127
16739444268
16739450555
16739457635
16739464898
16739470391
16739479973
16739487054
16739491631
16739501214
16739511773
16739520562
16739531487
16739540215
16739549614
16739558281
16739566765
16739574395
16739584771
16739595696
16739605950
16739613823
16739620232
16739627800
16739634148
16739640862
16739645867
16739652641
16739657890
16739664910
16739670159
16739678154
16739681877
16739691094
16739698662
16739703362
16739713676
16739721428
16739727409
16739732780
16739739799
16739747795
16739753899
16739761223
16739766777
16739774406
16739781425
16739787834
16739793449
16739800529
16739805717
16739816276
16739823173
16739831352
16739837578
16739844230
16739852409
16739859306
16739866386
16739872551
16739879142
16739884758
16739891349
16739898002
16739903312
16739910942
16739916984
16739925773
16739932853
16739939140
16739943839
16739951408
16739957939
16739964897
16739971488
16739978629
16739983878
16739991813
16739998283
16740004752
16740010673
16740015861
16740023795
16740030204
16740035453
16740041801
16740050162
16740056388
16740062797
16740069755
16740074393
16740081534
16740087821
16740094962
16740101310
16740108146
16740114615
16740120536
16740125907
16740136100
16740148124
16740155326
16740161551
16740170707
16740175223
16740187796
16740196646
16740202933
16740209708
16740216483
16740221305
16740229239
16740236441
16740243033
16740248221
16740256278
16740263724
16740269217
16740272757
16740282767
16740289725
16740296744
16740301871
16740308646
16740314993
16740320242
16740327933
16740333365
16740342764
16740350272
16740354849
16740361807
16740369131
16740376395
16740382071
16740390066
16740398062
16740404776
16740412100
16740417349
16740424795
16740431936
16740440542
16740445120
16740454947
16740460867
16740468740
16740475393
16740482779
16740489859
16740498648
16740504873
16740513418
16740521109
16740528250
16740536550
16740543936
16740553335
16740558157
16740567922
16740576284
16740583608
16740591787
16740600576
16740611257
16740616201
16740625845
16740634573
16740642934
16740651113
16740657400
16740664907
16740672536
16740681142
16740687490
16740696096
16740703664
16740710439
16740718252
16740725026
16740732595
16740740041
16740745473
16740753591
16740758535
16740764577
16740771901
16740777456
16740783315
16740791433
16740796010
16740803273
16740807546
16740816762
16740822072
16740827199
16740834401
16740840261
16740847096
16740852406
16740857900
16740862477
16740867360
16740871999
16740875661
16740880910
16740885793
16740890431
16740895192
16740899709
16740905690
16740911610
16740916310
16740919545
16740927174
16740931935
16740938283
16740943532
16740949269
16740954518
16740960438
16740965626
16740971913
16740977284
16740984486
16740988942
16740995656
16741001088
16741006642
16741010304
16741018361
16741022145
16741029225
16741035634
16741041615
16741048512
16741053883
16741059803
16741064991
16741069386
16741074696
16741079823
16741086109
16741090870
16741097218
16741104237
16741109547
16741114186
16741120899
16741126820
16741131947
16741137989
16741142811
16741150074
16741155262
16741161549
16741165333
16741173206
16741176991
16741185230
16741191883
16741197437
16741202808
16741208729
16741214100
16741219410
16741227100
16741231739
16741236256
16741243702
16741249561
16741255726
16741260364
16741264027
16741272327
16741276111
16741284962
16741290821
16741295582
16741301685
16741309192
16741314258
16741321949
16741327381
16741334949
16741340686
16741346912
16741351612
16741359546
16741365162
16741372364
16741378894
16741389514
16741394336
16741401660
16741406726
16741413990
16741420215
16741427234
16741432422
16741440784
16741444568
16741449939
16741453967
16741459277
16741463794
16741471729
16741475513
16741483508
16741486804
16741493518
16741498462
16741505054
16741509631
16741516589
16741521960
16741528247
16741531299
16741538013
16741541186
16741547778
16741553149
16741559558
16741564746
16741573169
16741577930
16741583240
16741587146
16741593493
16741596972
16741605945
16741615588
16741621570
16741626452
16741631884
16741637805
16741643847
16741648791
16741655078
16741661303
16741666003
16741671984
16741676623
16741683154
16741687548
16741693774
16741698901
16741704821
16741711962
16741717761
16741722766
16741728381
16741733142
16741739916
16741745715
16741752062
16741758044
16741762988
16741769946
16741773852
16741779711
16741785693
16741789599
16741796801
16741803088
16741807604
16741813403
16741819201
16741823229
16741830553
16741836962
16741843066
16741849108
16741854052
16741861071
16741866015
16741869250
16741877917
16741884508
16741890734
16741895617
16741901537
16741907702
16741913622
16741925219
16741933519
16741942370
16741951464
16741961290
16741970201
16741975450
16741987047
16741997972
16742006945
16742019884
16742030748
16742038561
16742045641
16742054369
16742061144
16742069444
16742076280
16742084886
16742092821
16742100450
16742107652
16742116808
16742123338
16742131151
16742137193
16742145128
16742150987
16742159410
16742166917
16742174486
16742182542
16742189805
16742197130
16742206407
16742215745
16742222886
16742233201
16742240281
16742249498
16742257249
16742264695
16742275438
16742282762
16742291612
16742298570
16742304734
16742314073
16742320725
16742327317
16742333970
16742341844
16742352708
16742360215
16742368150
16742375840
16742384690
16742392075
16742398057
16742407212
16742416001
16742421494
16742431565
16742438584
16742446824
16742453599
16742461594
16742466782
16742475571
16742483445
16742491929
16742497300
16742505600
16742512620
16742519516
16742525925
16742534653
16742541794
16742549241
16742555771
16742563401
16742570603
16742578904
16742586411
16742596482
16742604233
16742612473
16742619553
16742626450
16742632614
16742641037
16742648789
16742658920
16742667160
16742676071
16742683456
16742691574
16742700119
16742708542
16742715439
16742726303
16742732651
16742743881
16742754623
16742764145
16742775497
16742785629
16742789474
16742804123
16742810775
16742818649
16742825302
16742831833
16742840927
16742847213
16742855148
16742861923
16742868209
16742876083
16742882370
16742890426
16742896408
16742904830
16742911788
16742917648
16742925826
16742932235
16742940597
16742946578
16742953536
16742962753
16742967452
16742977340
16742982223
16742992721
16742997665
16743006087
16743014022
16743022323
16743029952
16743036849
16743045882
16743052108
16743058456
16743067428
16743075850
16743082625
16743089156
16743097823
16743104537
16743112594
16743119491
16743126449
16743135421
16743140975
16743149825
16743157088
16743164778
16743170882
16743180342
16743186995
16743195052
16743201644
16743209456
16743218550
16743221358
16743230452
16743235335
16743239974
16743246504
16743251326
16743256331
16743262740
16743268172
16743274825
16743279829
16743285750
16743290877
16743296431
16743300764
16743307112
16743313338
16743322188
16743326765
16743333113
16743338362
16743343672
16743346907
16743353682
16743358809
16743365217
16743369734
16743374861
16743379561
16743385359
16743390730
16743395491
16743403547
16743408735
16743414778
16743422163
16743430403
16743435957
16743445051
16743452986
16743457930
16743464704
16743470869
16743478193
16743484846
16743488996
16743495161
16743499678
16743505171
16743510298
16743515180
16743519148
16743525556
16743530317
16743536115
16743540693
16743546491
16743550398
16743555402
16743559736
16743565901
16743571394
16743578046
16743583051
16743588789
16743593671
16743599043
16743604719
16743609296
16743616499
16743622480
16743628706
16743634382
16743639692
16743644453
16743649396
16743654340
16743661542
16743666730
16743671918
16743676740
16743683271
16743687726
16743693281
16743699872
16743704816
16743711774
16743717023
16743722883
16743725080
16743733930
16743737409
16743743207
16743749311
16743754987
16743759992
16743766584
16743771344
16743776105
16743782148
16743788068
16743793927
16743800824
16743806745
16743813458
16743816937
16743822858
16743828168
16743835248
16743841168
16743848309
16743854169
16743858563
16743863995
16743869183
16743873029
16743880658
16743884564
16743891827
16743898053
16743904889
16743910077
16743914960
16743919049
16743926068
16743930951
16743935956
16743944256
16743949933
16743955304
16743960248
16743965558
16743971112
16743977337
16743989361
16744009625
16744023785
16744032147
16744039898
16744048138
16744053387
16744059002
16744065716
16744071026
16744077740
16744083538
16744087506
16744092388
16744095928
16744100384
16744105267
16744111248
16744115643
16744120892
16744125469
16744130047
16744134869
16744140179
16744147930
16744152264
16744157269
16744163128
16744168804
16744174236
16744178509
16744184673
16744191204
16744198589
16744205425
16744211040
16744215923
16744221966
16744225262
16744232891
16744236187
16744244305
16744250042
16744255779
16744261028
16744265545
16744271465
16744278484
16744284466
16744289043
16744294292
16744298076
16744303203
16744308391
16744310161
16744317974
16744323711
16744327617
16744332500
16744337566
16744339458
16744348613
16744353618
16744361431
16744367961
16744377239
16744380168
16744392253
16744399394
16744406291
16744411113
16744421489
16744429729
16744438396
16744445171
16744452007
16744459941
16744468547
16744475444
16744481242
16744491252
16744493999
16744507243
16744513713
16744521831
16744528911
16744537883
16744542949
16744552714
16744558024
16744567668
16744573222
16744582744
16744589885
16744598308
16744604655
16744613383
16744619426
16744627848
16744635905
16744645610
16744654887
16744661784
16744670451
16744673564
16744685954
16744695964
16744702799
16744708110
16744718852
16744724894
16744734599
16744743754
16744754008
16744758952
16744769083
16744773966
16744780802
16744787821
16744796976
16744801981
16744813029
16744817667
16744826334
16744832804
16744839335
16744846476
16744855875
16744862467
16744870096
16744876688
16744883768
16744889444
16744897623
16744903971
16744912455
16744918375
16744925455
16744932596
16744942118
16744948648
16744956949
16744964518
16744967264
16744977945
16744980692
16744991129
16744998453
16745005960
16745012369
16745020853
16745028421
16745035013
16745043619
16745050333
16745055277
16745066080
16745071512
16745081644
16745087137
16745095926
16745102945
16745112405
16745120523
16745127115
16745133401
16745141641
16745150796
16745159463
16745166238
16745173379
16745182412
16745187600
16745198709
16745203347
16745215310
16745220437
16745230752
16745238076
16745248269
16745256143
16745263040
16745269754
16745277627
16745285989
16745292031
16745300393
16745307595
16745317910
16745323953
16745331826
16745339944
16745345803
16745354104
16745362710
16745369668
16745378213
16745384744
16745392861
16745397622
16745406899
16745414651
16745422280
16745430215
16745438698
16745446450
16745456093
16745463601
16745473549
16745480935
16745488503
16745495705
16745504067
16745514321
16745523659
16745528359
16745537758
16745544655
16745552040
16745557900
16745568337
16745575600
16745584633
16745591835
16745599648
16745605080
16745613320
16745618874
16745627480
16745636269
16745642677
16745648537
16745656349
16745662026
16745670265
16745678078
16745685097
16745693642
16745700417
16745708168
16745714821
16745722572
16745729591
16745735023
16745738319
16745745338
16745748756
16745756813
16745760048
16745766823
16745771522
16745777138
16745781593
16745787575
16745792762
16745798927
16745803932
16745809120
16745813148
16745818641
16745823890
16745828956
16745835304
16745839576
16745844764
16745849586
16745855323
16745860817
16745865150
16745869483
16745878089
16745883705
16745888465
16745893531
16745898963
16745902076
16745908729
16745913734
16745919715
16745925758
16745931068
16745937660
16745942298
16745947913
16745951698
16745957008
16745963477
16745969642
16745975929
16745980384
16745986243
16745991492
16745996497
16746003638
16746007178
16746015723
16746021888
16746026282
16746032630
16746036658
16746041907
16746047156
16746050452
16746056678
16746061744
16746068397
16746072303
16746079383
16746084754
16746092078
16746097205
16746103736
16746109534
16746115699
16746121863
16746128150
16746133399
16746139624
16746145362
16746151160
16746159095
16746163855
16746167762
16746172705
16746176795
16746182593
16746187232
16746194800
16746199744
16746204932
16746207984
16746215125
16746224707
16746229834
16746235022
16746240332
16746245581
16746250342
16746253455
16746260291
16746263281
16746270361
16746274146
16746279944
16746285010
16746291602
16746294592
16746301489
16746304419
16746311133
16746316748
16746322546
16746325537
16746333472
16746336523
16746342383
16746348059
16746353308
16746358618
16746363623
16746370703
16746376440
16746380713
16746386267
16746390295
16746396643
16746400671
16746406469
16746412024
16746419043
16746423742
16746428808
16746434179
16746439550
16746444128
16746449804
16746457006
16746460424
16746467810
16746470983
16746477575
16746482641
16746487280
16746493017
16746497534
16746505224
16746510412
16746514501
16746520117
16746524755
16746530615
16746535925
16746541418
16746549169
16746557470
16746561498
16746567297
16746572607
16746577489
16746581884
16746585363
16746593053
16746596471
16746604040
16746608312
16746613683
16746616857
16746624120
16746628942
16746636632
16746642431
16746647497
16746652624
16746658971
16746663976
16746671361
16746674901
16746683568
16746688756
16746696752
16746700414
16746708532
16746714086
16746717748
16746722020
16746728795
16746734288
16746738805
16746744054
16746749181
16746754369
16746758153
16746762364
16746769872
16746775121
16746780370
16746783666
16746790257
16746794652
16746800206
16746804601
16746810338
16746815038
16746821507
16746824803
16746831639
16746836095
16746842381
16746849217
16746857030
16746866002
16746872411
16746880772
16746886754
16746894444
16746901707
16746909825
16746912450
16746925145
16746930394
16746939122
16746947850
16746956273
16746960850
16746970738
16746977330
16746986729
16746994175
16747004734
16747009861
16747020054
16747024754
16747034520
16747041417
16747049534
16747057164
16747066197
16747072056
16747081517
16747087925
16747095616
16747101719
16747111668
16747121067
16747128391
16747134251
16747142368
16747150181
16747157261
16747165012
16747171604
16747181248
16747190037
16747196567
16747204380
16747212192
16747216953
16747226780
16747233616
16747243259
16747248081
16747258030
16747264499
16747272007
16747280552
16747288059
16747294895
16747303440
16747309665
16747322239
16747328952
16747339145
16747346347
16747355503
16747363315
16747374790
16747382419
16747389560
16747397067
16747407627
16747418064
16747430026
16747438876
16747445895
16747450595
16747461154
16747468295
16747477267
16747484103
16747492282
16747498141
16747507907
16747515781
16747524081
16747531161
16747538852
16747545688
16747555087
16747561374
16747569186
16747577731
16747585177
16747591098
16747599521
16747605746
16747614291
16747621920
16747628146
16747636203
16747643283
16747649081
16747657748
16747664523
16747673190
16747679476
16747687472
16747693270
16747701510
16747707064
16747714999
16747722079
16747729647
16747737887
16747744784
16747753512
16747761813
16747770235
16747777132
16747785006
16747792208
16747797945
16747806246
16747814730
16747824068
16747831637
16747837984
16747842867
16747853792
16747859347
16747868746
16747876009
16747884981
16747890230
16747898836
16747908114
16747914705
16747924349
16747930025
16747936251
16747945467
16747952242
16747961214
16747968599
16747977083
16747983248
16747991609
16747998934
16748003938
16748014375
16748019319
16748027925
16748035677
16748047334
16748055391
16748064424
16748069734
16748081758
16748087068
16748099824
16748105073
16748114534
16748122591
16748131013
16748138460
16748148225
16748156831
16748165315
16748172700
16748179414
16748187043
16748196809
16748206025
16748216523
16748224031
16748231355
16748237947
16748244722
16748249299
16748255525
16748259553
16748266938
16748272676
16748277070
16748280305
16748288423
16748291718
16748298066
16748304170
16748311311
16748316438
16748320832
16748323640
16748331818
16748337434
16748341584
16748344697
16748352631
16748357697
16748361787
16748364960
16748372529
16748375764
16748382783
16748386018
16748392365
16748398591
16748403596
16748408601
16748413605
16748416840
16748422578
16748427338
16748433808
16748439606
16748445954
16748449433
16748457734
16748462006
16748468903
16748474091
16748479706
16748485810
16748493805
16748497834
16748505219
16748508515
16748515229
16748520111
16748525360
16748530976
16748538422
16748541657
16748547882
16748550934
16748557099
16748562348
16748568207
16748571381
16748578156
16748581269
16748588349
16748591706
16748597626
16748602509
16748606964
16748612824
16748618500
16748622223
16748629913
16748635040
16748640106
16748644745
16748651032
16748659149
16748665009
16748670013
16748676605
16748681183
16748687836
16748692413
16748699066
16748704193
16748710052
16748729400
16748735504
16748740326
16748749542
16748756073
16748761871
16748769806
16748776336
16748782135
16748788360
16748793853
16748800567
16748805816
16748812957
16748817474
16748823516
16748827667
16748833587
16748838165
16748844390
16748850250
16748855072
16748860015
16748863677
16748868560
16748873565
16748878997
16748885162
16748890594
16748895049
16748901214
16748906036
16748910491
16748916778
16748922149
16748927764
16748932220
16748938751
16748944671
16748948821
16748954498
16748960845
16748966277
16748971038
16748977081
16748982391
16748988128
16748993560
16749000091
16749003997
16749009856
16749013152
16749020415
16749023894
16749030181
16749033538
16749044402
16749048736
16749053069
16749058867
16749062896
16749067901
16749072051
16749078338
16749086272
16749092009
16749096648
16749102507
16749107879
16749109771
16749119048
16749123870
16749129912
16749134978
16749141692
16749147612
16749152373
16749158782
16749163603
16749170012
16749175383
16749181487
16749186858
16749191863
16749197051
16749200408
16749208647
16749212004
16749219389
16749223235
16749231108
16749234526
16749241667
16749247832
16749252592
16749258635
16749264983
16749272490
16749278654
16749285551
16749292082
16749298003
16749303007
16749311674
16749317045
16749329313
16749334563
16749345610
16749353911
16749361052
16749366179
16749377287
16749381987
16749391691
16749397001
16749406034
16749414335
16749420195
16749426542
16749434111
16749441313
16749450895
16749458097
16749464689
16749471220
16749480436
16749487150
16749496244
16749502714
16749510648
16749517240
16749527555
16749533964
16749539640
16749549284
16749554350
16749564664
16749569669
16749579740
16749587308
16749595731
16749602567
16749611539
16749619169
16749629362
16749635099
16749644681
16749652799
16749658780
16749665250
16749674283
16749681302
16749691800
16749697904
16749706632
16749713590
16749723294
16749731534
16749739164
16749745633
16749754788
16749762296
16749770047
16749778897
16749786099
16749796048
16749803678
16749812344
16749819791
16749828824
16749838406
16749846036
16749852322
16749861478
16749869229
16749874173
16749884488
16749889249
16749898892
16749908169
16749914578
16749921719
16749930203
16749936856
16749944180
16749950589
16749960171
16749966336
16749974881
16749980923
16749988797
16749997219
16750004605
16750012539
16750019314
16750028164
16750036526
16750044277
16750050015
16750059414
16750065029
16750076016
16750081204
16750093228
16750098843
16750109890
16750118862
16750125210
16750132046
16750142056
16750146694
16750159878
16750167568
16750173428
16750181667
16750187221
16750194485
16750202175
16750206631
16750216518
16750223659
16750231167
16750235561
16750243862
16750250149
16750258693
16750265224
16750273220
16750279751
16750289150
16750293544
16750303066
16750309108
16750317470
16750321804
16750331203
16750337673
16750345912
16750351894
16750359767
16750366359
16750374294
16750383144
16750389797
16750398952
16750407436
16750414089
16750421840
16750427943
16750436671
16750442531
16750451137
16750458888
16750467921
16750475795
16750483180
16750489589
16750497401
16750505641
16750510280
16750521205
16750529017
16750536952
16750544337
16750552760
16750557826
16750567531
16750574061
16750581385
16750590419
16750597743
16750604213
16750613124
16750619349
16750626002
16750633754
16750642604
16750649989
16750658290
16750665980
16750673365
16750679774
16750682948
16750691615
16750694972
16750701869
16750705836
16750712977
16750716700
16750723719
16750729029
16750734461
16750739649
16750746485
16750752650
16750758692
16750762965
16750769434
16750774866
16750779749
16750784022
16750789698
16750798426
16750804346
16750809473
16750815882
16750822962
16750828089
16750832728
16750836207
16750847071
16750852320
16750859278
16750863123
16750872095
16750875879
16750881739
16750886072
16750892420
16750897486
16750903162
16750906641
16750914148
16750917871
16750923731
16750928614
16750934595
16750939966
16750946314
16750951624
16750957056
16750961634
16750967493
16750972437
16750979334
16750984827
16750990625
16750994959
16751001367
16751005884
16751012354
16751016504
16751021631
16751028284
16751033838
16751039880
16751043054
16751050745
16751055933
16751060754
16751067224
16751073450
16751080102
16751085046
16751090478
16751094690
16751099817
16751106103
16751110864
16751116357
16751121789
16751127527
16751133996
16751138025
16751142419
16751148645
16751155114
16751159997
16751165979
16751172632
16751178186
16751182702
16751189294
16751195337
16751200158
16751206262
16751211938
16751218530
16751225488
16751229333
16751235498
16751240563
16751247033
16751252099
16751258142
16751263635
16751269738
16751275231
16751281030
16751287499
16751293420
16751300317
16751305200
16751314599
16751319543
16751325951
16751330468
16751337792
16751341454
16751348534
16751354089
16751359948
16751367516
16751373193
16751378258
16751384606
16751389733
16751397546
16751404992
16751411095
16751420128
16751426293
16751432702
16751437829
16751444481
16751451378
16751456627
16751463891
16751470788
16751477868
16751482201
16751488305
16751493737
16751495751
16751504052
16751507164
16751514611
16751520653
16751525170
16751530724
16751536583
16751541893
16751546593
16751551415
16751558129
16751563072
16751570580
16751576134
16751581261
16751586449
16751592491
16751596764
16751604027
16751610619
16751615563
16751621788
16751627220
16751632408
16751637535
16751642174
16751648033
16751654259
16751660789
16751666649
16751671287
16751675560
16751681908
16751686973
16751692772
16751698326
16751703758
16751710045
16751715721
16751720482
16751725853
16751732261
16751737694
16751743309
16751749046
16751754844
16751761131
16751767173
16751772178
16751778099
16751784202
16751789085
16751795372
16751801048
16751805320
16751811180
16751817588
16751822349
16751828392
16751831748
16751838768
16751842369
16751850181
16751853538
16751860252
16751867210
16751873496
16751880088
16751887596
16751896751
16751905601
16751912498
16751918845
16751924827
16751940086
16751946861
16751955894
16751963157
16751973289
16751980674
16751988364
16751994895
16752001487
16752009788
16752017844
16752029929
16752038596
16752044822
16752053977
16752060447
16752069968
16752078513
16752085471
16752094748
16752104026
16752110923
16752119773
16752128684
16752135459
16752143332
16752149008
16752157981
16752167197
16752177146
16752185324
16752193747
16752199790
16752207724
16752212485
16752223898
16752232626
16752239096
16752247336
16752254721
16752261313
16752270041
16752276816
16752284323
16752293783
16752302817
16752309530
16752316549
16752322592
16752331320
16752337851
16752348105
16752354513
16752363669
16752370077
16752380514
16752386862
16752395102
16752403280
16752411032
16752418966
16752427694
16752435568
16752441732
16752450094
16752458029
16752465902
16752470602
16752479940
16752488546
16752497274
16752502096
16752510946
16752518148
16752525961
16752534505
16752541463
16752551473
16752558797
16752565389
16752573873
16752580892
16752588827
16752594686
16752603658
16752610067
16752620138
16752626119
16752634969
16752641439
16752648641
16752656881
16752664388
16752673299
16752679403
16752687337
16752694966
16752702962
16752708211
16752717366
16752724141
16752732320
16752739827
16752749715
16752756978
16752765279
16752771871
16752779683
16752788106
16752796468
16752804158
16752813496
16752820332
16752829854
16752837422
16752846211
16752853474
16752862569
16752874165
16752882405
16752889851
16752901082
16752906392
16752917439
16752928364
16752934956
16752942647
16752950215
16752958271
16752965962
16752972676
16752979939
16752987385
16752995503
16753004231
16753010762
16753015156
16753027058
16753036274
16753043110
16753054463
16753060871
16753068134
16753076008
16753083515
16753089680
16753097981
16753106464
16753115498
16753122089
16753129658
16753138569
16753146320
16753152912
16753160908
16753167438
16753176350
16753183918
16753191975
16753199177
16753208027
16753214741
16753223163
16753230182
16753239216
16753246601
16753253254
16753257648
16753264423
16753268818
16753274189
16753279926
16753284748
16753291828
16753296527
16753303546
16753310260
16753314045
16753320880
16753324970
16753333576
16753337726
16753345172
16753350910
16753356403
16753359882
16753368244
16753372150
16753380634
16753384235
16753391742
16753395160
16753402301
16753406390
16753419818
16753424213
16753431720
16753435565
16753443561
16753447162
16753453571
16753459003
16753465900
16753471271
16753476703
16753484759
16753489093
16753493732
16753500445
16753505389
16753511981
16753518451
16753524615
16753531207
16753538104
16753543414
16753550616
16753556170
16753563311
16753568621
16753576373
16753582965
16753587115
16753595477
16753599505
16753606280
16753612017
16753618365
16753623431
16753630511
16753635516
16753642169
16753645709
16753654315
16753659747
16753664874
16753669818
16753675738
16753680621
16753686236
16753692889
16753698748
16753704302
16753709063
16753716326
16753721636
16753727007
16753732989
16753737872
16753743182
16753749712
16753754473
16753760210
16753765642
16753772112
16753777483
16753783404
16753789019
16753794878
16753799822
16753806231
16753809649
16753819109
16753824175
16753829912
16753833391
16753841509
16753845049
16753851824
16753858110
16753865435
16753872271
16753877092
16753883867
16753890764
16753895464
16753903459
16753909014
16753915361
16753920854
16753927690
16753932817
16753938982
16753945513
16753952043
16753957414
16753963518
16753970659
16753975237
16753982866
16753986833
16753995195
16754000688
16754006120
16754011858
16754020219
16754025774
16754031999
16754037920
16754044267
16754049150
16754056169
16754061113
16754068437
16754074907
16754079729
16754086076
16754090166
16754099016
16754102739
16754109819
16754115251
16754121843
16754127763
16754133684
16754138933
16754144792
16754151078
16754157060
16754162736
16754169816
16754177324
16754182756
16754189836
16754198442
16754203752
16754210221
16754215348
16754221452
16754226762
16754233781
16754238664
16754241838
16754250810
16754255631
16754261369
16754264726
16754272660
16754276322
16754282853
16754286454
16754293717
16754297501
16754305375
16754309037
16754316972
16754322282
16754326859
16754334245
16754341508
16754346696
16754353287
16754359025
16754364213
16754369034
16754375260
16754380326
16754386063
16754391251
16754397599
16754403885
16754411515
16754416459
16754421464
16754427079
16754431595
16754437455
16754442948
16754451066
16754456803
16754461319
16754470902
16754477311
16754485611
16754493790
16754500687
16754506607
16754516068
16754522538
16754530899
16754536942
16754546158
16754552017
16754559769
16754567764
16754575333
16754584427
16754591995
16754600174
16754605240
16754614761
16754622147
16754631119
16754638321
16754648086
16754656387
16754663834
16754673111
16754681045
16754687881
16754696487
16754703567
16754712906
16754719681
16754728286
16754737137
16754747879
16754754348
16754764846
16754773513
16754782608
16754791519
16754798904
16754807510
16754816177
16754822891
16754832168
16754840957
16754849319
16754855911
16754866409
16754875808
16754885513
16754894973
16754902847
16754911330
16754920119
16754929214
16754939834
16754944961
16754955764
16754960464
16754969985
16754976211
16754986342
16754994155
16754999770
16755005813
16755014541
16755021682
16755028823
16755033217
16755042434
16755049636
16755056960
16755065505
16755071730
16755076369
16755089370
16755097243
16755106520
16755114882
16755122451
16755131423
16755137160
16755144667
16755152907
16755161696
16755167372
16755176344
16755183058
16755190871
16755196852
16755204298
16755212416
16755218581
16755226637
16755235609
16755241408
16755248915
16755256483
16755262160
16755269972
16755276869
16755284987
16755292250
16755300001
16755306593
16755314833
16755320875
16755328993
16755335768
16755343458
16755348768
16755359022
16755367811
16755375807
16755383619
16755392530
16755400038
16755409864
16755416944
16755423597
16755432386
16755438978
16755447096
16755454237
16755464979
16755469984
16755480238
16755488416
16755497450
16755506178
16755514722
16755521009
16755532056
16755540845
16755547376
16755555860
16755564039
16755570814
16755578870
16755586072
16755594678
16755602186
16755610425
16755617933
16755624769
16755634778
16755644239
16755653272
16755663282
16755673047
16755680066
16755689954
16755697034
16755705396
16755712293
16755720960
16755730359
16755738355
16755745557
16755754224
16755760816
16755767774
16755776380
16755782910
16755791943
16755800122
16755806348
16755816235
16755822949
16755830762
16755836804
16755845776
16755852673
16755859997
16755864575
16755870557
16755875683
16755883252
16755888501
16755896435
16755901135
16755906201
16755910473
16755916394
16755920788
16755928845
16755934033
16755940197
16755945080
16755950146
16755956311
16755960217
16755966687
16755971753
16755978466
16755983593
16755991101
16755995983
16756000317
16756006848
16756011608
16756018078
16756025158
16756030407
16756036267
16756042492
16756047680
16756055187
16756060131
16756064648
16756071667
16756076061
16756083996
16756090160
16756096081
16756101818
16756108044
16756113842
16756121410
16756125256
16756135204
16756141491
16756147655
16756151745
16756159923
16756163830
16756170849
16756176403
16756182751
16756186779
16756193493
16756198864
16756205700
16756210399
16756217052
16756223095
16756229076
16756235546
16756237804
16756246105
16756252758
16756258007
16756262096
16756269847
16756275829
16756282665
16756290538
16756294994
16756299327
16756307994
16756316051
16756320995
16756325511
16756335155
16756343395
16756348155
16756355968
16756362438
16756369518
16756374156
16756380199
16756388316
16756393260
16756399852
16756404491
16756408824
16756415172
16756419810
16756426463
16756431834
16756437328
16756441905
16756448558
16756455516
16756461558
16756466502
16756472728
16756477794
16756483592
16756488658
16756494395
16756500133
16756505931
16756512156
16756517589
16756523631
16756529551
16756535228
16756542369
16756547801
16756551402
16756560557
16756564647
16756573008
16756576609
16756583934
16756587901
16756595652
16756599314
16756606578
16756610850
16756617320
16756621897
16756627696
16756632456
16756638377
16756642649
16756648448
16756653697
16756659007
16756664012
16756670847
16756675669
16756681162
16756685923
16756691294
16756696970
16756701792
16756709788
16756715891
16756720591
16756725413
16756734873
16756741892
16756745798
16756752695
16756760874
16756766184
16756773264
16756779429
16756783457
16756791025
16756794504
16756803354
16756809580
16756814341
16756817698
16756825815
16756829050
16756836618
16756840708
16756848154
16756851755
16756859507
16756862864
16756870432
16756877695
16756883860
16756892038
16756899179
16756906320
16756913401
16756919077
16756927500
16756933054
16756939524
16756948129
16756954416
16756960153
16756964060
16756969980
16756974252
16756980783
16756986215
16756991159
16756997873
16757003244
16757009653
16757016061
16757021494
16757026376
16757033823
16757040597
16757048166
16757054819
16757063486
16757070932
16757077402
16757086862
16757091440
16757100107
16757108896
16757117379
16757124643
16757132150
16757141244
16757147287
16757155771
16757162362
16757171579
16757179330
16757188363
16757197335
16757205514
16757213693
16757221627
16757229501
16757238107
16757244088
16757252389
16757259774
16757269662
16757277169
16757284188
16757293527
16757301705
16757308785
16757318063
16757324898
16757334115
16757338814
16757349068
16757357613
16757363473
16757372018
16757382210
16757389657
16757397469
16757405404
16757413643
16757421700
16757430611
16757438240
16757446480
16757451790
16757461800
16757469124
16757476326
16757486519
16757493172
16757502877
16757510506
16757516976
16757525337
16757533455
16757541390
16757550850
16757558785
16757564278
16757576363
16757581856
16757593330
16757603279
16757613167
16757622688
16757628731
16757639290
16757647896
16757656319
16757663704
16757671089
16757677620
16757685676
16757689949
16757698799
16757703438
16757713386
16757721016
16757732124
16757735359
16757746711
16757755195
16757762886
16757770637
16757777168
16757785408
16757793708
16757799079
16757808174
16757814949
16757822700
16757830207
16757838874
16757847419
16757856513
16757863288
16757872138
16757879585
16757888435
16757895515
16757906928
16757914375
16757922858
16757930671
16757938178
16757945685
16757953315
16757959174
16757967597
16757975226
16757983466
16757991584
16757998481
16758008063
16758016364
16758023810
16758031562
16758039069
16758046576
16758053412
16758062690
16758069953
16758079169
16758087348
16758095893
16758104560
16758111334
16758120734
16758129340
16758136725
16758144965
16758153876
16758162299
16758169196
16758180609
16758188727
16758197150
16758208014
16758216681
16758222418
16758232428
16758239081
16758249090
16758253729
16758262640
16758272040
16758281927
16758293646
16758304999
16758314093
16758320196
16758330145
16758337957
16758342840
16758349676
16758358343
16758366095
16758371710
16758377813
16758383795
16758390020
16758395758
16758401312
16758407598
16758412054
16758419866
16758424322
16758431036
16758435674
16758442266
16758449407
16758455267
16758459844
16758465887
16758472540
16758478521
16758483648
16758488836
16758495123
16758500433
16758506902
16758512762
16758517644
16758524602
16758528265
16758534734
16758539617
16758546575
16758552434
16758557134
16758563970
16758568487
16758574956
16758579717
16758585637
16758591192
16758594488
16758600957
16758605901
16758612493
16758617742
16758623845
16758628789
16758635869
16758639043
16758646123
16758649663
16758656682
16758661382
16758669377
16758675054
16758680730
16758683904
16758690862
16758693914
16758703374
16758708562
16758714665
16758719670
16758724980
16758730657
16758735845
16758740117
16758745549
16758751286
16758756841
16758762334
16758767705
16758772954
16758777348
16758781499
16758788579
16758791875
16758800298
16758806523
16758812260
16758817815
16758822087
16758826909
16758832890
16758837773
16758844975
16758850957
16758859929
16758864262
16758872380
16758881657
16758887211
16758894475
16758902409
16758909001
16758915287
16758921635
16758927739
16758932682
16758939518
16758946904
16758952031
16758956730
16758962590
16758967167
16758972294
16758976689
16758984135
16758988896
16758995732
16758998661
16759005436
16759010624
16759015873
16759019291
16759027165
16759032719
16759038456
16759043400
16759049076
16759054142
16759060063
16759065983
16759071476
16759077885
16759084171
16759088688
16759094669
16759100407
16759105350
16759108707
16759117557
16759123661
16759127994
16759134708
16759139286
16759146000
16759150394
16759157963
16759164432
16759170048
16759176029
16759180424
16759187137
16759193485
16759199466
16759205997
16759212284
16759218815
16759223331
16759229252
16759235172
16759239383
16759245365
16759252262
16759259342
16759264408
16759270328
16759275882
16759280582
16759286136
16759291080
16759297794
16759303836
16759308780
16759315250
16759320560
16759326846
16759332157
16759339908
16759346500
16759353946
16759358218
16759366641
16759371341
16759378970
16759384769
16759393375
16759400516
16759409610
16759415347
16759424319
16759431522
16759438968
16759450931
16759458743
16759467898
16759479129
16759487918
16759497073
16759506778
16759513980
16759527896
16759537783
16759550479
16759563052
16759572879
16759585757
16759594302
16759601748
16759611514
16759618350
16759623782
16759637393
16759647341
16759654788
16759661929
16759670474
16759678164
16759686953
16759695254
16759704714
16759711550
16759720095
16759727480
16759736269
16759743593
16759752077
16759760317
16759769106
16759777285
16759783938
16759792910
16759799563
16759807680
16759816713
16759823977
16759833071
16759840090
16759848452
16759855532
16759864321
16759872499
16759881349
16759889284
16759895632
16759900820
16759912233
16759917665
16759928774
16759935365
16759942995
16759948061
16759964235
16759971986
16759979738
16759989076
16759996645
16760004640
16760012147
16760023317
16760030763
16760039796
16760047487
16760056581
16760063966
16760072633
16760080385
16760089723
16760096986
16760104310
16760111390
16760120179
16760127870
16760137086
16760144410
16760153443
16760160585
16760168641
16760175965
16760186524
16760193666
16760201600
16760208009
16760218019
16760226197
16760234742
16760243226
16760249024
16760258302
16760264344
16760272401
16760278931
16760292786
16760300172
16760306336
16760317384
16760323487
16760333985
16760340699
16760352357
16760356629
16760367920
16760376160
16760383851
16760390931
16760399781
16760409729
16760415833
16760423523
16760429749
16760437439
16760443665
16760453797
16760459900
16760469666
16760475403
16760487244
16760494446
16760501526
16760509217
16760516907
16760526428
16760531189
16760540161
16760548950
16760556885
16760565308
16760574585
16760582092
16760591187
16760599060
16760605591
16760613464
16760621399
16760626587
16760635803
16760644165
16760652893
16760661133
16760667053
16760673828
16760682678
16760689575
16760698364
16760709778
16760716797
16760723755
16760731750
16760740661
16760749389
16760755859
16760765319
16760772399
16760780151
16760786071
16760794738
16760803100
16760811096
16760817321
16760824401
16760833740
16760842651
16760848632
16760853210
16760864928
16760871276
16760879089
16760883788
16760893554
16760899718
16760903747
16760909484
16760915099
16760920226
16760925780
16760930419
16760936828
16760942077
16760950805
16760956786
16760965880
16760971801
16760978820
16760985167
16760991027
16760996154
16761000731
16761004943
16761009337
16761013488
16761018432
16761024108
16761030028
16761035094
16761040587
16761046325
16761052062
16761056761
16761062194
16761069579
16761075377
16761078185
16761083983
16761089354
16761094298
16761098632
16761105162
16761109740
16761114012
16761119139
16761122984
16761127806
16761131224
16761137145
16761143492
16761147337
16761152586
16761157896
16761162535
16761166258
16761171812
16761175780
16761181639
16761186644
16761190550
16761195799
16761201109
16761206358
16761212218
16761217528
16761221922
16761228575
16761232909
16761239500
16761244505
16761250059
16761256468
16761261961
16761266905
16761272276
16761277159
16761283323
16761287535
16761294920
16761298277
16761306334
16761311461
16761316893
16761321226
16761327269
16761333311
16761340696
16761346922
16761353270
16761358458
16761363340
16761369566
16761375730
16761382933
16761388548
16761394102
16761399290
16761409056
16761418638
16761426634
16761436460
16761445677
16761452635
16761460752
16761468321
16761478086
16761485044
16761492612
16761501524
16761513303
16761521604
16761527647
16761536008
16761542722
16761550657
16761557981
16761569394
16761577634
16761585874
16761594602
16761602414
16761611814
16761626584
16761634824
16761645627
16761655942
16761664853
16761674680
16761682981
16761692014
16761700192
16761708676
16761716550
16761724484
16761732663
16761740598
16761748593
16761756528
16761766843
16761773129
16761781796
16761790402
16761798581
16761805600
16761817197
16761825619
16761831784
16761840695
16761849667
16761856381
16761866025
16761877682
16761898312
16761917965
16761937313
16761956356
16761975338
16761994808
16762013607
16762033138
16762051449
16762065243
16762073971
16762081661
16762090084
16762102840
16762117184
16762131100
16762145870
16762161190
16762173031
16762182064
16762190242
16762198970
16762207454
16762216243
16762224178
16762232418
16762240779
16762249385
16762258235
16762266841
16762274898
16762285518
16762295833
16762306270
16762315730
16762327205
16762335201
16762347774
16762357051
16762366573
16762377132
16762386958
16762397761
16762405757
16762417842
16762428218
16762437373
16762446345
16762453609
16762464351
16762475154
16762486201
16762499141
16762510005
16762519221
16762530818
16762541865
16762555049
16762565974
16762577998
16762591487
16762602717
16762612300
16762622431
16762630793
16762642878
16762651911
16762661799
16762672358
16762681818
16762691889
16762702265
16762712214
16762723994
16762733271
16762742914
16762752192
16762763666
16762772699
16762782221
16762791254
16762800348
16762811213
16762821527
16762830194
16762840692
16762851496
16762860651
16762872003
16762880060
16762890924
16762901727
16762909418
16762921198
16762932489
16762942560
16762950678
16762960626
16762971124
16762983270
16762992181
16763002069
16763012140
16763021600
16763029474
16763040887
16763052911
16763063043
16763072076
16763079461
16763088189
16763095086
16763100824
16763106683
16763114373
16763120904
16763127008
16763134088
16763141473
16763145929
16763155389
16763162286
16763167779
16763174066
16763180169
16763187188
16763193536
16763202264
16763208672
16763213311
16763219842
16763227349
16763233148
16763238885
16763246880
16763253716
16763260003
16763268365
16763275323
16763280144
16763288445
16763296197
16763303704
16763310601
16763317864
16763326104
16763333062
16763342217
16763352349
16763363335
16763375664
16763388787
16763396355
16763403313
16763408684
16763417778
16763424981
16763431816
16763439324
16763445671
16763452446
16763459038
16763465142
16763471428
16763479180
16763486199
16763495842
16763502922
16763508537
16763516655
16763525688
16763533012
16763541008
16763549553
16763557488
16763563774
16763572319
16763581474
16763589531
16763597221
16763607048
16763613579
16763622185
16763628593
16763636955
16763643791
16763653251
16763661430
16763667778
16763675834
16763683891
16763691459
16763697624
16763702873
16763708976
16763714836
16763720024
16763724907
16763730766
16763735771
16763743522
16763747367
16763755363
16763759086
16763764884
16763771659
16763778068
16763780265
16763788017
16763793266
16763799125
16763803581
16763809013
16763813773
16763820182
16763822196
16763831657
16763838615
16763845084
16763847038
16763854362
16763857597
16763866142
16763872428
16763879386
16763886954
16763890189
16763899284
16763905570
16763912223
16763926810
16763932364
16763938041
16763942618
16763946647
16763949332
16763954947
16763960868
16763965873
16763971183
16763976920
16763983207
16763990104
16763995536
16764000907
16764007926
16764012809
16764019889
16764025443
16764031852
16764038077
16764043021
16764049491
16764052603
16764058036
16764062491
16764068412
16764073844
16764078726
16764085135
16764089652
16764093253
16764100760
16764105887
16764110404
16764117423
16764125235
16764131033
16764136160
16764143668
16764152090
16764158682
16764163870
16764170645
16764176566
16764183890
16764189200
16764195242
16764200491
16764205252
16764210806
16764216849
16764224234
16764231131
16764235647
16764241202
16764246023
16764249319
16764258291
16764262198
16764269583
16764277029
16764282278
16764289724
16764293387
16764299978
16764303762
16764313711
16764319754
16764326223
16764328176
16764338491
16764344290
16764350759
16764356558
16764363272
16764369070
16764373831
16764379629
16764383962
16764390188
16764394705
16764400686
16764406667
16764412771
16764417410
16764422292
16764429434
16764435354
16764441518
16764448049
16764456350
16764463613
16764469472
16764476125
16764480886
16764489309
16764494985
16764501516
16764508352
16764510183
16764520071
16764526662
16764531240
16764534719
16764541616
16764547902
16764553945
16764559560
16764565236
16764568654
16764574758
16764580556
16764586965
16764592092
16764598989
16764603688
16764609121
16764614003
16764620412
16764626332
16764632009
16764637014
16764643788
16764649892
16764656484
16764661794
16764668874
16764675405
16764680898
16764687123
16764692616
16764699513
16764705434
16764711537
16764717946
16764724294
16764730702
16764735829
16764742543
16764750539
16764756520
16764762990
16764768056
16764775136
16764780812
16764785817
16764791249
16764798634
16764804066
16764810719
16764816640
16764823903
16764829335
16764836049
16764841786
16764848134
16764855946
16764861195
16764867848
16764873829
16764879200
16764886219
16764893238
16764898304
16764906544
16764914112
16764918995
16764922535
16764932545
16764937245
16764950428
16764954762
16764961842
16764966114
16764973438
16764979786
16764987049
16764991200
16764998951
16765002857
16765011402
16765015614
16765021961
16765027271
16765032581
16765037586
16765044239
16765048573
16765055653
16765063770
16765070057
16765075489
16765080311
16765086719
16765091480
16765095142
16765110523
16765117969
16765123524
16765129932
16765134632
16765140613
16765145618
16765151294
16765155689
16765161121
16765166675
16765170765
16765175770
16765181263
16765185840
16765192127
16765195972
16765204151
16765207996
16765215015
16765218860
16765226429
16765232837
16765238086
16765244373
16765250965
16765254688
16765262866
16765266468
16765274951
16765281482
16765287769
16765293506
16765300403
16765306201
16765311939
16765319812
16765324390
16765329883
16765335437
16765340320
16765346301
16765349841
16765357654
16765364062
16765368457
16765373523
16765381824
16765387073
16765393237
16765398913
16765404101
16765410632
16765414844
16765421130
16765427173
16765433337
16765439624
16765445849
16765452380
16765458117
16765462756
16765468799
16765472888
16765476123
16765484729
16765488208
16765494799
16765501513
16765508532
16765512561
16765519824
16765524585
16765529773
16765535815
16765541735
16765548083
16765554614
16765560412
16765564929
16765569323
16765575915
16765581286
16765587023
16765593127
16765600207
16765604357
16765612414
16765616930
16765626330
16765634203
16765641100
16765647692
16765653490
16765658251
16765663683
16765672472
16765679186
16765684985
16765689684
16765694872
16765699938
16765707140
16765712633
16765719530
16765723131
16765731554
16765734789
16765740771
16765745836
16765752794
16765758593
16765764940
16765770250
16765775316
16765782518
16765787828
16765792650
16765799852
16765804491
16765811022
16765817614
16765819506
16765830309
16765836046
16765840929
16765851427
16765856859
16765863024
16765867723
16765874681
16765882128
16765887438
16765894151
16765898180
16765903978
16765909837
16765915636
16765921922
16765926988
16765931993
16765938219
16765944139
16765950609
16765954271
16765960558
16765966417
16765974168
16765979295
16765985887
16765991624
16765996080
16766001573
16766008531
16766014635
16766019395
16766026292
16766031419
16766037584
16766044542
16766049730
16766055833
16766060533
16766066453
16766072679
16766079698
16766086107
16766088243
16766096849
16766102037
16766108018
16766113328
16766119371
16766124803
16766135728
16766140123
16766144517
16766151597
16766155992
16766162034
16766168199
16766174119
16766178819
16766185960
16766191636
16766197007
16766203416
16766208238
16766217149
16766224961
16766229722
16766238328
16766242783
16766251572
16766257981
16766264573
16766271104
16766278367
16766283799
16766290635
16766297227
16766301926
16766307480
16766312913
16766319993
16766324753
16766332932
16766339341
16766344407
16766351304
16766356064
16766362168
16766367539
16766371872
16766377854
16766384385
16766386460
16766394883
16766398362
16766407334
16766413498
16766418381
16766424363
16766430405
16766435837
16766439743
16766445236
16766450852
16766457566
16766462570
16766468369
16766472275
16766478012
16766483139
16766489121
16766495285
16766501633
16766507431
16766512131
16766517624
16766519455
16766528183
16766531540
16766538071
16766543747
16766551071
16766556808
16766564255
16766566452
16766574692
16766581833
16766586960
16766593490
16766597885
16766606918
16766610824
16766618576
16766621994
16766628952
16766634811
16766640671
16766645859
16766654648
16766661728
16766669113
16766674484
16766680160
16766686264
16766691696
16766698227
16766703048
16766706894
16766714950
16766719955
16766727706
16766733139
16766739791
16766745162
16766751571
16766757430
16766763229
16766768295
16766775192
16766781112
16766786483
16766793258
16766799239
16766805160
16766814254
16766819564
16766824203
16766833907
16766840499
16766845443
16766851669
16766856124
16766862411
16766868270
16766874618
16766881698
16766886336
16766892440
16766896224
16766905379
16766909286
16766916549
16766921615
16766929000
16766934127
16766939925
16766946212
16766950606
16766955428
16766961654
16766966658
16766972396
16766979842
16766985701
16766991744
16766997847
16767003096
16767008834
16767013716
16767018843
16767027388
16767033004
16767037947
16767043135
16767047957
16767053206
16767057234
16767062728
16767070235
16767075667
16767080672
16767087142
16767093611
16767099593
16767104292
16767109847
16767114424
16767119612
16767125166
16767131270
16767136641
16767139937
16767147444
16767154219
16767159041
16767162581
16767170943
16767174849
16767182051
16767186446
16767194380
16767199812
16767205488
16767210798
16767217146
16767222578
16767229597
16767234236
16767240523
16767246443
16767253035
16767259016
16767264937
16767269697
16767276777
16767281965
16767288191
16767292830
16767298201
16767304304
16767309492
16767316267
16767321455
16767327803
16767334150
16767339277
16767344099
16767350813
16767356977
16767362409
16767367170
16767373945
16767379255
16767386457
16767391279
16767397016
16767406721
16767412824
16767417646
16767425153
16767431257
16767438642
16767443403
16767449506
16767455061
16767462202
16767469221
16767478132
16767483259
16767486921
16767495466
16767501996
16767508466
16767512556
16767520856
16767526777
16767531232
16767537214
16767543928
16767548871
16767555951
16767561384
16767567792
16767573774
16767580243
16767585187
16767592267
16767597699
16767603009
16767611982
16767616986
16767623273
16767628949
16767635114
16767640607
16767646039
16767649640
16767658002
16767662213
16767669354
16767673749
16767682721
16767688336
16767695477
16767699750
16767708966
16767712933
16767721234
16767727155
16767732098
16767738263
16767743512
16767748944
16767755475
16767761273
16767768109
16767774396
16767778851
16767784894
16767789899
16767797223
16767803204
16767808026
16767811932
16767820843
16767824689
16767831708
16767838055
16767843670
16767850079
16767857464
16767864422
16767869732
16767873517
16767881695
16767888104
16767892804
16767897747
16767904705
16767911297
16767916546
16767920697
16767929302
16767933697
16767941082
16767946087
16767957989
16767962872
16767969036
16767973431
16767980694
16767985577
16767992169
16767996990
16768004559
16768011639
16768018902
16768024212
16768031414
16768035076
16768044598
16768048809
16768058392
16768063579
16768071026
16768076763
16768083416
16768088665
16768094951
16768101665
16768111065
16768116375
16768122967
16768128460
16768134075
16768138347
16768144573
16768149028
16768155132
16768161113
16768167400
16768173687
16768178814
16768183635
16768189739
16768195964
16768201763
16768208049
16768214214
16768219768
16768226360
16768232219
16768237285
16768242534
16768247539
16768254497
16768260600
16768264812
16768269756
16768275249
16768280681
16768286418
16768291179
16768297832
16768303142
16768309001
16768314311
16768320293
16768324809
16768331218
16768337138
16768343181
16768346782
16768354777
16768360454
16768366435
16768371623
16768377544
16768381389
16768389567
16768393107
16768402812
16768406169
16768414714
16768418864
16768425639
16768430583
16768436686
16768444011
16768448893
16768453715
16768460917
16768466410
16768472087
16768476481
16768483805
16768490031
16768496806
16768501628
16768509257
16768513530
16768519633
16768524211
16768531047
16768537089
16768543376
16768549235
16768555338
16768560221
16768566020
16768570597
16768575968
16768582133
16768588175
16768595622
16768602213
16768607157
16768612894
16768620036
16768625040
16768634745
16768641642
16768648783
16768655253
16768661173
16768667033
16768673075
16768678324
16768684428
16768693033
16768701090
16768707865
16768714518
16768719340
16768722819
16768733256
16768739237
16768745096
16768750467
16768755655
16768762613
16768767862
16768774576
16768780314
16768786539
16768793558
16768798136
16768804422
16768806925
16768817667
16768823099
16768830789
16768835733
16768841410
16768845499
16768851175
16768854959
16768863382
16768869180
16768873941
16768877603
16768885477
16768889749
16768896097
16768901834
16768908670
16768914041
16768920084
16768924661
16768932230
16768938028
16768943399
16768947977
16768951822
16768960306
16768964151
16768970254
16768976236
16768983316
16768988992
16768994790
16769000589
16769006265
16769011331
16769017373
16769025247
16769030374
16769035074
16769041177
16769048318
16769053811
16769058633
16769064676
16769072732
16769078103
16769082925
16769086709
16769095620
16769099710
16769107766
16769111245
16769117959
16769123696
16769128457
16769133828
16769139627
16769145364
16769151834
16769158303
16769166360
16769173318
16769180337
16769186868
16769192422
16769197854
16769205605
16769209084
16769217019
16769222817
16769230080
16769235146
16769242898
16769248452
16769253335
16769263222
16769267983
16769278298
16769284585
16769289284
16769293130
16769300088
16769306496
16769313576
16769320595
16769327614
16769333291
16769340432
16769347512
16769353920
16769359292
16769365334
16769372109
16769378395
16769385537
16769391091
16769396401
16769401894
16769407997
16769411721
16769419960
16769423683
16769431862
16769438576
16769443581
16769448464
16769455422
16769460976
16769466042
16769471291
16769476906
16769484718
16769489906
16769496132
16769501259
16769506081
16769512978
16769519936
16769526222
16769533852
16769540138
16769544777
16769551247
16769556862
16769560646
16769568519
16769572121
16769580665
16769585182
16769591896
16769597389
16769603798
16769609718
16769616249
16769621132
16769626686
16769634071
16769639503
16769646949
16769651710
16769658912
16769663002
16769669288
16769673072
16769681984
16769688575
16769693702
16769698829
16769704628
16769711769
16769719459
16769724891
16769732704
16769741126
16769748512
16769756935
16769762489
16769767066
16769773658
16769779151
16769786353
16769793128
16769800391
16769805702
16769810889
16769816566
16769822852
16769828162
16769834937
16769839942
16769845740
16769853126
16769858070
16769864112
16769868873
16769876136
16769881568
16769889197
16769894752
16769905005
16769909949
16769916846
16769924231
16769928626
16769931922
16769939002
16769943885
16769953467
16769961463
16769968970
16769974646
16769981055
16769987281
16769992285
16769998450
16770002784
16770008521
16770015174
16770021704
16770027442
16770032569
16770037940
16770045508
16770050269
16770055396
16770061560
16770066626
16770071448
16770078040
16770088171
16770092932
16770098914
16770103491
16770109534
16770114600
16770119482
16770126196
16770131445
16770137549
16770142920
16770148047
16770152197
16770159338
16770163916
16770170325
16770178015
16770183935
16770191626
16770196814
16770201636
16770209387
16770214392
16770217993
16770227331
16770231176
16770239660
16770243628
16770252844
16770256689
16770264868
16770269079
16770276770
16770282507
16770289892
16770294043
16770302832
16770309667
16770314733
16770318518
16770328649
16770332922
16770340368
16770344152
16770352453
16770357702
16770362829
16770370214
16770377233
16770383032
16770389501
16770394811
16770399572
16770404516
16770410497
16770417272
16770423132
16770430639
16770434362
16770441503
16770444921
16770452123
16770455541
16770463903
16770470861
16770476781
16770481786
16770486913
16770495824
16770501073
16770507909
16770513524
16770521032
16770525365
16770532018
16770537755
16770543187
16770550817
16770557775
16770565160
16770571569
16770576207
16770582799
16770586888
16770592565
16770597936
16770603490
16770609532
16770614415
16770619908
16770626012
16770631993
16770637242
16770641515
16770647130
16770654454
16770659581
16770665379
16770669164
16770677403
16770683263
16770687901
16770693089
16770700353
16770705846
16770712682
16770717442
16770724034
16770729039
16770733861
16770740330
16770745702
16770755284
16770761937
16770766759
16770774388
16770778844
16770782384
16770791356
16770794835
16770803074
16770807042
16770813817
16770817479
16770825963
16770831517
16770836766
16770842381
16770849034
16770854832
16770861241
16770867588
16770873204
16770878758
16770884556
16770888951
16770896885
16770902073
16770907933
16770912388
16770918980
16770924107
16770930699
16770935215
16770941868
16770949253
16770954991
16770961277
16770966587
16770972447
16770976597
16770983555
16770989170
16770994358
16771000706
16771008579
16771014011
16771019321
16771023899
16771029636
16771036533
16771042454
16771047398
16771054050
16771059788
16771064976
16771070896
16771076938
16771081699
16771088230
16771095310
16771102207
16771107639
16771114963
16771119663
16771123935
16771132480
16771135959
16771143406
16771147068
16771155674
16771163242
16771171115
16771175083
16771182712
16771186313
16771194187
16771200412
16771206577
16771213474
16771218601
16771223911
16771230197
16771234653
16771240695
16771247409
16771253757
16771258701
16771265659
16771271579
16771276218
16771282077
16771285800
16771294894
16771298618
16771307529
16771313571
16771318210
16771323215
16771329440
16771334445
16771341525
16771347201
16771353610
16771358798
16771365573
16771370517
16771375949
16771381198
16771388522
16771393649
16771400790
16771405856
16771413119
16771417575
16771422885
16771429538
16771431796
16771441806
16771447848
16771454318
16771460604
16771465731
16771473239
16771477633
16771481173
16771491549
16771497714
16771502230
16771505709
16771514010
16771517672
16771525118
16771533358
16771541598
16771547885
16771552828
16771558383
16771564486
16771570529
16771575594
16771582003
16771587374
16771591097
16771600619
16771604586
16771611239
16771616183
16771623141
16771628817
16771633944
16771640963
16771647921
16771651888
16771659518
16771663119
16771671297
16771675997
16771683993
16771689730
16771697664
16771701449
16771708712
16771714754
16771723055
16771727450
16771735140
16771741060
16771748018
16771753267
16771760530
16771765779
16771770662
16771778658
16771786470
16771793123
16771800325
16771805391
16771811922
16771817110
16771824251
16771829134
16771836763
16771842745
16771848665
16771853548
16771860262
16771864839
16771871492
16771876558
16771882478
16771889925
16771896455
16771900911
16771904451
16771912569
16771916231
16771923921
16771927400
16771935213
16771942476
16771947420
16771952852
16771958711
16771964326
16771971284
16771975801
16771983003
16771988923
16771994417
16772000947
16772007234
16772012178
16772018464
16772022981
16772028657
16772035493
16772042817
16772047334
16772050874
16772058931
16772062715
16772070649
16772074067
16772082978
16772089875
16772094697
16772098237
16772106721
16772110688
16772117646
16772122834
16772129243
16772134065
16772142610
16772148286
16772153230
16772156465
16772165193
16772168427
16772177338
16772182954
16772189607
16772195771
16772200715
16772206696
16772211823
16772215791
16772225617
16772231232
16772238984
16772244538
16772251801
16772257355
16772262665
16772268037
16772274689
16772281830
16772287934
16772294282
16772300568
16772305695
16772308991
16772317597
16772322114
16772329682
16772339508
16772344696
16772352387
16772357575
16772361237
16772369721
16772373261
16772381012
16772384613
16772402008
16772409882
16772414521
16772417572
16772426911
16772433014
16772439179
16772442536
16772448761
16772454193
16772462555
16772468903
16772475067
16772479035
16772486908
16772490631
16772498444
16772501617
16772510223
16772513580
