16600140364
16600146163
16600151534
16600157271
16600162947
16600169356
16600175582
16600181197
16600186568
16600193282
16600199690
16600205611
16600211775
16600218001
16600224837
16600230269
16600236678
16600242720
16600248457
16600255049
16600261946
16600269331
16600275862
16600282637
16600288252
16600295149
16600301008
16600308272
16600313948
16600321028
16600326277
16600332747
16600341292
16600350447
16600356062
16600365034
16600371382
16600379499
16600383589
16600394148
16600402388
16600409895
16600417219
16600423567
16600429243
16600434675
16600441267
16600447431
16600453901
16600459822
16600464948
16600471662
16600477339
16600483808
16600491133
16600496137
16600505048
16600510420
16600517988
16600527021
16600534162
16600542097
16600548078
16600554670
16600562482
16600567915
16600576032
16600586408
16600592634
16600599287
16600606428
16600612897
16600619428
16600626447
16600632551
16600638105
16600645795
16600651838
16600658918
16600663007
16600671491
16600678876
16600685407
16600692426
16600698652
16600705060
16600712506
16600719159
16600725019
16600732465
16600739118
16600745526
16600750165
16600757855
16600764508
16600770612
16600778607
16600784284
16600791181
16600799237
16600808087
16600816266
16600824262
16600833234
16600840680
16600847882
16600853436
16600860883
16600866620
16600873944
16600882001
16600888776
16600893536
16600900616
16600907696
16600914410
16600922589
16600929486
16600937848
16600945599
16600951886
16600957196
16600965558
16600970807
16600978253
16600981671
16600991070
16600997906
16601005413
16601012005
16601017010
16601024456
16601030926
16601039471
16601046856
16601053021
16601059979
16601067120
16601074017
16601079632
16601088299
16601094769
16601100689
16601104595
16601113934
16601119671
16601128826
16601137615
16601145611
16601153179
16601160381
16601167095
16601173321
16601180157
16601188763
16601195721
16601203777
16601210125
16601215679
16601221599
16601229473
16601235332
16601243816
16601250896
16601257305
16601264080
16601270977
16601276836
16601285381
16601292461
16601299297
16601304851
16601311626
16601320293
16601325603
16601332744
16601339702
16601346355
16601353801
16601360637
16601368022
16601373577
16601380962
16601387676
16601392986
16601401225
16601406658
16601413982
16601421367
16601427715
16601435283
16601441447
16601449016
16601455913
16601461589
16601468547
16601474223
16601483623
16601489299
16601497478
16601503520
16601513713
16601519633
16601528422
16601536235
16601542399
16601550700
16601558940
16601564738
16601572429
16601579997
16601587748
16601593486
16601601054
16601606852
16601612162
16601617533
16601624064
16601629496
16601634623
16601638713
16601644389
16601649638
16601654887
16601659342
16601667033
16601671305
16601675334
16601682719
16601688761
16601694132
16601700114
16601705424
16601712199
16601717753
16601723002
16601728312
16601732279
16601737467
16601742472
16601747782
16601753214
16601758890
16601764201
16601770548
16601774821
16601780924
16601786722
16601793009
16601799174
16601805399
16601808756
16601816874
16601820780
16601828715
16601832560
16601839884
16601845621
16601854532
16601858927
16601864176
16601869913
16601873880
16601879435
16601884928
16601889750
16601894876
16601900125
16601905619
16601910257
16601915506
16601920816
16601926248
16601931864
16601937601
16601942850
16601948282
16601952982
16601958719
16601964517
16601969095
16601975626
16601980875
16601984781
16601991068
16601997293
16602003458
16602007303
16602014261
16602017557
16602025247
16602030557
16602037088
16602041422
16602047647
16602052042
16602058572
16602065713
16602070718
16602075174
16602082437
16602086648
16602092386
16602098001
16602102579
16602108316
16602113138
16602119851
16602123269
16602131143
16602136209
16602142434
16602148538
16602153970
16602160318
16602165323
16602170144
16602176004
16602180764
16602187722
16602191873
16602198159
16602204629
16602210916
16602215799
16602221414
16602228311
16602234231
16602240274
16602244119
16602251687
16602259439
16602264565
16602269937
16602276528
16602281533
16602287820
16602293984
16602299416
16602307534
16602312783
16602319131
16602324624
16602330605
16602335671
16602342873
16602346658
16602354470
16602361550
16602370278
16602373879
16602381386
16602387429
16602392373
16602397011
16602405312
16602410866
16602416787
16602422158
16602429848
16602435586
16602440896
16602445473
16602453591
16602456887
16602464638
16602469033
16602474221
16602478371
16602484597
16602489052
16602494973
16602500405
16602505837
16602511818
16602516518
16602521828
16602527260
16602531533
16602537636
16602543617
16602549233
16602553322
16602558998
16602564797
16602570351
16602576088
16602580788
16602587074
16602593178
16602598854
16602603554
16602609657
16602616493
16602621498
16602626381
16602631386
16602638710
16602643044
16602647804
16602655373
16602660561
16602665932
16602670753
16602676430
16602681007
16602688087
16602692482
16602699318
16602704140
16602710182
16602715980
16602720009
16602727333
16602732887
16602739052
16602743629
16602748634
16602753761
16602761757
16602768654
16602777198
16602783485
16602796730
16602803871
16602810585
16602819557
16602825904
16602835426
16602843849
16602850746
16602860267
16602867164
16602875160
16602885780
16602894264
16602901405
16602910499
16602917091
16602924232
16602934119
16602938331
16602949012
16602955054
16602964820
16602971656
16602980445
16602987403
16602996558
16603004798
16603012122
16603021644
16603028785
16603038001
16603044715
16603055030
16603062415
16603072547
16603080725
16603088355
16603097327
16603105078
16603112525
16603120215
16603130103
16603139746
16603145545
16603155982
16603163184
16603172095
16603179358
16603187293
16603193701
16603202551
16603211340
16603218604
16603227148
16603234717
16603242407
16603248511
16603257056
16603264868
16603273474
16603282080
16603288672
16603296118
16603305334
16603310583
16603321386
16603325659
16603338598
16603346716
16603354101
16603361120
16603369299
16603375830
16603386145
16603392858
16603401342
16603409216
16603416418
16603422216
16603430273
16603436254
16603446386
16603452917
16603462927
16603469824
16603478857
16603487097
16603494116
16603502416
16603509313
16603518957
16603524084
16603534582
16603539709
16603549657
16603557470
16603566076
16603573156
16603580785
16603587377
16603596593
16603604955
16603613927
16603620763
16603629003
16603637365
16603643956
16603652562
16603659642
16603669225
16603674108
16603685582
16603690526
16603700109
16603707494
16603716283
16603724279
16603735448
16603743810
16603750035
16603758275
16603766026
16603770543
16603780309
16603789342
16603797521
16603802586
16603813329
16603820287
16603827550
16603833226
16603844884
16603855931
16603863744
16603873204
16603880711
16603890538
16603899571
16603906895
16603915928
16603927769
16603933995
16603944676
16603953526
16603960911
16603967869
16603978123
16603983921
16603993260
16603999180
16604007176
16604012913
16604021275
16604029454
16604037632
16604045994
16604053318
16604059605
16604067356
16604074741
16604082859
16604089146
16604097324
16604105137
16604111607
16604119297
16604126926
16604134556
16604140659
16604148838
16604156589
16604164646
16604171116
16604176243
16604181126
16604186985
16604191013
16604198337
16604201755
16604209202
16604213962
16604219944
16604224338
16604231846
16604236789
16604242832
16604247654
16604254001
16604258701
16604264621
16604270603
16604276401
16604282383
16604287937
16604293613
16604298374
16604304721
16604311069
16604316623
16604323581
16604327915
16604334018
16604344943
16604349155
16604356235
16604363437
16604368564
16604375583
16604380771
16604388034
16604393344
16604396762
16604405673
16604412448
16604418735
16604426913
16604431918
16604439670
16604444980
16604451205
16604458408
16604463901
16604471408
16604477328
16604482455
16604489169
16604493991
16604501437
16604507113
16604516635
16604521823
16604528415
16604533603
16604540439
16604546786
16604554477
16604560336
16604567843
16604573397
16604579806
16604586886
16604593173
16604597872
16604604098
16604609774
16604616854
16604622531
16604629122
16604635714
16604641146
16604645541
16604652682
16604657626
16604663912
16604670138
16604675448
16604681307
16604686556
16604692538
16604697176
16604702975
16604708895
16604714571
16604720187
16604724581
16604731051
16604735323
16604740939
16604746798
16604753878
16604758578
16604765475
16604769930
16604775912
16604780245
16604786349
16604791842
16604797640
16604805391
16604810885
16604818148
16604821200
16604828158
16604832491
16604839205
16604844576
16604853060
16604858004
16604864107
16604868563
16604875460
16604880281
16604885347
16604891939
16604899019
16604903536
16604908113
16604914400
16604918733
16604925020
16604928987
16604936128
16604944246
16604948763
16604953707
16604960176
16604965608
16604971346
16604975618
16604982149
16604986726
16604993379
16605000154
16605005464
16605010286
16605016512
16605022371
16605027620
16605034334
16605040254
16605046846
16605051790
16605058015
16605064485
16605069551
16605075593
16605083101
16605089387
16605094636
16605102388
16605107332
16605112336
16605119233
16605124788
16605131135
16605137849
16605143892
16605151216
16605156953
16605162141
16605169648
16605175447
16605181367
16605190339
16605195893
16605201081
16605206147
16605212251
16605217073
16605225251
16605228730
16605235993
16605241548
16605246736
16605251924
16605256013
16605260407
16605266511
16605269685
16605277863
16605283967
16605288484
16605293061
16605299409
16605302705
16605309296
16605315095
16605321748
16605324799
16605333466
16605336396
16605343171
16605347260
16605356538
16605363557
16605373627
16605381562
16605390595
16605396454
16605404755
16605412385
16605419037
16605426301
16605432953
16605443085
16605446991
16605459137
16605464264
16605474213
16605478485
16605490326
16605495575
16605506134
16605512848
16605522125
16605527680
16605536347
16605543610
16605552155
16605558624
16605567108
16605572113
16605580475
16605585114
16605595490
16605602203
16605609222
16605618011
16605626068
16605632294
16605641449
16605647125
16605656830
16605664581
16605675140
16605683014
16605692108
16605699615
16605707672
16605717071
16605724945
16605733307
16605739959
16605746856
16605755523
16605763885
16605771881
16605780792
16605787017
16605794403
16605805206
16605816741
16605827178
16605832122
16605845306
16605850250
16605859893
16605864898
16605876617
16605885711
16605892974
16605904998
16605912261
16605919891
16605930450
16605939666
16605946502
16605955962
16605965056
16605972991
16605980010
16605988860
16605995818
16606005462
16606012847
16606020781
16606027434
16606035064
16606043914
16606049773
16606058074
16606066069
16606072600
16606080779
16606087065
16606094207
16606103362
16606109221
16606119109
16606124663
16606134551
16606141570
16606148711
16606155425
16606164031
16606168974
16606178557
16606185881
16606193999
16606200163
16606208403
16606214873
16606225676
16606231902
16606239226
16606245451
16606252775
16606261931
16606268156
16606274382
16606284147
16606290312
16606298369
16606306486
16606310942
16606320341
16606326384
16606336454
16606344023
16606350737
16606356779
16606364958
16606373930
16606379850
16606387785
16606393217
16606403288
16606408415
16606416899
16606423918
16606433073
16606440580
16606447355
16606453642
16606462736
16606469694
16606478605
16606485624
16606492338
16606500456
16606508268
16606515043
16606519987
16606530180
16606541776
16606548673
16606557767
16606566495
16606573575
16606582975
16606590482
16606597562
16606608732
16606617948
16606626066
16606638517
16606646756
16606654569
16606663419
16606673124
16606681241
16606687955
16606696378
16606703397
16606710477
16606712125
16606721707
16606727750
16606733060
16606737882
16606744351
16606746060
16606753812
16606757047
16606764371
16606769254
16606775418
16606781705
16606786710
16606791715
16606796414
16606800809
16606806485
16606812039
16606819119
16606823819
16606829251
16606833768
16606839078
16606843472
16606850308
16606855008
16606860806
16606866421
16606872403
16606877041
16606883511
16606889065
16606893460
16606899746
16606904263
16606909634
16606915616
16606920743
16606923916
16606932278
16606935696
16606943692
16606949002
16606956448
16606961941
16606967251
16606973538
16606977871
16606984646
16606989834
16606996121
16607001736
16607008389
16607013272
16607019497
16607025784
16607030422
16607036404
16607042141
16607048245
16607052639
16607055935
16607064724
16607067959
16607075283
16607079128
16607087063
16607094875
16607099209
16607105434
16607110683
16607115566
16607122219
16607127834
16607131741
16607137661
16607143032
16607145962
16607152920
16607158413
16607162563
16607165859
16607172878
16607180263
16607186001
16607190883
16607196987
16607202480
16607208034
16607215908
16607222377
16607227443
16607235073
16607238369
16607246791
16607253505
16607259182
16607264309
16607270595
16607278041
16607286891
16607291408
16607297023
16607301601
16607307765
16607312404
16607317531
16607322841
16607328456
16607332912
16607340663
16607345363
16607351467
16607355373
16607361903
16607365993
16607372890
16607376918
16607383388
16607388088
16607394130
16607399440
16607404323
16607409816
16607415736
16607421962
16607426723
16607432521
16607438014
16607443751
16607448268
16607454921
16607458644
16607465297
16607471400
16607477016
16607482997
16607491115
16607495936
16607503322
16607509181
16607516688
16607522426
16607528468
16607531459
16607538539
16607544032
16607549281
16607554347
16607560511
16607565333
16607570582
16607576808
16607582545
16607587001
16607592799
16607599391
16607607447
16607612025
16607618373
16607624354
16607628871
16607634730
16607640833
16607645716
16607650355
16607658656
16607665370
16607671107
16607675990
16607682459
16607687891
16607693507
16607699366
16607705164
16607709376
16607715174
16607719813
16607726893
16607733301
16607737879
16607743677
16607749110
16607755457
16607759852
16607766382
16607770289
16607777613
16607781153
16607787867
16607792383
16607803187
16607806360
16607815516
16607821924
16607828455
16607831812
16607838160
16607844385
16607853235
16607859766
16607863977
16607869898
16607879236
16607888636
16607895044
16607903589
16607911463
16607914026
16607925623
16607931848
16607940454
16607945032
16607954920
16607959802
16607970545
16607975732
16607984216
16607988672
16607998926
16608003198
16608011255
16608017541
16608026880
16608034082
16608042505
16608046533
16608055810
16608061975
16608069848
16608075952
16608086511
16608093042
16608102258
16608108423
16608114953
16608122705
16608130639
16608136865
16608145654
16608154260
16608162011
16608167871
16608175866
16608181787
16608188073
16608195825
16608203149
16608212182
16608219384
16608226708
16608232018
16608241662
16608247704
16608254968
16608261132
16608269616
16608275475
16608283105
16608291100
16608296838
16608302575
16608310204
16608317895
16608327050
16608333581
16608340966
16608348839
16608355187
16608361413
16608369469
16608377221
16608384118
16608393395
16608398034
16608407555
16608414635
16608421471
16608427453
16608435814
16608444847
16608452294
16608458580
16608467186
16608476281
16608488915
16608495934
16608505455
16608509911
16608521263
16608529259
16608539025
16608545921
16608556175
16608563561
16608572289
16608582115
16608589806
16608598778
16608604820
16608614525
16608620995
16608629661
16608639122
16608648521
16608654747
16608664757
16608672020
16608680626
16608685386
16608695701
16608701133
16608713157
16608721519
16608730003
16608737205
16608744957
16608752220
16608760032
16608767601
16608775047
16608782615
16608790855
16608797080
16608805137
16608812583
16608818260
16608827354
16608835899
16608843345
16608849326
16608859641
16608865989
16608874412
16608881370
16608889121
16608896690
16608902610
16608909507
16608917808
16608925315
16608931174
16608939597
16608945396
16608949973
16608961265
16608966697
16608976218
16608980308
16608990806
16608998740
16609007895
16609014792
16609021384
16609028098
16609036582
16609044699
16609048789
16609059775
16609069663
16609076682
16609083579
16609091391
16609096396
16609106284
16609111350
16609122214
16609130759
16609138632
16609145529
16609154257
16609161765
16609169882
16609176230
16609184103
16609191000
16609198630
16609207663
16609215170
16609221396
16609226157
16609237509
16609241781
16609247763
16609253927
16609258932
16609263266
16609270224
16609274923
16609280173
16609284445
16609291098
16609295431
16609304159
16609309774
16609316610
16609321920
16609330648
16609335836
16609342489
16609346395
16609355856
16609360434
16609368490
16609374472
16609381979
16609390585
16609395590
16609402487
16609405660
16609412924
16609417318
16609422567
16609426595
16609430990
16609435446
16609440511
16609444479
16609449423
16609453207
16609458212
16609463033
16609468038
16609473287
16609481100
16609486715
16609493856
16609498617
16609504232
16609508871
16609513998
16609518880
16609525106
16609530050
16609536336
16609540487
16609546895
16609551656
16609557088
16609562704
16609567708
16609572286
16609578023
16609584249
16609588521
16609593099
16609595723
16609603536
16609608358
16609615865
16609619222
16609624898
16609630452
16609636678
16609641256
16609646505
16609652974
16609659139
16609665364
16609669942
16609674886
16609681111
16609685384
16609692098
16609697225
16609702901
16609708394
16609713765
16609719319
16609725362
16609729512
16609736958
16609745320
16609751790
16609756795
16609767232
16609772420
16609778706
16609784383
16609789388
16609797688
16609805684
16609813008
16609819112
16609824849
16609834309
16609846455
16609853474
16609859639
16609864338
16609870137
16609877522
16609880452
16609890950
16609893391
16609903157
16609909260
16609917073
16609921894
16609927082
16609932270
16609938130
16609943379
16609951069
16609955220
16609962178
16609967671
16609974995
16609980061
16609986164
16609990559
16609996235
16610001728
16610007099
16610011067
16610016987
16610023213
16610028462
16610032490
16610038654
16610042866
16610049397
16610054951
16610060688
16610064777
16610070576
16610075825
16610081013
16610086994
16610092182
16610098896
16610104328
16610110065
16610112019
16610120258
16610123615
16610131550
16610137775
16610143452
16610149677
16610154804
16610159260
16610164997
16610171467
16610177326
16610182758
16610188312
16610193989
16610199360
16610205768
16610211811
16610216022
16610221027
16610227253
16610229389
16610238910
16610243366
16610249897
16610253315
16610260212
16610265399
16610272357
16610278217
16610284076
16610288227
16610294513
16610298908
16610305866
16610310687
16610318195
16610323017
16610330219
16610335834
16610340778
16610346515
16610352802
16610357806
16610363910
16610368304
16610375262
16610379657
16610382831
16610391010
16610394855
16610400897
16610406573
16610415607
16610427142
16610433368
16610441241
16610450213
16610456805
16610469501
16610480975
16610488482
16610499408
16610508136
16610516070
16610524066
16610533099
16610540667
16610550006
16610560015
16610573077
16610581988
16610588336
16610595355
16610605425
16610615313
16610623065
16610632952
16610640826
16610648272
16610657244
16610664324
16610672747
16610679400
16610686846
16610697100
16610706499
16610711748
16610721331
16610729327
16610738604
16610745684
16610752276
16610762285
16610770769
16610777544
16610786272
16610792681
16610802141
16610809160
16610833757
16610842730
16610847734
16610859148
16610864397
16610873857
16610881182
16610889482
16610896196
16610905779
16610912676
16610922258
16610928789
16610939043
16610945696
16610953691
16610961870
16610970537
16610978105
16610983659
16610991533
16611000017
16611005876
16611014482
16611022783
16611029680
16611037492
16611043901
16611052568
16611058549
16611067888
16611075883
16611083391
16611092119
16611100602
16611106279
16611115739
16611120866
16611131364
16611140214
16611147599
16611152787
16611163957
16611168290
16611181291
16611186845
16611196122
16611205583
16611212480
16611222306
16611230790
16611238603
16611245072
16611252885
16611262467
16611269730
16611277055
16611286515
16611294999
16611301224
16611310868
16611316300
16611328446
16611333695
16611345963
16611359391
16611366471
16611376053
16611386185
16611394059
16611401017
16611410904
16611418229
16611428116
16611435807
16611443802
16611450821
16611459427
16611468094
16611475357
16611481461
16611490189
16611497940
16611504654
16611512528
16611520889
16611526871
16611534378
16611542130
16611549576
16611557510
16611563431
16611571610
16611579605
16611587479
16611593216
16611601822
16611611160
16611619339
16611625442
16611634231
16611641739
16611649490
16611656570
16611663650
16611669327
16611679641
16611688186
16611694839
16611702346
16611710403
16611716934
16611727554
16611735122
16611742935
16611749404
16611757644
16611766250
16611774063
16611782791
16611789932
16611798538
16611805984
16611814834
16611821243
16611831191
16611836990
16611843276
16611849258
16611854446
16611858108
16611867019
16611873244
16611878738
16611883437
16611889663
16611895278
16611900405
16611907058
16611915176
16611920180
16611925674
16611931533
16611936660
16611943862
16611948745
16611954665
16611962356
16611967177
16611970290
16611977614
16611983718
16611991652
16611996840
16612002028
16612010329
16612015883
16612021010
16612026686
16612032302
16612039138
16612043898
16612048781
16612055312
16612063002
16612069289
16612075209
16612081252
16612088027
16612093947
16612100051
16612106276
16612113234
16612118300
16612124770
16612132033
16612137587
16612145094
16612150588
16612155226
16612160292
16612166762
16612172926
16612178114
16612184096
16612188368
16612194167
16612201125
16612204909
16612212355
16612218153
16612222975
16612228224
16612232741
16612238722
16612243727
16612251234
16612256483
16612261732
16612267409
16612272413
16612279249
16612283461
16612288405
16612295057
16612298597
16612308180
16612312758
16612318556
16612320387
16612329176
16612332472
16612339064
16612344252
16612352674
16612357069
16612365248
16612366773
16612378736
16612385633
16612390943
16612394605
16612403456
16612410230
16612416273
16612419386
16612427381
16612432752
16612438368
16612445509
16612451490
16612456312
16612462110
16612468397
16612473463
16612477918
16612481153
16612488660
16612495618
16612501844
16612507032
16612511365
16612517774
16612522352
16612525770
16612533826
16612540845
16612547925
16612553602
16612560743
16612563062
16612570752
16612575818
16612581678
16612584607
16612593641
16612600110
16612606031
16612611341
16612616163
16612622449
16612629407
16612632093
16612641126
16612646070
16612654309
16612658460
16612665357
16612672559
16612679395
16612686658
16612696546
16612702588
16612709424
16612716016
16612720654
16612726575
16612731152
16612737317
16612741773
16612748853
16612753613
16612760144
16612764355
16612771863
16612777722
16612782910
16612786816
16612793713
16612798779
16612805432
16612810620
16612816724
16612821728
16612827954
16612832715
16612839673
16612845105
16612850964
16612856640
16612862988
16612868969
16612875195
16612879956
16612885510
16612891064
16612896252
16612900525
16612906323
16612910962
16612917065
16612923474
16612928540
16612933300
16612940258
16612944592
16612950207
16612954480
16612960705
16612966503
16612972180
16612978649
16612984875
16612989453
16612995312
16613001049
16613008190
16613013622
16613019482
16613024487
16613033032
16613042431
16613047680
16613059032
16613064343
16613075207
16613079540
16613093822
16613100902
16613115551
16613130199
16613141857
16613153209
16613165050
16613178051
16613189220
16613199840
16613210033
16613223827
16613232189
16613239940
16613249950
16613256847
16613267833
16613276134
16613286327
16613297862
16613307628
16613315685
16613324779
16613334544
16613344737
16613355174
16613364757
16613378307
16613390391
16613403453
16613412852
16613426097
16613435863
16613443309
16613458384
16613469615
16613479747
16613490611
16613499278
16613510569
16613518992
16613529979
16613539073
16613554270
16613575694
16613595530
16613614329
16613633067
16613652354
16613670542
16613689585
16613706187
16613728647
16613738291
16613747446
16613756846
16613773569
16613791452
16613812204
16613831308
16613844797
16613855966
16613865122
16613873972
16613884958
16613894174
16613903208
16613911691
16613920847
16613932504
16613941904
16613952219
16613960519
16613970956
16613979501
16613989816
16613997568
16614009531
16614018686
16614028329
16614037973
16614047311
16614056161
16614065988
16614076608
16614084604
16614095163
16614104623
16614114755
16614124032
16614137216
16614145883
16614154122
16614165292
16614170968
16614182076
16614186898
16614200875
16614212350
16614221871
16614230172
16614240548
16614251168
16614258553
16614268807
16614278573
16614286996
16614297799
16614307992
16614318856
16614329598
16614340890
16614350167
16614359566
16614367074
16614376351
16614384774
16614393502
16614403695
16614412056
16614422860
16614431954
16614441658
16614449776
16614459908
16614468270
16614478829
16614487435
16614496834
16614504585
16614513619
16614525154
16614532845
16614544746
16614554512
16614565132
16614575264
16614584968
16614594856
16614604195
16614612373
16614621712
16614631782
16614638923
16614650337
16614657539
16614670662
16614675544
16614689827
16614700813
16614710090
16614719184
16614729011
16614739082
16614748420
16614759956
16614771125
16614779609
16614786933
16614799018
16614805610
16614815315
16614819831
16614829414
16614837898
16614845161
16614852363
16614860969
16614868171
16614875922
16614885200
16614893256
16614901069
16614907294
16614916389
16614922675
16614932319
16614937507
16614942573
16614948798
16614953559
16614958198
16614962287
16614968512
16614973273
16614977912
16614983771
16614988349
16614995063
16614998847
16615003485
16615009101
16615013922
16615020392
16615025336
16615030219
16615035773
16615040900
16615045111
16615050055
16615055854
16615061835
16615067145
16615072699
16615078925
16615083991
16615091376
16615096076
16615100958
16615107794
16615112982
16615118659
16615124335
16615129645
16615136359
16615140265
16615146857
16615150580
16615155463
16615159918
16615164435
16615170172
16615175360
16615180121
16615184882
16615188727
16615194037
16615199225
16615203497
16615208685
16615212530
16615218024
16615220404
16615227728
16615233404
16615239081
16615244635
16615248907
16615255011
16615260504
16615265570
16615270514
16615274542
16615279303
16615285162
16615292608
16615297613
16615301519
16615306341
16615311163
16615315802
16615320990
16615326422
16615330145
16615335638
16615340460
16615344854
16615349981
16615354193
16615360601
16615367742
16615372259
16615378485
16615385076
16615389898
16615395757
16615400335
16615406805
16615413030
16615418829
16615425726
16615432073
16615436834
16615443853
16615447515
16615454351
16615465032
16615470159
16615477300
16615483221
16615486883
16615495550
16615499090
16615508245
16615513982
16615521367
16615525945
16615532781
16615539495
16615544683
16615550115
16615557195
16615562932
16615567815
16615573735
16615579412
16615586309
16615593389
16615596013
16615606328
16615616033
16615621526
16615630315
16615636052
16615641606
16615646428
16615654119
16615660344
16615665837
16615673223
16615679997
16615686589
16615693730
16615700078
16615704778
16615712102
16615717839
16615723882
16615728276
16615733830
16615739507
16615745061
16615749577
16615756596
16615761479
16615768254
16615772954
16615778874
16615781316
16615787602
16615791691
16615799199
16615805791
16615810856
16615816655
16615821110
16615826481
16615831853
16615838994
16615843876
16615850651
16615855290
16615860539
16615865971
16615870427
16615875432
16615881352
16615887455
16615896367
16615900639
16615910588
16615918156
16615928044
16615934025
16615943913
16615947697
16615961125
16615966374
16615978092
16615983219
16615994206
16615999394
16616008915
16616016911
16616024357
16616032536
16616040226
16616044437
16616058414
16616064274
16616074589
16616083500
16616090763
16616099857
16616107609
16616112369
16616123783
16616129032
16616139164
16616146976
16616154422
16616161930
16616171512
16616181278
16616189335
16616198612
16616206363
16616214298
16616223819
16616232059
16616240909
16616245792
16616256595
16616261844
16616272830
16616278629
16616290042
16616295841
16616306339
16616316776
16616324710
16616334232
16616342105
16616351505
16616360721
16616372134
16616379459
16616394351
16616401370
16616409427
16616417727
16616424380
16616434085
16616441470
16616449344
16616454348
16616464663
16616473575
16616480960
16616486331
16616497622
16616503115
16616515445
16616522769
16616536746
16616545413
16616554019
16616561770
16616567629
16616576846
16616582827
16616593142
16616601626
16616608157
16616615542
16616624270
16616628725
16616639101
16616647768
16616655825
16616661929
16616672854
16616683718
16616689333
16616698733
16616707155
16616714174
16616720644
16616729311
16616735964
16616743654
16616750979
16616758059
16616766848
16616774416
16616781618
16616786989
16616796511
16616802614
16616809877
16616816774
16616826540
16616830934
16616840029
16616845522
16616854189
16616864015
16616870363
16616879579
16616888918
16616896181
16616903749
16616912965
16616921388
16616931520
16616938234
16616946474
16616955080
16616965028
16616972780
16616980348
16616989809
16616997804
16617003786
16617011598
16617019777
16617025819
16617034669
16617041932
16617052003
16617059694
16617069520
16617077943
16617086183
16617094056
16617104371
16617111940
16617122743
16617133546
16617140626
16617147950
16617159425
16617164613
16617174684
16617183045
16617192933
16617197511
16617208375
16617213136
16617222901
16617231751
16617239320
16617247498
16617254395
16617262269
16617266968
16617273621
16617277833
16617283326
16617288636
16617297913
16617302186
16617307252
16617311890
16617315796
16617321595
16617324769
16617331299
16617337769
16617342591
16617348450
16617352967
16617357666
16617361207
16617367493
16617373291
16617379517
16617383423
16617390442
16617394410
16617401368
16617405030
16617413086
16617420349
16617425782
16617432312
16617439209
16617444214
16617448731
16617454285
16617459046
16617464905
16617471741
16617476990
16617481384
16617485779
16617493042
16617499634
16617505310
16617513611
16617518616
16617524048
16617528992
16617533997
16617538757
16617545471
16617550476
16617557861
16617563721
16617567261
16617573364
16617579346
16617585083
16617589355
16617594482
16617604797
16617610473
16617616150
16617622803
16617627929
16617632324
16617635559
16617645935
16617652038
16617657654
16617664123
16617672058
16617678833
16617684631
16617689819
16617697204
16617705322
16617711242
16617720153
16617727722
16617734374
16617739685
16617746826
16617751525
16617758788
16617764953
16617771911
16617775939
16617782165
16617788329
16617794067
16617799194
16617805419
16617810363
16617816161
16617820678
16617826537
16617830993
16617835509
16617842895
16617848571
16617853088
16617859801
16617866149
16617871703
16617875609
16617881774
16617889831
16617895568
16617901000
16617907775
16617912230
16617918822
16617923705
16617930480
16617934874
16617941100
16617948241
16617953856
16617958983
16617962340
16617970397
16617973693
16617981749
16617985534
16617993346
16617998595
16618003783
16618009032
16618014891
16618021971
16618031371
16618037169
16618044127
16618049620
16618055113
16618059630
16618065856
16618070983
16618077635
16618083800
16618088988
16618095091
16618100951
16618105467
16618112669
16618117003
16618123473
16618130309
16618133055
16618143370
16618149412
16618156309
16618162413
16618169493
16618175658
16618180907
16618189390
16618194823
16618201109
16618205870
16618212889
16618218626
16618222105
16618231077
16618235167
16618244078
16618248472
16618255797
16618259398
16618268004
16618273619
16618281553
16618289915
16618298399
16618304014
16618309996
16618315000
16618321287
16618327757
16618333067
16618339231
16618348631
16618353086
16618359617
16618365660
16618372617
16618376707
16618382810
16618387022
16618393491
16618398618
16618406248
16618411741
16618418638
16618423643
16618430906
16618434385
16618443479
16618451719
16618458250
16618462644
16618474119
16618482786
16618489866
16618499143
16618505002
16618513486
16618519224
16618527341
16618536191
16618542478
16618547727
16618555906
16618562070
16618571897
16618579221
16618586362
16618596555
16618603757
16618612668
16618621274
16618624387
16618636594
16618644895
16618651364
16618662045
16618668149
16618677182
16618683408
16618691647
16618699704
16618705930
16618713681
16618722897
16618728940
16618737241
16618745175
16618747983
16618759640
16618768185
16618777096
16618784115
16618792172
16618798398
16618807004
16618814816
16618823605
16618831967
16618838498
16618847531
16618855832
16618863705
16618871884
16618879757
16618885983
16618894223
16618903561
16618911129
16618917721
16618927365
16618932431
16618942440
16618946957
16618956906
16618966122
16618974239
16618982723
16618989498
16618999264
16619006100
16619013485
16619023983
16619032467
16619041012
16619049557
16619056576
16619064144
16619070736
16619079952
16619090084
16619098202
16619107540
16619114620
16619121517
16619129818
16619136898
16619145260
16619152462
16619160701
16619166744
16619177303
16619184932
16619192501
16619199581
16619207943
16619214778
16619222591
16619229244
16619238460
16619246089
16619253169
16619260555
16619271968
16619280025
16619291377
16619299678
16619309688
16619317439
16619326350
16619334407
16619342647
16619349483
16619357600
16619365779
16619374141
16619384028
16619390315
16619400325
16619406978
16619417476
16619423884
16619433223
16619442561
16619449336
16619457759
16619466853
16619473445
16619482844
16619489192
16619498896
16619504878
16619514949
16619521357
16619530268
16619536738
16619547602
16619553950
16619562190
16619570246
16619578059
16619586298
16619593317
16619602351
16619612116
16619619257
16619629816
16619636530
16619645319
16619654169
16619662348
16619671015
16619679926
16619686030
16619693659
16619701899
16619709284
16619717829
16619725031
16619734308
16619743342
16619749933
16619759455
16619766291
16619775507
16619782343
16619792902
16619799799
16619812067
16619821649
16619829889
16619836298
16619843866
16619849603
16619855402
16619862238
16619869501
16619873651
16619881586
16619889093
16619892938
16619898309
16619901300
16619908685
16619912164
16619919916
16619924554
16619929071
16619933832
16619937921
16619946161
16619951349
16619957147
16619961298
16619965509
16619970209
16619974359
16619978998
16619985956
16619991937
16619998407
16620004205
16620010003
16620015191
16620021478
16620024347
16620034845
16620038629
16620043695
16620048578
16620053460
16620058038
16620064325
16620068963
16620075677
16620078912
16620087030
16620091180
16620098382
16620103387
16620108026
16620114251
16620120965
16620126031
16620131463
16620135858
16620142449
16620146539
16620151910
16620155938
16620162469
16620168572
16620173394
16620178521
16620184075
16620189324
16620192864
16620201470
16620206231
16620214837
16620218865
16620225701
16620230645
16620236993
16620242730
16620248894
16620254510
16620263604
16620268487
16620275384
16620280144
16620286797
16620292168
16620298455
16620303277
16620307671
16620317559
16620322564
16620329827
16620333672
16620341485
16620346672
16620354119
16620360283
16620367546
16620373772
16620380669
16620389336
16620395562
16620402703
16620409416
16620416558
16620422234
16620428887
16620435845
16620441460
16620446160
16620454399
16620461662
16620467461
16620474480
16620479485
16620485588
16620490715
16620496758
16620501762
16620506462
16620512321
16620517082
16620523064
16620527153
16620533989
16620538872
16620544121
16620551140
16620557609
16620562920
16620568169
16620574150
16620579094
16620583549
16620589775
16620594780
16620602531
16620607475
16620614128
16620619682
16620625908
16620631035
16620636162
16620642021
16620648918
16620653679
16620659172
16620665580
16620670524
16620675407
16620681022
16620687614
16620692131
16620700737
16620704887
16620711662
16620716423
16620723442
16620726615
16620733756
16620739189
16620744071
16620749320
16620756889
16620761955
16620769340
16620774833
16620780570
16620788078
16620793754
16620803214
16620810844
16620817374
16620823600
16620827872
16620834342
16620839164
16620846244
16620851188
16620856681
16620862479
16620868033
16620873038
16620878165
16620885123
16620892814
16620898429
16620902579
16620911857
16620915702
16620925284
16620931144
16620938712
16620945182
16620952994
16620961722
16620966666
16620977164
16620985160
16620994559
16621001761
16621011405
16621020438
16621027945
16621040213
16621051138
16621059744
16621067557
16621076407
16621082877
16621099417
16621110159
16621122305
16621132254
16621145438
16621155325
16621166189
16621176687
16621188589
16621196829
16621214468
16621223745
16621237845
16621246695
16621255545
16621266348
16621273123
16621286611
16621297720
16621308767
16621312551
16621327017
16621333242
16621344412
16621352468
16621361440
16621369009
16621382681
16621388174
16621397268
16621404897
16621411550
16621418081
16621427480
16621437917
16621443960
16621452871
16621460744
16621468252
16621477773
16621480886
16621491994
16621501699
16621509755
16621516591
16621524221
16621531728
16621539418
16621546682
16621555532
16621563100
16621571889
16621580068
16621586660
16621595937
16621601491
16621611928
16621620961
16621628530
16621636830
16621642873
16621651601
16621661427
16621667470
16621678334
16621686208
16621694142
16621702809
16621711537
16621718312
16621728383
16621737294
16621744496
16621753956
16621760792
16621769704
16621774647
16621785084
16621792225
16621801198
16621807728
16621815480
16621822743
16621831715
16621839405
16621846974
16621856739
16621863697
16621878163
16621884693
16621894032
16621903004
16621913136
16621920765
16621929249
16621939137
16621945301
16621953907
16621959767
16621970265
16621978443
16621990223
16621998341
16622007130
16622015308
16622021656
16622030262
16622036182
16622044605
16622052845
16622061268
16622067188
16622074512
16622082081
16622088062
16622096180
16622104114
16622109791
16622118885
16622124805
16622133472
16622140247
16622158985
16622181079
16622203357
16622226612
16622236926
16622245288
16622254016
16622263110
16622271716
16622281116
16622288562
16622296069
16622304553
16622311206
16622320300
16622328357
16622336780
16622343738
16622351733
16622358142
16622365222
16622373584
16622382251
16622388659
16622396594
16622402026
16622409717
16622416675
16622426196
16622433581
16622441211
16622450122
16622458300
16622468249
16622472644
16622483935
16622492663
16622499926
16622506396
16622509875
16622518908
16622526476
16622532946
16622538806
16622544848
16622549609
16622554308
16622561205
16622566699
16622575121
16622580248
16622585314
16622589953
16622597216
16622602465
16622608996
16622613024
16622623156
16622626940
16622635668
16622638903
16622647021
16622650622
16622657336
16622660692
16622669726
16622674975
16622681627
16622688158
16622692736
16622698107
16622703356
16622709765
16622713671
16622718798
16622724840
16622729784
16622735643
16622741625
16622744432
16622753283
16622758837
16622764696
16622768114
16622774218
16622778795
16622784899
16622790636
16622796373
16622801805
16622806627
16622812486
16622818163
16622824816
16622832140
16622839159
16622845323
16622850816
16622856676
16622860582
16622866502
16622872118
16622878832
16622885912
16622890672
16622896593
16622902330
16622908128
16622914537
16622919237
16622924913
16622931383
16622937608
16622942125
16622948350
16622953050
16622959642
16622963243
16622970689
16622976854
16622981798
16622986680
16622993821
16622998277
16623005174
16623009691
16623015733
16623022264
16623028489
16623033799
16623039659
16623045335
16623052110
16623059495
16623064317
16623070054
16623078599
16623083604
16623091416
16623097276
16623104661
16623111253
16623117051
16623123826
16623129380
16623133103
16623139939
16623146653
16623153550
16623159226
16623165513
16623173203
16623180650
16623186692
16623194627
16623202988
16623208848
16623220444
16623227586
16623236985
16623246689
16623256150
16623265000
16623272080
16623282334
16623287888
16623298447
16623306077
16623316514
16623324814
16623334580
16623341416
16623350937
16623358078
16623362107
16623371750
16623378098
16623386582
16623392868
16623400437
16623408371
16623416794
16623424790
16623429611
16623437790
16623447678
16623454697
16623463120
16623469162
16623479538
16623484909
16623493698
16623501328
16623505905
16623517258
16623523910
16623533188
16623539780
16623549057
16623556991
16623561813
16623569748
16623576584
16623586593
16623592880
16623595505
16623606186
16623610641
16623622116
16623628402
16623636764
16623643051
16623652206
16623658065
16623663192
16623672348
16623682357
16623694442
16623702255
16623709213
16623718307
16623726852
16623733566
16623740585
16623749618
16623759689
16623768417
16623772933
16623782455
16623790084
16623792892
16623806319
16623809432
16623820541
16623825057
16623835616
16623843368
16623850936
16623858138
16623866256
16623873397
16623880904
16623888595
16623894698
16623903304
16623910872
16623916610
16623927169
16623933883
16623943587
16623953414
16623963668
16623970809
16623986006
16623992598
16624004317
16624013411
16624022811
16624032515
16624040389
16624050643
16624061690
16624072798
16624079634
16624092268
16624101179
16624112044
16624122298
16624129683
16624141463
16624150618
16624165938
16624180037
16624188765
16624200422
16624209700
16624222212
16624231428
16624241499
16624250593
16624259016
16624269880
16624281233
16624290693
16624297102
16624303999
16624312300
16624319563
16624325849
16624330854
16624342634
16624349165
16624356855
16624361372
16624374555
16624378767
16624388776
16624396162
16624404707
16624410932
16624420087
16624426313
16624434186
16624441144
16624448835
16624457075
16624459821
16624472333
16624478254
16624487470
16624495527
16624502790
16624507856
16624518598
16624523359
16624533612
16624538495
16624548078
16624556379
16624564191
16624571271
16624579450
16624585736
16624594892
16624601422
16624609113
16624617597
16624626569
16624633038
16624640607
16624649152
16624657086
16624663861
16624671552
16624677960
16624686322
16624696027
16624703595
16624712323
16624719159
16624726544
16624733136
16624743146
16624749798
16624758221
16624764447
16624772320
16624781170
16624783917
16624795208
16624801739
16624809124
16624819195
16624825543
16624834332
16624841168
16624848065
16624856305
16624864117
16624872052
16624878399
16624886273
16624892437
16624901287
16624910076
16624915936
16624924053
16624931927
16624938275
16624946209
16624955242
16624960186
16624970745
16624981426
16624988995
16624997112
16625007305
16625018658
16625025555
16625034160
16625041485
16625052166
16625064007
16625073162
16625081035
16625088176
16625097576
16625101909
16625111492
16625118267
16625125591
16625136028
16625142803
16625151104
16625156963
16625165630
16625174480
16625180828
16625185710
16625195537
16625206035
16625214153
16625219158
16625229717
16625234783
16625243022
16625249431
16625258586
16625265544
16625275249
16625281535
16625290630
16625299785
16625307048
16625315776
16625323405
16625331828
16625340617
16625349162
16625357097
16625362834
16625368327
16625375041
16625380412
16625385600
16625389934
16625399333
16625403300
16625411113
16625414164
16625422160
16625427348
16625432475
16625439128
16625444316
16625449321
16625456401
16625461711
16625468547
16625472880
16625478862
16625484904
16625492350
16625498820
16625504740
16625510783
16625515238
16625521098
16625526957
16625531413
16625538554
16625544657
16625549662
16625556010
16625560099
16625568583
16625572733
16625581400
16625585795
16625594767
16625600932
16625607340
16625613383
16625620158
16625625346
16625631754
16625639445
16625644266
16625649454
16625656473
16625663492
16625670572
16625676615
16625682047
16625690470
16625701029
16625706705
16625712015
16625717630
16625725443
16625730753
16625737467
16625742350
16625752481
16625757791
16625764383
16625771707
16625778238
16625782633
16625788431
16625794107
16625799295
16625805399
16625811502
16625816385
16625819864
16625827982
16625831949
16625838175
16625843973
16625849405
16625855264
16625860696
16625865823
16625872171
16625877542
16625884500
16625890909
16625896524
16625899759
16625906717
16625911966
16625918497
16625924600
16625930521
16625936014
16625943277
16625949808
16625960245
16625966348
16625973794
16625980386
16625986245
16625991372
16625996316
16626001138
16626006143
16626010232
16626014322
16626018838
16626024148
16626030008
16626035501
16626039834
16626045633
16626050943
16626056314
16626061013
16626067361
16626070230
16626075723
16626078591
16626086282
16626092446
16626095620
16626101846
16626107766
16626112954
16626117349
16626124001
16626127969
16626135110
16626141396
16626147500
16626153176
16626159036
16626164407
16626171365
16626175332
16626181496
16626186806
16626191689
16626198403
16626202920
16626210122
16626213784
16626221108
16626229043
16626233925
16626239968
16626247536
16626253274
16626259682
16626265786
16626273232
16626279030
16626283364
16626288918
16626294899
16626299965
16626305031
16626313515
16626318886
16626326455
16626331704
16626337075
16626341408
16626346962
16626353798
16626358864
16626363198
16626368996
16626373146
16626379921
16626384865
16626389626
16626396034
16626401406
16626406716
16626413002
16626418495
16626424599
16626430031
16626434670
16626441689
16626446083
16626450478
16626457253
16626464394
16626469215
16626476295
16626481728
16626485451
16626493141
16626496315
16626504860
16626511269
16626518104
16626522621
16626528786
16626534950
16626541115
16626547401
16626553016
16626558876
16626564918
16626569862
16626575660
16626580726
16626584877
16626591041
16626595741
16626598976
16626607155
16626612892
16626617103
16626623085
16626629371
16626635536
16626641517
16626646644
16626652870
16626659584
16626664405
16626670875
16626676612
16626682289
16626687965
16626693824
16626698463
16626705787
16626711463
16626718482
16626723304
16626729469
16626734046
16626740394
16626746192
16626750221
16626756812
16626764930
16626772498
16626777320
16626783363
16626790260
16626795325
16626802711
16626808265
16626816688
16626821815
16626829688
16626835303
16626844398
16626847632
16626855567
16626862647
16626867896
16626874122
16626879859
16626887061
16626890113
16626897315
16626901648
16626907813
16626910437
16626918738
16626921729
16626929908
16626933936
16626940650
16626948218
16626952430
16626957740
16626962866
16626967505
16626972998
16626978552
16626983557
16626990210
16626995764
16627000342
16627005957
16627011694
16627016150
16627022254
16627026587
16627033972
16627038916
16627045081
16627051672
16627056799
16627062415
16627066992
16627073096
16627080176
16627084692
16627091284
16627096289
16627102576
16627107580
16627113257
16627120032
16627125647
16627130530
16627136816
16627141943
16627149084
16627153601
16627159277
16627164831
16627170813
16627176062
16627181250
16627187414
16627192541
16627198462
16627203894
16627208593
16627215185
16627220373
16627228430
16627233374
16627240149
16627244604
16627251257
16627258520
16627264624
16627269201
16627275671
16627280065
16627286474
16627291357
16627297399
16627302099
16627309606
16627316137
16627321142
16627327734
16627333044
16627339513
16627344579
16627349889
16627356725
16627362951
16627367834
16627375219
16627382177
16627388219
16627394933
16627401769
16627409460
16627415319
16627423131
16627426061
16627435033
16627445470
16627451757
16627460546
16627465246
16627471654
16627477453
16627482824
16627487401
16627494481
16627499181
16627505712
16627511449
16627516149
16627522496
16627528112
16627532323
16627538976
16627545140
16627551671
16627557042
16627563024
16627567967
16627574254
16627580602
16627587621
16627594762
16627600621
16627607213
16627612889
16627617772
16627623387
16627628697
16627634068
16627638890
16627647740
16627651769
16627659032
16627662694
16627670995
16627674962
16627683079
16627690587
16627695897
16627702000
16627707616
16627710911
16627719090
16627721898
16627730199
16627733433
16627743077
16627747105
16627755589
16627758885
16627767064
16627772740
16627777318
16627781895
16627789280
16627794713
16627801243
16627807774
16627812901
16627818638
16627825291
16627830113
16627835667
16627841954
16627848118
16627852574
16627858555
16627863011
16627866673
16627875523
16627881321
16627888706
16627894016
16627899632
16627903721
16627910618
16627914646
16627922581
16627927464
16627936436
16627940281
16627947605
16627954380
16627960239
16627963230
16627972630
16627978306
16627985203
16627991795
16628000095
16628004429
16628011997
16628017246
16628024998
16628033115
16628039036
16628042393
16628051731
16628058201
16628063450
16628069065
16628075718
16628080417
16628086887
16628090915
16628097141
16628103428
16628108127
16628113498
16628119358
16628124912
16628129612
16628135898
16628140842
16628146884
16628151218
16628155979
16628161289
16628166904
16628173679
16628179416
16628186191
16628190158
16628198276
16628202426
16628209628
16628213168
16628221164
16628226962
16628233066
16628238132
16628244785
16628249851
16628258212
16628263950
16628272861
16628278537
16628285007
16628290134
16628296970
16628302219
16628307529
16628314365
16628318942
16628323581
16628330600
16628336276
16628342990
16628348361
16628354403
16628360812
16628367099
16628373691
16628379794
16628385409
16628391147
16628398410
16628403842
16628408542
16628413607
16628420565
16628426364
16628434298
16628439547
16628445407
16628449801
16628455966
16628463656
16628468844
16628472445
16628480685
16628487582
16628493197
16628499484
16628505892
16628512057
16628518466
16628524203
16628531100
16628535677
16628541293
16628546908
16628555575
16628560824
16628567294
16628573763
16628581271
16628584505
16628596285
16628604403
16628611483
16628617037
16628623629
16628628878
16628636690
16628642367
16628651034
16628656466
16628663363
16628669344
16628676729
16628681246
16628688082
16628693148
16628700472
16628706881
16628712252
16628718782
16628725252
16628729586
16628736360
16628746004
16628753572
16628758455
16628764498
16628769441
16628775911
16628781038
16628786653
16628791780
16628799288
16628804659
16628809725
16628816744
16628822603
16628827547
16628834139
16628839632
16628846895
16628854219
16628858980
16628865511
16628870943
16628877412
16628883333
16628890413
16628898103
16628903779
16628909700
16628913972
16628919527
16628925752
16628930513
16628936738
16628943879
16628948457
16628954011
16628960054
16628964692
16628969697
16628975251
16628980134
16628987397
16628993623
16628998567
16629004853
16629010713
16629015474
16629022676
16629027131
16629036775
16629041535
16629047456
16629051789
16629058198
16629064546
16629069917
16629075959
16629082551
16629088105
16629093232
16629099153
16629103974
16629110444
16629113740
16629120698
16629128205
16629133027
16629138764
16629143830
16629148957
16629155427
16629161347
16629167939
16629173310
16629180390
16629186372
16629192536
16629197968
16629204560
16629209565
16629216706
16629224335
16629231721
16629237885
16629244721
16629252350
16629257477
16629263398
16629272614
16629280060
16629287140
16629292023
16629297516
16629303986
16629309418
16629312836
16629323212
16629327423
16629334931
16629338288
16629346710
16629352448
16629358063
16629362763
16629370209
16629375031
16629383026
16629388886
16629395477
16629400971
16629407257
16629412262
16629418182
16629423370
16629428864
16629435577
16629441864
16629447296
16629454437
16629459747
16629465546
16629471527
16629476227
16629483063
16629485748
16629495270
16629498566
16629506134
16629510345
16629517364
16629522735
16629529632
16629535003
16629541107
16629545379
16629550995
16629557220
16629562713
16629568268
16629575226
16629581390
16629586761
16629591217
16629597870
16629604644
16629606231
16629616241
16629621917
16629629547
16629633331
16629641265
16629645843
16629654754
16629658782
16629667999
16629672332
16629682281
16629686126
16629693145
16629695953
16629703460
16629710540
16629715972
16629721710
16629730010
16629735870
16629740997
16629747894
16629751617
16629758514
16629763885
16629769988
16629774078
16629781768
16629785369
16629792815
16629800384
16629806609
16629813750
16629818450
16629828826
16629834807
16629841094
16629847991
16629853789
16629862578
16629868743
16629874541
16629882171
16629885772
16629894866
16629901213
16629907317
16629913237
16629919097
16629924346
16629930632
16629935393
16629941130
16629946990
16629953520
16629958220
16629965178
16629972502
16629979216
16629985015
16629990691
16629997222
16630003081
16630008208
16630014311
16630020720
16630026396
16630030974
16630036711
16630043425
16630049284
16630054045
16630058623
16630065886
16630071745
16630077666
16630087736
16630093901
16630098051
16630106352
16630111967
16630117277
16630122954
16630129667
16630135710
16630141630
16630146147
16630153044
16630158171
16630165251
16630170683
16630178862
16630183439
16630189665
16630194487
16630201078
16630206144
16630213041
16630219023
16630224760
16630230131
16630235746
16630241239
16630247404
16630253507
16630259123
16630265165
16630270902
16630277433
16630283720
16630292143
16630299040
16630306242
16630312101
16630320707
16630326688
16630333036
16630338529
16630344999
16630349882
16630356962
16630361173
16630369657
16630378873
16630385221
16630391447
16630397184
16630403348
16630408964
16630414396
16630422269
16630426725
16630436185
16630444974
16630451871
16630457975
16630464505
16630469510
16630475614
16630481961
16630490384
16630495694
16630502652
16630510587
16630516629
16630523465
16630529935
16630538358
16630544095
16630549222
16630555265
16630561673
16630567899
16630574430
16630579801
16630587003
16630592557
16630598111
16630605313
16630610074
16630617337
16630621243
16630628507
16630636624
16630642178
16630649075
16630656400
16630661526
16630666775
16630672024
16630679776
16630683743
16630691434
16630696744
16630702481
16630707974
16630714810
16630719998
16630726468
16630733304
16630740628
16630745938
16630751858
16630756497
16630763516
16630768277
16630775235
16630780179
16630788296
16630793545
16630799038
16630803677
16630811612
16630816677
16630823330
16630829922
16630836026
16630841641
16630847256
16630854641
16630860928
16630866421
16630873257
16630880459
16630888699
16630894070
16630900540
16630906582
16630913113
16630919521
16630926724
16630932522
16630937771
16630944302
16630950954
16630957119
16630962429
16630969448
16630976955
16630984463
16630989468
16630994045
16631000881
16631008205
16631015163
16631019680
16631026638
16631031460
16631039699
16631045498
16631054470
16631058986
16631068813
16631073513
16631081508
16631087856
16631092739
16631099636
16631106472
16631114711
16631119594
16631128627
16631135463
16631138881
16631146938
16631150783
16631157192
16631159999
16631166896
16631173610
16631179164
16631183742
16631190578
16631195705
16631200771
16631206142
16631211574
16631218776
16631225307
16631228969
16631235500
16631239040
16631247646
16631252711
16631259242
16631266627
16631272853
16631279079
16631283717
16631289821
16631295619
16631297511
16631305934
16631313685
16631319423
16631324672
16631331935
16631337977
16631343898
16631349635
16631354396
16631361537
16631366542
16631372767
16631377345
16631385463
16631391444
16631396815
16631401271
16631408961
16631412928
16631418360
16631424525
16631431361
16631436549
16631443446
16631448634
16631456019
16631461024
16631468043
16631473231
16631480067
16631485194
16631491725
16631496424
16631505030
16631512782
16631518885
16631524744
16631531092
16631537257
16631544459
16631550684
16631557093
16631560511
16631567835
16631572901
16631578760
16631583765
16631590418
16631595789
16631605128
16631610499
16631615565
16631620264
16631627833
16631633631
16631639307
16631644739
16631651880
16631658594
16631664942
16631668055
16631678736
16631685022
16631692652
16631699427
16631705774
16631711695
16631717859
16631723841
16631730799
16631736048
16631739893
16631748804
16631752161
16631758753
16631765894
16631771143
16631774622
16631780908
16631786218
16631791956
16631797144
16631804773
16631809778
16631816370
16631821375
16631828027
16631834131
16631840662
16631845544
16631851770
16631857385
16631864038
16631869531
16631875452
16631881189
16631887109
16631892297
16631897973
16631903406
16631910547
16631915124
16631920556
16631927881
16631935144
16631939782
16631943384
16631950769
16631956689
16631963098
16631968469
16631975244
16631981591
16631986963
16631993615
16631999536
16632005090
16632011377
16632017663
16632023095
16632030542
16632036035
16632040612
16632046594
16632052514
16632059106
16632064782
16632069970
16632076257
16632082360
16632088891
16632094262
16632100488
16632105187
16632111413
16632116113
16632123193
16632129052
16632136498
16632141564
16632147729
16632152917
16632160058
16632165551
16632171471
16632176049
16632182519
16632188805
16632194604
16632201134
16632206505
16632212304
16632217553
16632224938
16632230553
16632237206
16632242333
16632249901
16632255394
16632261620
16632269249
16632275353
16632284508
16632290306
16632298607
16632303185
16632310448
16632315941
16632321984
16632329003
16632335228
16632340599
16632347435
16632353966
16632360680
16632366112
16632373741
16632378441
16632384300
16632391380
16632397179
16632401756
16632408409
16632415367
16632420433
16632425011
16632428612
16632437950
16632446129
16632480919
16632488243
16632493492
16632497459
16632502098
16632507530
16632512718
16632517784
16632524681
16632529747
16632534752
16632539940
16632544517
16632548973
16632555870
16632562828
16632567711
16632574180
16632579429
16632582237
16632587791
16632594810
16632599205
16632604148
16632609825
16632613670
16632617637
16632623374
16632630027
16632636131
16632641380
16632647239
16632652793
16632657066
16632663841
16632670188
16632675620
16632680503
16632684471
16632691856
16632696861
16632702171
16632708274
16632713584
16632717796
16632722923
16632727866
16632730308
16632736350
16632740562
16632745689
16632752097
16632756919
16632761619
16632766868
16632772056
16632776755
16632783713
16632788535
16632793662
16632798240
16632804038
16632809348
16632815330
16632819724
16632823691
16632829123
16632833457
16632838096
16632840598
16632846640
16632854575
16632858115
16632864524
16632866965
16632876792
16632881736
16632886740
16632892661
16632896445
16632902488
16632906272
16632911277
16632915976
16632921775
16632926657
16632929892
16632935630
16632938864
16632943625
16632949362
16632954795
16632959921
16632966635
16632971823
16632977194
16632982138
16632986899
16632992941
16632998435
16633006186
16633010825
16633016257
16633022116
16633027426
16633030844
16633037192
16633044333
16633050070
16633055197
16633060934
16633065878
16633071677
16633076498
16633083578
16633089499
16633096274
16633101584
16633107931
16633112265
16633120199
16633125631
16633132345
16633140524
16633147299
16633152853
16633159689
16633165915
16633170858
16633175497
16633185080
16633191671
16633197836
16633203329
16633210165
16633215902
16633220541
16633225363
16633230368
16633234213
16633239218
16633244772
16633248434
16633254721
16633259237
16633266622
16633272360
16633279562
16633283956
16633289510
16633295309
16633302633
16633306173
16633311788
16633316671
16633321859
16633325948
16633333334
16633336568
16633344686
16633350851
16633356771
16633361898
16633369039
16633373128
16633379171
16633383260
16633389547
16633395711
16633400411
16633406759
16633411519
16633415975
16633422262
16633426961
16633433431
16633438924
16633445516
16633450094
16633456685
16633463399
16633469564
16633476461
16633481343
16633486776
16633490377
16633499654
16633506002
16633511800
16633516378
16633524678
16633527974
16633535543
16633541585
16633547383
16633554158
16633561360
16633567647
16633573750
16633578816
16633583882
16633590108
16633595662
16633603230
16633608113
16633612691
16633616109
16633626241
16633630513
16633636983
16633644002
16633649190
16633654927
16633662617
16633668294
16633674275
16633677754
16633686604
16633693501
16633698445
16633704426
16633710591
16633718159
16633722920
16633728535
16633735249
16633741414
16633748677
16633754292
16633760945
16633765706
16633771931
16633779438
16633786213
16633791584
16633798664
16633807209
16633813679
16633818745
16633827656
16633833943
16633839497
16633846577
16633851582
16633856465
16633863117
16633867451
16633873860
16633878986
16633884174
16633890766
