17051240467
17051246143
17051252247
17051257984
17051263233
17051268482
17051273731
17051279407
17051285206
17051291309
17051297901
17051304004
17051310657
17051317005
17051323169
17051329456
17051336353
17051343250
17051349903
17051357105
17051363880
17051370838
17051379138
17051386890
17051394702
17051401965
17051407581
17051414539
17051421436
17051428455
17051435779
17051443286
17051451160
17051458728
17051465625
17051473682
17051480762
17051489184
17051495532
17051501819
17051509753
17051518725
17051527881
17051535022
17051541247
17051546740
17051554126
17051561511
17051566150
17051574328
17051579394
17051586474
17051592456
17051598986
17051605029
17051610888
17051617358
17051621936
17051629687
17051635363
17051641528
17051646899
17051652941
17051657946
17051664782
17051670642
17051676806
17051683154
17051689501
17051695727
17051701891
17051707629
17051713915
17051721179
17051726183
17051733996
17051740832
17051747912
17051753893
17051760973
17051767504
17051774828
17051778918
17051787340
17051794543
17051799486
17051806505
17051811327
17051818529
17051823351
17051829577
17051836352
17051841845
17051848070
17051854784
17051859545
17051866503
17051872118
17051878954
17051884813
17051893297
17051899218
17051906420
17051912584
17051919237
17051927050
17051934679
17051940843
17051949571
17051958727
17051963976
17051971483
17051978197
17051983690
17051990587
17051997545
17052005296
17052010240
17052016954
17052022142
17052028856
17052034776
17052041002
17052046617
17052053392
17052058580
17052065355
17052070848
17052076463
17052083971
17052089464
17052096178
17052101793
17052108629
17052114732
17052119676
17052125108
17052133165
17052139451
17052145433
17052151780
17052158250
17052162462
17052170579
17052174363
17052182420
17052189134
17052193895
17052197618
17052205980
17052212144
17052220384
17052227220
17052235643
17052241380
17052248338
17052254197
17052259751
17052266465
17052272508
17052281175
17052288316
17052294785
17052302903
17052308152
17052314500
17052321275
17052328050
17052334336
17052342271
17052346543
17052354966
17052361863
17052368150
17052374131
17052382066
17052388047
17052395371
17052400925
17052408982
17052416001
17052422349
17052429917
17052437668
17052447190
17052453782
17052462815
17052470383
17052477646
17052485398
17052491684
17052499436
17052507553
17052515549
17052521775
17052529221
17052536240
17052542649
17052551987
17052560349
17052567978
17052575852
17052584458
17052592209
17052599838
17052607712
17052616013
17052621079
17052632614
17052641892
17052649643
17052655197
17052664658
17052670212
17052679001
17052688278
17052695969
17052703903
17052710068
17052718246
17052726242
17052733810
17052738632
17052745224
17052751632
17052756393
17052762558
17052768661
17052773117
17052778183
17052785263
17052792465
17052795761
17052803207
17052807113
17052814193
17052819992
17052826644
17052832199
17052836898
17052842269
17052849899
17052854782
17052860031
17052865646
17052871200
17052877853
17052884506
17052888839
17052895126
17052901412
17052905990
17052912277
17052917770
17052922653
17052929061
17052934371
17052939498
17052944686
17052952010
17052957809
17052962081
17052968185
17052974349
17052979659
17052985641
17052990645
17052998702
17053004561
17053009933
17053015426
17053020858
17053025374
17053031173
17053037276
17053043624
17053048201
17053054427
17053059310
17053065841
17053070907
17053077193
17053083541
17053089583
17053095321
17053100875
17053106612
17053111007
17053117537
17053123824
17053129500
17053134322
17053141707
17053145369
17053153487
17053157332
17053166182
17053170821
17053180525
17053184554
17053193526
17053200484
17053205916
17053212447
17053219588
17053225020
17053230940
17053234969
17053241805
17053247420
17053252913
17053258101
17053264082
17053269942
17053276167
17053281355
17053285506
17053292708
17053297285
17053303511
17053311384
17053317183
17053321638
17053327559
17053333357
17053338667
17053344710
17053350935
17053357893
17053363875
17053368330
17053374373
17053380964
17053387678
17053392439
17053398970
17053406355
17053411543
17053418074
17053424238
17053429609
17053434858
17053441328
17053446882
17053456220
17053462141
17053467207
17053472456
17053479048
17053486372
17053491743
17053499738
17053506635
17053513349
17053519514
17053525556
17053532148
17053537275
17053541792
17053548688
17053556196
17053561384
17053565839
17053572919
17053577985
17053582075
17053588361
17053594709
17053600202
17053607526
17053614179
17053618390
17053624799
17053628461
17053635846
17053641157
17053649152
17053655439
17053662458
17053666425
17053675397
17053678876
17053685102
17053690290
17053697614
17053702863
17053708417
17053714765
17053719403
17053726361
17053731305
17053735761
17053741864
17053749555
17053756085
17053761945
17053769757
17053775128
17053781415
17053786298
17053792828
17053799298
17053806989
17053814557
17053819501
17053825116
17053830121
17053835065
17053840009
17053846295
17053849774
17053855328
17053860394
17053865887
17053869916
17053877179
17053883893
17053892071
17053899151
17053907086
17053914532
17053922589
17053928692
17053936078
17053940411
17053951581
17053956036
17053965313
17053969708
17053978558
17053985821
17053993878
17054001263
17054007489
17054014080
17054023907
17054031109
17054038616
17054043377
17054051617
17054060833
17054066754
17054076702
17054083477
17054091534
17054098065
17054103619
17054111797
17054117230
17054125652
17054132916
17054140789
17054146587
17054155865
17054162029
17054170208
17054177410
17054182720
17054190472
17054199322
17054204876
17054213177
17054218975
17054227093
17054234844
17054239971
17054247905
17054257244
17054262981
17054267315
17054278057
17054285991
17054293193
17054301006
17054308696
17054316997
17054324871
17054332134
17054338176
17054346965
17054353008
17054359966
17054368755
17054377544
17054384441
17054392070
17054400127
17054406108
17054415569
17054420085
17054431987
17054437663
17054447429
17054453166
17054461101
17054469463
17054477153
17054484355
17054493877
17054502605
17054510722
17054516276
17054525981
17054532817
17054540507
17054549540
17054556498
17054566569
17054574870
17054581096
17054590190
17054596232
17054604960
17054610759
17054615580
17054627360
17054636088
17054644999
17054652629
17054658671
17054666300
17054673503
17054680949
17054690592
17054699198
17054708170
17054715861
17054723002
17054730570
17054737955
17054745341
17054753519
17054761088
17054769388
17054776041
17054783976
17054789957
17054798990
17054807535
17054815348
17054823160
17054831949
17054840555
17054847025
17054855082
17054861246
17054869791
17054878031
17054884378
17054892557
17054901407
17054906290
17054916056
17054924295
17054931803
17054938516
17054945658
17054954325
17054963419
17054970133
17054978067
17054984659
17054993753
17054999796
17055008218
17055017984
17055025186
17055031351
17055040689
17055047342
17055055276
17055061319
17055069864
17055078653
17055087686
17055094522
17055099039
17055110635
17055118142
17055125467
17055130411
17055143228
17055148965
17055158975
17055164773
17055174173
17055179300
17055188577
17055196023
17055206155
17055210977
17055222329
17055226907
17055238198
17055244302
17055248574
17055254495
17055261392
17055266763
17055275674
17055281167
17055287454
17055293191
17055301614
17055308022
17055313271
17055321023
17055326821
17055331948
17055337014
17055344033
17055349038
17055356484
17055362527
17055368325
17055372964
17055377968
17055383950
17055389260
17055394021
17055401650
17055406228
17055410988
17055416726
17055421425
17055427895
17055434243
17055440224
17055443520
17055451333
17055455422
17055462014
17055466347
17055471657
17055477211
17055483376
17055488503
17055492775
17055499672
17055506325
17055509987
17055515175
17055520790
17055526345
17055533364
17055538735
17055544289
17055550026
17055553932
17055560585
17055567116
17055573219
17055577797
17055583534
17055589577
17055595131
17055600502
17055606239
17055613930
17055619057
17055625649
17055631203
17055636085
17055642494
17055647011
17055653297
17055660011
17055666786
17055671486
17055677223
17055683571
17055689491
17055694191
17055699806
17055705971
17055712623
17055717933
17055723610
17055728859
17055734108
17055738563
17055746010
17055752052
17055758400
17055764320
17055768592
17055774513
17055778724
17055785011
17055790382
17055797157
17055803566
17055808021
17055813087
17055820533
17055826393
17055832252
17055840492
17055846351
17055853492
17055858741
17055865577
17055870338
17055877052
17055885047
17055890846
17055895850
17055901405
17055906348
17055912208
17055918067
17055922950
17055929847
17055934364
17055939613
17055945838
17055949134
17055955726
17055961219
17055967139
17055973060
17055978980
17055984839
17055989051
17055994361
17056001136
17056004737
17056011207
17056017615
17056023780
17056029395
17056035926
17056041053
17056047583
17056052649
17056059058
17056065772
17056073157
17056076819
17056083838
17056089392
17056094580
17056100989
17056105811
17056113379
17056119116
17056123572
17056129309
17056135962
17056141150
17056147071
17056152442
17056157752
17056165015
17056171485
17056176367
17056182837
17056186438
17056193091
17056198767
17056204688
17056209998
17056216711
17056221716
17056227576
17056233313
17056239294
17056244299
17056251379
17056258948
17056264136
17056270666
17056275305
17056281348
17056287024
17056292334
17056295630
17056304968
17056310827
17056318274
17056324072
17056330969
17056336706
17056342810
17056349035
17056356298
17056361853
17056367468
17056374670
17056381445
17056389318
17056395910
17056404455
17056413488
17056423315
17056432897
17056441564
17056450353
17056457739
17056467321
17056473852
17056484167
17056490331
17056500768
17056506506
17056515844
17056520483
17056530675
17056539709
17056548925
17056554113
17056562963
17056570348
17056579442
17056586461
17056595556
17056600316
17056609594
17056616918
17056625341
17056632421
17056641454
17056648473
17056657567
17056663366
17056672643
17056680394
17056690404
17056697728
17056704442
17056710851
17056719213
17056727574
17056735326
17056744237
17056751317
17056759129
17056764928
17056774327
17056779210
17056789464
17056797582
17056805577
17056813573
17056821263
17056829076
17056835667
17056843236
17056850987
17056861180
17056868504
17056875645
17056883946
17056891331
17056899266
17056906041
17056913975
17056920750
17056929051
17056935765
17056944310
17056952305
17056959935
17056966648
17056975132
17056984043
17056990635
17057000157
17057008396
17057014927
17057022618
17057031224
17057035862
17057045811
17057053501
17057060642
17057067967
17057078892
17057086460
17057095310
17057100498
17057109409
17057116734
17057125950
17057133884
17057142796
17057149876
17057157688
17057164219
17057171787
17057180515
17057188206
17057194858
17057204197
17057209995
17057219700
17057225925
17057234043
17057240574
17057250400
17057259433
17057268039
17057276950
17057284763
17057293979
17057301303
17057309970
17057315586
17057325534
17057330539
17057342136
17057348117
17057358005
17057362888
17057372714
17057379489
17057390109
17057399265
17057405856
17057413852
17057420871
17057427463
17057436923
17057443820
17057452060
17057460788
17057470676
17057477634
17057486056
17057493075
17057501498
17057510409
17057518527
17057525668
17057535128
17057541903
17057547946
17057557162
17057563876
17057570895
17057582431
17057589144
17057597079
17057605136
17057612765
17057618807
17057628024
17057634432
17057643099
17057649508
17057657809
17057666110
17057674349
17057680636
17057687472
17057696139
17057702364
17057711398
17057719576
17057728304
17057735689
17057744356
17057751681
17057758211
17057767489
17057776217
17057783236
17057789889
17057794832
17057800265
17057805697
17057810579
17057816500
17057821261
17057827669
17057835604
17057839937
17057846956
17057853792
17057858858
17057865816
17057870638
17057877779
17057883394
17057890230
17057895479
17057901094
17057905977
17057911592
17057916475
17057923128
17057928438
17057933870
17057940767
17057944979
17057948274
17057957735
17057962618
17057969881
17057976534
17057982149
17057988680
17057994722
17057998811
17058007051
17058016267
17058021089
17058027498
17058035677
17058039461
17058045320
17058048311
17058056489
17058063570
17058068147
17058074312
17058079194
17058085237
17058090791
17058094148
17058101411
17058105012
17058112520
17058115754
17058122896
17058128267
17058132417
17058136934
17058142793
17058150239
17058154939
17058159883
17058166230
17058171724
17058177583
17058182099
17058188508
17058193696
17058201203
17058206391
17058210725
17058215425
17058221345
17058226411
17058232026
17058239228
17058244050
17058248689
17058254792
17058259797
17058265962
17058271211
17058277619
17058283601
17058289887
17058294526
17058299897
17058304108
17058309968
17058315949
17058321320
17058328217
17058333466
17058337983
17058345246
17058350190
17058356965
17058363557
17058368683
17058375092
17058380219
17058386689
17058388764
17058398224
17058402680
17058409333
17058413056
17058420990
17058425141
17058434052
17058437836
17058443879
17058448945
17058455231
17058462128
17058467865
17058474213
17058480378
17058485443
17058490082
17058496002
17058501129
17058507782
17058511994
17058520478
17058525971
17058532501
17058538239
17058544647
17058550263
17058556122
17058564606
17058574677
17058576752
17058589508
17058596710
17058602936
17058611053
17058616852
17058624359
17058629913
17058636505
17058641754
17058646210
17058651398
17058658356
17058663055
17058668548
17058673981
17058679901
17058685699
17058690521
17058695221
17058700897
17058707367
17058713043
17058719635
17058725921
17058732208
17058737335
17058741363
17058747467
17058753631
17058759002
17058764251
17058770843
17058776825
17058781890
17058785980
17058791778
17058797271
17058804534
17058810272
17058816863
17058821502
17058828582
17058832977
17058838653
17058844573
17058849151
17058856231
17058862396
17058868499
17058873382
17058880523
17058883941
17058890472
17058895904
17058901702
17058909942
17058915557
17058920989
17058926177
17058932525
17058938811
17058943572
17058949126
17058956695
17058964690
17058971038
17058977935
17058986663
17058994292
17059000823
17059009368
17059016509
17059021514
17059031096
17059039092
17059045928
17059055327
17059065520
17059074492
17059084197
17059093840
17059100920
17059108306
17059118132
17059123625
17059133940
17059141570
17059149931
17059157805
17059166350
17059173369
17059181914
17059188872
17059196257
17059203459
17059212309
17059219817
17059229765
17059237456
17059246855
17059254668
17059261626
17059268889
17059277922
17059285368
17059295256
17059302275
17059311796
17059321440
17059324370
17059337492
17059343657
17059353056
17059358427
17059368559
17059376554
17059385405
17059392729
17059402250
17059410063
17059417936
17059425077
17059435453
17059442655
17059452726
17059462370
17059470060
17059479398
17059486173
17059495878
17059504728
17059511930
17059519315
17059529630
17059537076
17059544828
17059551481
17059561918
17059569425
17059577543
17059584684
17059594266
17059600980
17059609708
17059616849
17059626615
17059635526
17059641568
17059649320
17059660245
17059668119
17059679471
17059691678
17059703092
17059714810
17059726224
17059735929
17059747342
17059756314
17059767301
17059780606
17059793423
17059802579
17059811490
17059820157
17059830044
17059839566
17059849698
17059860074
17059871182
17059878750
17059886624
17059896695
17059905362
17059916592
17059927212
17059936123
17059946072
17059956570
17059966153
17059976406
17059987576
17059997158
17060007168
17060017178
17060027676
17060037441
17060046597
17060057888
17060067043
17060080837
17060087185
17060101040
17060107449
17060120815
17060131313
17060142177
17060150783
17060161404
17060172329
17060184170
17060195705
17060205288
17060215786
17060228847
17060240200
17060247219
17060262233
17060268642
17060282497
17060294155
17060305934
17060319240
17060329494
17060340663
17060346828
17060361354
17060374843
17060382961
17060396144
17060408168
17060417384
17060426051
17060439296
17060445582
17060458217
17060467738
17060480617
17060492213
17060500270
17060512050
17060520228
17060533168
17060541468
17060553187
17060565455
17060575343
17060584376
17060595362
17060603968
17060616236
17060623438
17060630580
17060637538
17060647730
17060656153
17060663111
17060673792
17060682703
17060689600
17060697047
17060704859
17060712061
17060720789
17060728175
17060736903
17060745447
17060753138
17060760828
17060768336
17060775782
17060783167
17060791712
17060799830
17060807886
17060815455
17060823572
17060832300
17060840662
17060849817
17060853235
17060863916
17060871546
17060881494
17060889185
17060897241
17060902918
17060912500
17060921655
17060930078
17060937158
17060945459
17060954492
17060960535
17060970178
17060976282
17060985742
17060991846
17061001550
17061010950
17061018884
17061025842
17061035547
17061042810
17061050622
17061060876
17061067956
17061074853
17061084863
17061092614
17061100854
17061108606
17061117334
17061125146
17061133752
17061142724
17061151513
17061159387
17061167932
17061175927
17061184228
17061192407
17061200891
17061208581
17061212426
17061217431
17061221398
17061227441
17061230248
17061237573
17061242883
17061248071
17061253076
17061257348
17061263146
17061267602
17061274682
17061279870
17061284692
17061288659
17061293908
17061299218
17061304406
17061308190
17061314965
17061319482
17061324364
17061328637
17061333825
17061338708
17061342492
17061348290
17061353844
17061356286
17061363061
17061367943
17061372216
17061376366
17061381554
17061387414
17061391747
17061396996
17061400475
17061405602
17061410912
17061417687
17061422509
17061427636
17061431054
17061436181
17061440697
17061444725
17061451439
17061457543
17061463097
17061468163
17061473595
17061478417
17061483788
17061489098
17061495140
17061500756
17061505272
17061510765
17061513634
17061520409
17061525597
17061532066
17061538109
17061542137
17061548241
17061552940
17061558617
17061563194
17061569908
17061577232
17061584068
17061589317
17061596458
17061600975
17061608604
17061612999
17061620384
17061626427
17061630821
17061636192
17061640465
17061645775
17061651085
17061656578
17061662132
17061666282
17061670311
17061675804
17061680015
17061686180
17061691002
17061695396
17061700157
17061706566
17061712242
17061717247
17061720970
17061727317
17061732566
17061738487
17061745079
17061752220
17061757835
17061763511
17061768638
17061774192
17061779197
17061783958
17061790306
17061795005
17061801658
17061807517
17061812278
17061817527
17061824363
17061831504
17061839561
17061847129
17061854026
17061859153
17061870322
17061875755
17061885764
17061891013
17061901023
17061906760
17061916770
17061923240
17061930381
17061936851
17061944907
17061952048
17061959861
17061967917
17061974082
17061982444
17061987998
17061995994
17062004050
17062010581
17062018760
17062027182
17062036338
17062042624
17062050681
17062057151
17062065573
17062071494
17062079734
17062086203
17062091086
17062101401
17062109458
17062115927
17062123374
17062131003
17062136130
17062144492
17062151633
17062159934
17062167441
17062176901
17062184287
17062191611
17062198080
17062206808
17062215964
17062223532
17062230917
17062240561
17062247397
17062254904
17062262289
17062267416
17062280722
17062285849
17062296225
17062301962
17062312765
17062318258
17062326986
17062334433
17062343344
17062351156
17062359091
17062366110
17062375326
17062382406
17062390341
17062399191
17062405783
17062415060
17062421407
17062429830
17062435018
17062446615
17062451803
17062461080
17062468649
17062475240
17062482198
17062491293
17062498251
17062507467
17062513998
17062522481
17062529500
17062535787
17062546773
17062553060
17062563253
17062569845
17062576803
17062584249
17062592305
17062599630
17062607625
17062615011
17062623006
17062630025
17062639425
17062645833
17062654988
17062662130
17062669576
17062678304
17062684346
17062694051
17062700948
17062708516
17062716878
17062724568
17062731709
17062740437
17062748677
17062755391
17062764912
17062771077
17062777852
17062787312
17062794148
17062800313
17062810261
17062816792
17062825581
17062834065
17062841450
17062849751
17062857686
17062863057
17062873372
17062880513
17062887837
17062894795
17062904683
17062911702
17062919880
17062926350
17062932576
17062943379
17062950886
17062959553
17062965596
17062972370
17062980183
17062988972
17062996113
17063002766
17063014118
17063021443
17063027912
17063035298
17063044209
17063052143
17063060871
17063068012
17063075275
17063084064
17063090839
17063099689
17063107258
17063116413
17063124042
17063131183
17063140705
17063146381
17063155475
17063165363
17063171711
17063178425
17063187092
17063193927
17063203205
17063211933
17063219318
17063228473
17063234943
17063239704
17063244098
17063251422
17063256671
17063262958
17063269306
17063274189
17063280353
17063284625
17063290424
17063296161
17063301715
17063307269
17063314227
17063319660
17063324237
17063328632
17063334430
17063340411
17063346210
17063353412
17063359760
17063364459
17063370380
17063375018
17063380328
17063384723
17063391315
17063396991
17063401935
17063408466
17063412555
17063418964
17063423602
17063430011
17063435260
17063442706
17063448199
17063454608
17063460772
17063466998
17063473102
17063480060
17063487201
17063493304
17063498309
17063503802
17063508014
17063513568
17063518573
17063524920
17063532183
17063537616
17063542926
17063549090
17063554705
17063559161
17063564959
17063571002
17063577838
17063583087
17063587298
17063592059
17063598590
17063603350
17063611224
17063619280
17063623431
17063629778
17063634234
17063640399
17063646075
17063650652
17063656756
17063663409
17063668658
17063675311
17063681353
17063687823
17063692461
17063699358
17063707171
17063714556
17063720721
17063725603
17063732683
17063740923
17063747454
17063751116
17063757281
17063762224
17063769365
17063772661
17063779192
17063784258
17063791582
17063797197
17063802202
17063808855
17063816546
17063820269
17063826311
17063833513
17063839373
17063844255
17063849504
17063856707
17063862444
17063866777
17063873918
17063878618
17063885698
17063890459
17063896868
17063902056
17063908769
17063915178
17063920244
17063926775
17063931291
17063937944
17063941545
17063947832
17063956072
17063961443
17063966570
17063971941
17063978349
17063984087
17063988664
17063995195
17064002092
17064008012
17064012773
17064019182
17064025529
17064030778
17064035356
17064042131
17064047685
17064054033
17064060380
17064064653
17064071489
17064075395
17064082658
17064088395
17064094255
17064100724
17064106706
17064112565
17064117631
17064123063
17064129960
17064134843
17064141008
17064149552
17064155778
17064161943
17064170121
17064175798
17064181230
17064186051
17064193192
17064199479
17064206376
17064210221
17064218583
17064222856
17064231217
17064237687
17064241837
17064248673
17064255936
17064262528
17064267289
17064273087
17064279557
17064283585
17064293534
17064298173
17064307145
17064311356
17064319535
17064326005
17064332596
17064338029
17064345597
17064352006
17064359574
17064364213
17064369889
17064374466
17064379960
17064384537
17064390763
17064397171
17064403946
17064407731
17064415482
17064424027
17064430741
17064436905
17064445084
17064451859
17064459549
17064465042
17064473038
17064481644
17064487442
17064494766
17064501236
17064509171
17064516495
17064524674
17064531815
17064539810
17064545975
17064553970
17064561539
17064567825
17064576492
17064584427
17064590469
17064598465
17064606460
17064612015
17064619461
17064627945
17064636795
17064643204
17064652359
17064658706
17064668350
17064677444
17064684280
17064690323
17064701309
17064708511
17064716812
17064723343
17064731765
17064738784
17064747695
17064755386
17064762832
17064769485
17064778823
17064786514
17064793960
17064801772
17064810684
17064818191
17064826736
17064833022
17064842666
17064848708
17064858718
17064868850
17064877456
17064885513
17064894057
17064901443
17064910476
17064919326
17064929030
17064936538
17064943740
17064953689
17064960341
17064970962
17064979445
17064986220
17064992812
17065002883
17065010146
17065019728
17065028395
17065036025
17065044509
17065054457
17065061415
17065066847
17065079116
17065085524
17065095351
17065102736
17065112074
17065117384
17065126357
17065134779
17065142409
17065149916
17065160048
17065167250
17065173781
17065182997
17065189406
17065198073
17065205031
17065214125
17065219984
17065230971
17065236220
17065245436
17065251356
17065261610
17065268690
17065277601
17065284681
17065292250
17065299452
17065308729
17065315138
17065322462
17065331922
17065339613
17065346266
17065355238
17065362684
17065367628
17065378858
17065384474
17065393324
17065400892
17065409986
17065419264
17065427931
17065434278
17065441847
17065451124
17065458204
17065466566
17065473341
17065480848
17065489759
17065497205
17065505323
17065513624
17065521619
17065528028
17065534315
17065544385
17065552015
17065560499
17065568067
17065570997
17065583143
17065589124
17065599012
17065607007
17065613599
17065622083
17065631299
17065638318
17065645032
17065652234
17065662183
17065668714
17065677320
17065685620
17065693677
17065703076
17065710156
17065718701
17065725049
17065732617
17065740308
17065749219
17065757520
17065766370
17065773816
17065781384
17065788220
17065797192
17065803723
17065813428
17065819958
17065825635
17065831799
17065836682
17065842846
17065847912
17065853772
17065858838
17065867627
17065874096
17065880627
17065889355
17065893750
17065901013
17065906994
17065915234
17065920727
17065927075
17065932507
17065938855
17065943432
17065949414
17065955578
17065957348
17065967114
17065972607
17065976818
17065982678
17065988781
17065994030
17066000805
17066007702
17066013256
17066020153
17066026074
17066032299
17066037426
17066043774
17066047985
17066051281
17066059460
17066065380
17066071362
17066076549
17066082897
17066088756
17066094921
17066100780
17066105846
17066114086
17066119030
17066126232
17066130749
17066138866
17066146435
17066152538
17066159740
17066165661
17066170543
17066176586
17066181041
17066187755
17066193126
17066199596
17066204845
17066208324
17066215953
17066219799
17066228344
17066232311
17066240734
17066246105
17066251232
17066257701
17066265209
17066270214
17066277416
17066281871
17066288097
17066293956
17066300609
17066306102
17066312694
17066319103
17066326000
17066330455
17066335765
17066342845
17066349254
17066354137
17066359630
17066366710
17066372874
17066383983
17066393077
17066401073
17066406138
17066413585
17066422374
17066428660
17066436168
17066441051
17066448863
17066453319
17066459788
17066465770
17066471934
17066477488
17066484202
17066494517
17066499278
17066505748
17066514170
17066520762
17066526866
17066534861
17066540904
17066546031
17066552745
17066559336
17066563059
17066568675
17066572154
17066578318
17066583018
17066590220
17066595286
17066600596
17066603282
17066610301
17066617075
17066620799
17066626658
17066630808
17066636607
17066641917
17066646677
17066652476
17066657359
17066661936
17066667796
17066672861
17066677866
17066682871
17066687083
17066694346
17066699290
17066705088
17066710276
17066716501
17066722483
17066728831
17066733469
17066740305
17066744944
17066751597
17066756357
17066763437
17066767893
17066773630
17066778330
17066784861
17066791086
17066797434
17066802683
17066808359
17066813974
17066819712
17066825754
17066831003
17066838022
17066844187
17066849680
17066855295
17066861826
17066869638
17066874643
17066882944
17066888132
17066893442
17066898569
17066905161
17066911264
17066916757
17066922006
17066928110
17066933481
17066939645
17066945627
17066951791
17066957651
17066963754
17066969003
17066976572
17066985178
17066995676
17067002389
17067009469
17067017526
17067024545
17067035653
17067044992
17067052743
17067060617
17067069345
17067076791
17067084848
17067094186
17067101754
17067112741
17067120797
17067128732
17067138009
17067145333
17067154733
17067161508
17067170602
17067178536
17067188180
17067195443
17067203622
17067211434
17067221749
17067227059
17067236825
17067244332
17067254281
17067259286
17067268746
17067273263
17067285592
17067292428
17067302865
17067311227
17067320260
17067328072
17067336495
17067346383
17067354683
17067361947
17067372200
17067377633
17067387154
17067394478
17067403878
17067411385
17067419869
17067427498
17067435555
17067446541
17067454109
17067461617
17067472420
17067479561
17067488289
17067498726
17067508919
17067514168
17067522652
17067528755
17067540535
17067547798
17067554634
17067563728
17067571114
17067580696
17067587593
17067594063
17067603767
17067610603
17067619942
17067629646
17067636421
17067646614
17067655098
17067662422
17067670906
17067679878
17067687568
17067693794
17067704414
17067711860
17067721138
17067728096
17067738777
17067746528
17067754707
17067761115
17067769294
17067779975
17067787605
17067793891
17067802497
17067811714
17067819282
17067828681
17067836189
17067843452
17067852241
17067861518
17067869758
17067876472
17067885139
17067892402
17067903449
17067912177
17067922187
17067929450
17067938605
17067947944
17067957892
17067964789
17067975592
17067983100
17067992560
17067999640
17068008673
17068015692
17068025702
17068033332
17068042487
17068050543
17068059271
17068066413
17068075995
17068083685
17068092719
17068100409
17068108222
17068118720
17068127264
17068134467
17068142340
17068151373
17068159979
17068166754
17068176276
17068183600
17068191534
17068198859
17068207892
17068214789
17068223273
17068233160
17068240912
17068251471
17068258856
17068265936
17068273993
17068283392
17068289557
17068299200
17068307745
17068315252
17068323797
17068333258
17068342169
17068348822
17068358953
17068365301
17068374944
17068384710
17068391485
17068400640
17068408270
17068417242
17068422430
17068427435
17068438177
17068444646
17068451665
17068456243
17068463323
17068468023
17068475225
17068479803
17068489690
17068494878
17068501226
17068505376
17068512395
17068517949
17068523504
17068529729
17068534673
17068542974
17068547918
17068553289
17068557988
17068564763
17068569890
17068575200
17068580510
17068585637
17068590215
17068596685
17068601506
17068607305
17068611943
17068616399
17068621465
17068628240
17068634404
17068644536
17068649968
17068655400
17068661809
17068667851
17068673161
17068683476
17068689641
17068694158
17068700078
17068703923
17068709233
17068715154
17068720403
17068726201
17068732915
17068738835
17068744695
17068750188
17068755437
17068760686
17068767277
17068771977
17068779179
17068783818
17068789738
17068797124
17068801884
17068808110
17068811955
17068820012
17068824162
17068831608
17068837102
17068844059
17068850224
17068856572
17068861882
17068868107
17068874638
17068880864
17068885807
17068891179
17068898686
17068903447
17068911015
17068915287
17068923283
17068926945
17068934880
17068939091
17068946965
17068953190
17068959110
17068965458
17068972843
17068977909
17068983524
17068988529
17068996220
17069001957
17069008915
17069014835
17069022343
17069027226
17069032780
17069039799
17069044621
17069051090
17069056705
17069064030
17069069401
17069075626
17069080936
17069085636
17069091862
17069098026
17069106937
17069111271
17069118534
17069125126
17069132145
17069139286
17069146488
17069152469
17069159366
17069166996
17069172733
17069178959
17069185428
17069190982
17069196842
17069203189
17069209171
17069216190
17069223209
17069228153
17069232608
17069242557
17069247684
17069257999
17069262271
17069272586
17069278934
17069288394
17069293521
17069301761
17069309085
17069314578
17069321048
17069326358
17069330631
17069335330
17069342654
17069347781
17069353458
17069359134
17069366458
17069370242
17069377139
17069382083
17069388858
17069393741
17069399844
17069404544
17069412173
17069417727
17069421817
17069428897
17069434024
17069439822
17069446231
17069452273
17069458682
17069464358
17069471438
17069477908
17069484378
17069489505
17069494815
17069502871
17069507571
17069512149
17069519046
17069524478
17069530947
17069536868
17069543399
17069549258
17069557253
17069561099
17069568240
17069574099
17069580569
17069586550
17069594424
17069601809
17069607851
17069613772
17069619753
17069624880
17069633303
17069640627
17069649111
17069656496
17069680788
17069688906
17069696413
17069705507
17069713503
17069723513
17069730654
17069738894
17069746889
17069754824
17069761538
17069770144
17069776125
17069787111
17069792849
17069803896
17069810915
17069819460
17069831728
17069840822
17069848696
17069858400
17069866579
17069875734
17069882448
17069890505
17069898500
17069904787
17069913759
17069921205
17069930177
17069936952
17069946168
17069952882
17069958620
17069969911
17069977540
17069986268
17069995363
17070001954
17070011476
17070020692
17070027345
17070035341
17070041871
17070051149
17070060121
17070069093
17070077760
17070084230
17070089967
17070100343
17070102906
17070117799
17070124696
17070133424
17070142396
17070149110
17070153932
17070164063
17070172975
17070182374
17070190980
17070197572
17070206117
17070215150
17070221436
17070230408
17070239747
17070247315
17070253297
17070263795
17070271912
17070280396
17070288880
17070295350
17070300049
17070312073
17070318726
17070329224
17070335450
17070344544
17070349610
17070359864
17070367737
17070376709
17070385254
17070393555
17070399353
17070406922
17070414246
17070421814
17070428833
17070439575
17070445130
17070454102
17070461121
17070471985
17070480835
17070489929
17070496704
17070507507
17070513672
17070523193
17070530701
17070541138
17070548462
17070557068
17070564758
17070573547
17070581543
17070591431
17070598511
17070605652
17070615417
17070623108
17070630859
17070641662
17070649902
17070658935
17070666320
17070674804
17070682495
17070692810
17070701538
17070709594
17070717102
17070726135
17070733276
17070744201
17070748901
17070760314
17070765502
17070776550
17070784911
17070795959
17070804626
17070812194
17070819335
17070826293
17070836059
17070843505
17070854186
17070860900
17070867553
17070876403
17070885802
17070893859
17070901488
17070911376
17070919433
17070929015
17070936767
17070944335
17070952269
17070960997
17070968871
17070977416
17070988402
17070996825
17071004271
17071013304
17071020384
17071030272
17071037474
17071044921
17071054564
17071061278
17071066771
17071073546
17071080016
17071084776
17071090880
17071098143
17071103758
17071108336
17071115843
17071122313
17071128355
17071132872
17071140196
17071146666
17071152953
17071159056
17071164122
17071169981
17071177550
17071183348
17071190611
17071196837
17071201048
17071207640
17071215391
17071220152
17071226439
17071234373
17071239683
17071244749
17071251280
17071255919
17071262266
17071268797
17071276182
17071282408
17071289488
17071295530
17071301634
17071307493
17071313291
17071319456
17071325376
17071331724
17071336119
17071342344
17071348875
17071355711
17071361021
17071367552
17071374143
17071381223
17071386167
17071395200
17071400755
17071407957
17071414060
17071421079
17071428648
17071434202
17071441221
17071448301
17071455381
17071461118
17071469602
17071477109
17071482847
17071490476
17071497556
17071503721
17071510007
17071516050
17071521177
17071528745
17071534910
17071540769
17071546689
17071552976
17071559934
17071565183
17071571958
17071579343
17071584470
17071590268
17071596189
17071600644
17071608335
17071614743
17071619443
17071625791
17071630857
17071636960
17071643247
17071649411
17071653745
17071660764
17071665158
17071673642
17071680356
17071685361
17071691647
17071697568
17071704404
17071709470
17071716000
17071722714
17071729367
17071736813
17071743100
17071747922
17071754025
17071760617
17071766476
17071771298
17071780270
17071785580
17071790646
17071796872
17071802365
17071808652
17071813656
17071819821
17071825314
17071832028
17071838620
17071844540
17071851986
17071857480
17071873104
17071878415
17071886471
17071891537
17071897457
17071903378
17071907223
17071915829
17071919552
17071926510
17071932736
17071939938
17071945370
17071950802
17071956600
17071963070
17071968014
17071974972
17071980770
17071986813
17071993832
17071999630
17072006039
17072008297
17072016842
17072020504
17072030148
17072035580
17072040768
17072048031
17072053341
17072060421
17072066585
17072073665
17072082332
17072091121
17072099239
17072104671
17072111202
17072115352
17072122555
17072127132
17072136776
17072140743
17072148739
17072154293
17072160579
17072166500
17072171932
17072176876
17072182003
17072188350
17072192440
17072199214
17072205562
17072210933
17072216976
17072221614
17072227657
17072233882
17072239376
17072245662
17072250911
17072255184
17072261775
17072267391
17072273311
17072281246
17072286311
17072294551
17072303706
17072310542
17072316707
17072328120
17072336604
17072345821
17072354121
17072361079
17072369075
17072375667
17072381648
17072393672
17072396296
17072409541
17072418818
17072427913
17072433955
17072444087
17072451289
17072458308
17072468440
17072476558
17072483882
17072493281
17072500544
17072507807
17072515193
17072523738
17072531184
17072538752
17072546076
17072553889
17072560969
17072573237
17072580622
17072588557
17072597102
17072603754
17072611872
17072618586
17072627009
17072632502
17072639704
17072646784
17072655085
17072660944
17072668391
17072674677
17072683100
17072689142
17072698115
17072705256
17072714289
17072722712
17072731379
17072736872
17072745050
17072752985
17072762568
17072771479
17072781366
17072790216
17072800775
17072809809
17072815912
17072821710
17072833124
17072842768
17072851007
17072860956
17072868036
17072877191
17072884699
17072892999
17072901544
17072909052
17072914484
17072923456
17072930414
17072937677
17072946161
17072955316
17072961420
17072970819
17072977960
17072984918
17072991876
17072999261
17073006524
17073016107
17073024896
17073033807
17073041986
17073049798
17073057122
17073064080
17073070794
17073080926
17073088006
17073095513
17073102655
17073111688
17073119195
17073125787
17073132379
17073140862
17073148553
17073157342
17073164056
17073172234
17073180596
17073186578
17073194268
17073197076
17073210137
17073218560
17073225640
17073233453
17073242730
17073249688
17073256951
17073266167
17073273430
17073280877
17073289361
17073295220
17073303704
17073308831
17073318657
17073326531
17073333611
17073338799
17073349968
17073358391
17073365044
17073372429
17073380181
17073387261
17073394341
17073402642
17073411003
17073418694
17073426384
17073433464
17073440911
17073450005
17073459038
17073467583
17073476433
17073486137
17073493340
17073500603
17073508232
17073515190
17073523674
17073531914
17073540581
17073547417
17073553764
17073561455
17073570183
17073578972
17073587578
17073597770
17073606621
17073614372
17073624321
17073632866
17073640068
17073649528
17073656181
17073665092
17073671928
17073677360
17073684074
17073689811
17073696891
17073703666
17073711479
17073715873
17073725151
17073731803
17073736503
17073743705
17073749626
17073756156
17073761527
17073769340
17073774711
17073780082
17073785331
17073789909
17073795036
17073802299
17073806083
17073814262
17073818046
17073823905
17073827262
17073834281
17073837882
17073846366
17073852470
17073857230
17073863944
17073869865
17073874442
17073880485
17073885612
17073893424
17073899772
17073904044
17073909781
17073915885
17073921195
17073925834
17073932181
17073937247
17073943900
17073948233
17073954459
17073958854
17073964774
17073969413
17073973929
17073978995
17073986136
17073991446
17073995902
17074001212
17074007620
17074013175
17074019583
17074024710
17074031973
17074037406
17074041739
17074047293
17074053031
17074060599
17074067496
17074074210
17074079154
17074085806
17074090750
17074097525
17074102347
17074106375
17074116263
17074123587
17074128287
17074133169
17074139090
17074144644
17074150748
17074152823
17074162100
17074166250
17074176138
17074182120
17074188162
17074192923
17074200857
17074204947
17074212271
17074217825
17074226065
17074230032
17074238272
17074243704
17074249014
17074254141
17074260305
17074266653
17074271414
17074276602
17074283560
17074288259
17074293814
17074298452
17074304861
17074309683
17074315908
17074320547
17074326589
17074333120
17074337698
17074342886
17074348684
17074357168
17074363271
17074367605
17074374441
17074380850
17074385854
17074390310
17074397146
17074405752
17074412344
17074418874
17074423940
17074429678
17074435354
17074440359
17074446828
17074453481
17074460012
17074464712
17074470449
17074475332
17074480703
17074487172
17074492238
17074497915
17074505605
17074511648
17074516652
17074524831
17074529348
17074536428
17074541616
17074548940
17074554433
17074562001
17074566579
17074573476
17074578786
17074585561
17074592092
17074596669
17074604604
17074608998
17074615773
17074619191
17074627614
17074630971
17074638539
17074643788
17074651723
17074658437
17074663808
17074668691
17074674306
17074679311
17074686452
17074691701
17074697987
17074705312
17074710316
17074714833
17074721364
17074728383
17074732960
17074738881
17074744069
17074751088
17074756337
17074763234
17074767628
17074775502
17074780324
17074787831
17074794850
17074800892
17074808583
17074814564
17074821156
17074827565
17074833607
17074841053
17074846852
17074855519
17074862904
17074870594
17074877247
17074886463
17074892628
17074900135
17074907215
17074915028
17074924854
17074930470
17074936939
17074945606
17074951771
17074959461
17074966297
17074973988
17074983753
17074991505
17074998646
17075007130
17075013233
17075022266
17075028553
17075036793
17075043568
17075051868
17075059254
17075067188
17075073475
17075082325
17075088611
17075096973
17075105518
17075113208
17075119312
17075126880
17075132679
17075140491
17075147937
17075155140
17075163501
17075171680
17075178089
17075183277
17075192188
17075200122
17075205738
17075213611
17075222583
17075231555
17075237720
17075243396
17075252979
17075258289
17075266834
17075271289
17075282886
17075291064
17075297717
17075306384
17075313220
17075320789
17075327869
17075334582
17075343371
17075351367
17075361987
17075368884
17075375537
17075384448
17075390552
17075399951
17075406421
17075417712
17075425586
17075432361
17075441272
17075449267
17075455981
17075464404
17075470813
17075481494
17075490161
17075496447
17075501086
17075512072
17075516955
17075528002
17075535815
17075542773
17075551257
17075559741
17075567065
17075577319
17075584399
17075593249
17075601244
17075607897
17075618517
17075625902
17075632006
17075642138
17075649340
17075657091
17075665026
17075670885
17075680712
17075689623
17075698351
17075704699
17075713366
17075718248
17075727770
17075735155
17075743151
17075750597
17075759691
17075767504
17075775804
17075783312
17075792040
17075798876
17075807176
17075814806
17075822496
17075831835
17075840013
17075846788
17075854418
17075862474
17075865160
17075878648
17075887254
17075894151
17075901964
17075910020
17075915880
17075924791
17075932237
17075942308
17075950792
17075957445
17075965074
17075973619
17075982042
17075988206
17075994981
17076002488
17076011461
17076021837
17076029649
17076038743
17076045884
17076052903
17076061509
17076068956
17076076402
17076085191
17076094651
17076103135
17076109483
17076117295
17076125596
17076132920
17076141404
17076149278
17076157761
17076165574
17076174363
17076180772
17076188950
17076193772
17076203049
17076213731
17076220811
17076227769
17076237412
17076245286
17076249924
17076254685
17076263047
17076268540
17076276230
17076281785
17076287583
17076289658
17076298508
17076304795
17076311509
17076318284
17076322373
17076328354
17076334092
17076338486
17076344040
17076350083
17076358445
17076364975
17076370346
17076375962
17076381272
17076389694
17076393784
17076400437
17076408493
17076413010
17076418503
17076423020
17076428391
17076433945
17076439072
17076445480
17076450424
17076456711
17076461289
17076467392
17076472275
17076478439
17076483444
17076488266
17076495773
17076501694
17076505783
17076512863
17076518112
17076523605
17076530197
17076535690
17076542648
17076548324
17076553634
17076558456
17076564316
17076568832
17076574631
17076579757
17076587814
17076592514
17076599167
17076605148
17076609726
17076615524
17076622116
17076626510
17076633957
17076640548
17076645980
17076652328
17076658065
17076663864
17076667892
17076673690
17076678085
17076685348
17076690231
17076696395
17076701644
17076708480
17076713485
17076718795
17076726974
17076733566
17076738693
17076744735
17076750167
17076756515
17076762557
17076769698
17076775680
17076782333
17076788741
17076795455
17076799056
17076806075
17076811446
17076816207
17076823775
17076832137
17076835921
17076845016
17076851485
17076856124
17076861983
17076868514
17076872909
17076881453
17076886641
17076892867
17076899276
17076903731
17076908004
17076915755
17076922225
17076928023
17076935714
17076943465
17076950484
17076956038
17076964217
17076971480
17076977889
17076985701
17076993636
17076999434
17077003523
17077011336
17077016951
17077023421
17077028304
17077034163
17077039290
17077045332
17077050642
17077056258
17077062117
17077067854
17077074202
17077080061
17077085127
17077089705
17077096114
17077102400
17077108198
17077113997
17077120039
17077126326
17077132612
17077137678
17077143233
17077149031
17077154097
17077161360
17077168318
17077174299
17077178694
17077185164
17077189863
17077196882
17077201338
17077207747
17077214094
17077219954
17077225630
17077229414
17077236738
17077242537
17077248762
17077255537
17077261091
17077270491
17077278303
17077284346
17077289228
17077294660
17077299970
17077305097
17077311018
17077319441
17077325849
17077330671
17077336530
17077341718
17077348615
17077354902
17077357282
17077365827
17077372236
17077377851
17077384748
17077389631
17077395368
17077400556
17077406232
17077413740
17077420026
17077426740
17077432050
17077439191
17077444868
17077452863
17077457563
17077463727
17077469709
17077477704
17077484418
17077489545
17077497785
17077502179
17077509931
17077515180
17077520307
17077527082
17077533063
17077537885
17077544294
17077550580
17077555402
17077562726
17077569196
17077576520
17077581281
17077592023
17077597089
17077603742
17077610517
17077616254
17077622357
17077629010
17077635175
17077638837
17077645978
17077649945
17077656781
17077660626
17077666608
17077671429
17077677106
17077680585
17077687421
17077693524
17077698468
17077704877
17077711163
17077716107
17077721722
17077727032
17077732709
17077737408
17077741559
17077747784
17077753155
17077760174
17077764996
17077771954
17077776776
17077782879
17077788067
17077793988
17077801617
17077805401
17077811566
17077817120
17077823590
17077829266
17077836041
17077842205
17077850384
17077855511
17077862286
17077868450
17077874676
17077879681
17077884625
17077890911
17077897259
17077902020
17077908123
17077913311
17077920208
17077925396
17077932171
17077936504
17077944378
17077948284
17077954571
17077960430
17077967815
17077973248
17077977581
17077984844
17077990887
17077996075
17078002361
17078007305
17078012066
17078018902
17078022930
17078030865
17078035076
17078044231
17078052410
17078057232
17078062481
17078068828
17078074444
17078081829
17078087810
17078094768
17078101238
17078108501
17078114116
17078117778
17078126384
17078130596
17078138286
17078143779
17078149700
17078155803
17078163494
17078171489
17078178630
17078186565
17078192913
17078198772
17078206218
17078214153
17078220867
17078227458
17078233074
17078237529
17078246257
17078249919
17078257182
17078260661
17078267619
17078274028
17078279643
17078284953
17078291118
17078295940
17078301433
17078307780
17078312968
17078319865
17078325358
17078329753
17078335185
17078339824
17078345927
17078352397
17078357158
17078361308
17078368144
17078372905
17078376872
17078384257
17078388591
17078397868
17078402324
17078410869
17078417033
17078422709
17078428202
17078433879
17078440837
17078445719
17078453227
17078458903
17078463786
17078471049
17078475749
17078481669
17078487406
17078492472
17078499552
17078504191
17078511759
17078515177
17078522502
17078526103
17078533854
17078540141
17078545207
17078550456
17078558512
17078561991
17078568400
17078573832
17078579996
17078586527
17078591105
17078597208
17078604349
17078609415
17078616251
17078621012
17078625590
17078634135
17078640360
17078646280
17078650065
17078658426
17078662516
17078669840
17078675821
17078681193
17078685343
17078693155
17078699015
17078705179
17078710428
17078716898
17078722696
17078728617
17078733255
17078738932
17078745951
17078748209
17078757059
17078762369
17078768900
17078772928
17078781656
17078785745
17078794962
17078804727
17078810098
17078819010
17078823831
17078830667
17078837930
17078844400
17078854288
17078858621
17078863199
17078869058
17078873880
17078879434
17078884622
17078893167
17078897195
17078904886
17078911050
17078916116
17078920999
17078926675
17078931924
17078937723
17078943704
17078949685
17078954141
17078960061
17078966165
17078971475
17078976419
17078983377
17078989236
17078993997
17078999368
17079005777
17079012185
17079017495
17079023233
17079027810
17079033731
17079038430
17079045327
17079050332
17079057229
17079063333
17079068215
17079073953
17079080483
17079087197
17079093484
17079098977
17079105203
17079111245
17079117715
17079122903
17079128152
17079133035
17079137429
17079145059
17079151284
17079158364
17079163186
17079169228
17079174294
17079181985
17079186257
17079192727
17079197915
17079204873
17079211404
17079216103
17079222817
17079228432
17079233315
17079240822
17079247292
17079252419
17079260232
17079265847
17079270669
17079277077
17079282692
17079286477
17079294655
17079300026
17079305886
17079312355
17079319558
17079324685
17079329079
17079334450
17079341774
17079346718
17079353066
17079358559
17079363320
17079370095
17079373818
17079381508
17079388405
17079394570
17079400490
17079408608
17079419533
17079425392
17079433083
17079441750
17079449684
17079453224
17079461952
17079467934
17079473732
17079478615
17079485023
17079491249
17079495705
17079502113
17079508034
17079512367
17079518715
17079525246
17079530861
17079537575
17079542763
17079548378
17079553200
17079557960
17079562782
17079570167
17079574074
17079580970
17079584511
17079591652
17079595924
17079603370
17079613197
17079619911
17079626869
17079633094
17079638343
17079644813
17079648780
17079656166
17079659950
17079668434
17079673011
17079678443
17079684974
17079691566
17079697303
17079702613
17079708961
17079716285
17079722877
17079728187
17079735206
17079739784
17079746497
17079751319
17079755836
17079762183
17079765968
17079773658
17079778236
17079783912
17079787147
17079793494
17079798316
17079802955
17079808814
17079815162
17079820960
17079826087
17079830665
17079836036
17079840613
17079846412
17079851172
17079855384
17079863868
17079869727
17079875037
17079882544
17079887000
17079893409
17079899085
17079905494
17079909766
17079918921
17079925147
17079933936
17079938330
17079944678
17079951392
17079957556
17079963599
17079970435
17079976538
17079981116
17079987342
17079995581
17080002478
17080007788
17080012854
17080019507
17080024207
17080030859
17080035620
17080042151
17080048804
17080057471
17080061804
17080067786
17080072424
17080078101
17080084570
17080090002
17080094397
17080099463
17080104040
17080110693
17080114233
17080120947
17080125891
17080131018
17080135962
17080141272
17080146277
17080152136
17080157568
17080164953
17080169653
17080175818
17080181311
17080186926
17080191687
17080198401
17080205053
17080210547
17080217016
17080223242
17080229284
17080235571
17080240210
17080246618
17080252417
17080258581
17080263464
17080269079
17080273962
17080277685
17080286230
17080291052
17080297399
17080300878
17080308996
17080312597
17080319738
17080323156
17080329138
17080334387
17080341894
17080345800
17080353613
17080358862
17080365514
17080371557
17080377904
17080383215
17080389379
17080395299
17080400854
17080407445
17080412755
17080418615
17080425451
17080429845
17080435766
17080440221
17080446569
17080451085
17080456762
17080465246
17080471776
17080477208
17080482518
17080487767
17080493810
17080498937
17080506078
17080513402
17080519567
17080524999
17080529393
17080534459
17080541295
17080545140
17080552526
17080558812
17080564061
17080567723
17080574925
17080581883
17080589330
17080594945
17080601171
17080610692
17080617223
17080619481
17080628514
17080633580
17080640416
17080646458
17080653050
17080658788
17080665013
17080670079
17080676549
17080681676
17080687474
17080691075
17080698643
17080702611
17080710301
17080713902
17080721959
17080727574
17080731907
17080736607
17080743748
17080749791
17080755406
17080760533
17080765599
17080772618
17080777928
17080784459
17080789647
17080795567
17080801854
17080806431
17080812718
17080819798
17080825230
17080829625
17080835545
17080842076
17080849644
17080855076
17080861180
17080866673
17080870213
17080877903
17080882969
17080889927
17080895542
17080901463
17080907078
17080913548
17080918614
17080924473
17080930882
17080936314
17080943272
17080949314
17080956394
17080961582
17080968357
17080974644
17080979954
17080986973
17080993626
17080997776
17081004307
17081010349
17081017612
17081023716
17081029697
17081035068
17081042393
17081048069
17081054661
17081060459
17081067722
17081075351
17081079502
17081087192
17081091770
17081099521
17081105320
17081111667
17081117344
17081124424
17081129428
17081136020
17081141452
17081145603
17081155796
17081163303
17081168430
17081174716
17081180026
17081186252
17081192844
17081198398
17081206149
17081213229
17081220676
17081225864
17081232150
17081237155
17081244540
17081249484
17081256259
17081262851
17081268771
17081273898
17081280795
17081287265
17081290744
17081298434
17081302280
17081310702
17081317782
17081324801
17081328464
17081334628
17081339389
17081345004
17081350497
17081357333
17081363376
17081368564
17081375033
17081379733
17081384127
17081390109
17081394931
17081403170
17081409640
17081414889
17081420321
17081425265
17081429599
17081436373
17081441806
17081448641
17081453036
17081459567
17081463900
17081470126
17081475802
17081480624
17081486483
17081492404
17081499178
17081505709
17081511080
17081517184
17081523470
17081528780
17081534823
17081539828
17081546908
17081552767
17081559298
17081565829
17081571383
17081575960
17081579562
17081587679
17081591280
17081596773
17081602389
17081608797
17081614352
17081620882
17081624972
17081632052
17081637972
17081645052
17081650423
17081656588
17081661837
17081669039
17081674105
17081680025
17081686617
17081691378
17081696932
17081703524
17081708467
17081714754
17081720491
17081725679
17081730806
17081738619
17081744844
17081753206
17081758516
17081764986
17081773531
17081776338
17081788118
17081791597
17081802583
17081808870
17081818575
17081827303
17081837679
17081850435
17081860811
17081869234
17081878633
17081891634
17081900239
17081908418
17081918733
17081922822
17081933198
17081938020
17081947786
17081952669
17081960908
17081966646
17081972566
17081978303
17081983186
17081990205
17081994905
17082000215
17082006746
17082011811
17082015901
17082023896
17082028291
17082034089
17082039826
17082046174
17082048005
17082057038
17082061311
17082067903
17082071992
17082078828
17082082673
17082090791
17082094819
17082102204
17082107392
17082114045
17082119233
17082125275
17082131318
17082136506
17082142609
17082148591
17082156831
17082165314
17082170258
17082177094
17082183991
17082189484
17082194550
17082200715
17082207001
17082212067
17082219208
17082223054
17082230012
17082236359
17082242096
17082247956
17082254731
17082260895
17082266755
17082271943
17082277314
17082282685
17082289338
17082296845
17082301972
17082308014
17082313752
17082319245
17082323090
17082331574
17082335907
17082342987
17082349884
17082356903
17082360626
17082367340
17082373139
17082378937
17082384735
17082391571
17082397186
17082403473
17082408783
17082413483
17082422272
17082426849
17082433319
17082439911
17082445709
17082452118
17082456757
17082462250
17082469574
17082476166
17082482819
17082489532
17082496429
17082504425
17082516754
17082523712
17082529266
17082535309
17082542389
17082549347
17082555267
17082564911
17082569732
17082577118
17082582122
17082587982
17082592315
17082596283
17082603973
17082609222
17082615509
17082621307
17082627410
17082632171
17082638092
17082642425
17082649261
17082655731
17082660858
17082667694
17082672332
17082675933
17082683135
17082687042
17082695342
17082699249
17082706756
17082713165
17082719268
17082725127
17082731231
17082736541
17082742889
17082748382
17082753509
17082757903
17082764678
17082770049
17082775237
17082779937
17082786712
17082791839
17082798431
17082805389
17082810699
17082815520
17082822417
17082828155
17082832061
17082840239
17082846282
17082852569
17082857024
17082863494
17082867461
17082875457
17082881377
17082885527
17082892669
17082900237
17082905425
17082911040
17082916106
17082922942
17082927886
17082934539
17082941130
17082947600
17082952361
17082959319
17082969756
17082974822
17082982268
17082986235
17082994170
17083001128
17083007720
17083011748
17083019255
17083024870
17083032011
17083038054
17083043730
17083049651
17083056670
17083061674
17083065520
17083074004
17083080351
17083085844
17083091826
17083098967
17083104338
17083110808
17083116057
17083123869
17083129484
17083137114
17083144072
17083150786
17083156767
17083161528
17083170805
17083174833
17083184111
17083188444
17083197721
17083201200
17083208403
17083213774
17083219328
17083226408
17083231413
17083235868
17083243132
17083247648
17083254545
17083259733
17083266203
17083272184
17083276884
17083282926
17083287504
17083294462
17083300382
17083306425
17083310148
17083317167
17083322965
17083327909
17083333524
17083340482
17083347562
17083352140
17083359769
17083368925
17083376005
17083384550
17083389677
17083396207
17083402677
17083408048
17083415433
17083420682
17083425321
17083431486
17083437650
17083444425
17083449735
17083454557
17083462796
17083467557
17083474637
17083478482
17083486905
17083493436
17083499234
17083504850
17083510648
17083519193
17083525357
17083530301
17083538236
17083543241
17083550382
17083555203
17083559842
17083568326
17083573270
17083580472
17083586575
17083592191
17083598050
17083605618
17083611783
17083616971
17083623258
17083630765
17083636197
17083643338
17083649136
17083655423
17083660245
17083667752
17083673306
17083678128
17083686673
17083691250
17083698514
17083702725
17083711270
17083715298
17083722195
17083728970
17083736355
17083742032
17083747586
17083752469
17083760403
17083765469
17083771267
17083780789
17083789151
17083795010
17083802517
17083809536
17083816372
17083821804
17083828579
17083835354
17083843960
17083848965
17083854397
17083858792
17083864773
17083870022
17083875332
17083880398
17083885769
17083890530
17083896816
17083902676
17083908230
17083913662
17083918667
17083923489
17083929409
17083935635
17083940823
17083945522
17083953091
17083957546
17083962978
17083968471
17083974880
17083981533
17083987453
17083992214
17083995998
17084004543
17084008205
17084016079
17084020962
17084028103
17084031704
17084038051
17084041530
17084049892
17084054409
17084061123
17084067287
17084073085
17084079189
17084086330
17084091640
17084097560
17084102504
17084109645
17084114467
17084121425
17084128444
17084133571
17084138332
17084145412
17084151393
17084155361
17084162929
17084168910
17084174892
17084181301
17084186977
17084192165
17084197475
17084202724
17084209865
17084214748
17084221034
17084227931
17084230067
17084238673
17084242397
17084250819
17084254604
17084261134
17084267726
17084274562
17084279811
17084284938
17084290431
17084297633
17084303065
17084310573
17084318995
17084324367
17084333339
17084339442
17084346278
17084352626
17084359950
17084366237
17084372401
17084378321
17084386134
17084392421
17084397609
17084407069
17084413234
17084422267
17084429469
17084438746
17084447657
17084453578
17084461878
17084467066
17084475001
17084481471
17084488307
17084492762
17084498499
17084504298
17084509486
17084513819
17084520655
17084525965
17084532557
17084537623
17084544398
17084550440
17084554957
17084560267
17084566004
17084571375
17084577906
17084584986
17084592066
17084598170
17084603663
17084610010
17084615565
17084623255
17084629175
17084634730
17084642420
17084647242
17084654078
17084660120
17084665186
17084672632
17084678247
17084682764
17084691736
17084696070
17084702539
17084706629
17084714258
17084719629
17084726526
17084730921
17084739038
17084744531
17084749842
17084755091
17084761926
17084766870
17084773706
17084778650
17084783167
17084792749
17084798853
17084804529
17084808496
17084816126
17084822168
17084827600
17084833765
