16946701611
16946704907
16946708203
16946711560
16946714856
16946718335
16946722180
16946726086
16946729809
16946734143
16946738110
16946742626
16946746594
16946750988
16946755749
16946760815
16946764599
16946769360
16946774121
16946779492
16946784680
16946789990
16946795361
16946799938
16946805615
16946812328
16946818005
16946825329
16946830456
16946835766
16946842052
16946849377
16946855419
16946862926
16946870495
16946875988
16946885265
16946892895
16946900158
16946907421
16946915356
16946923229
16946928783
16946936657
16946945263
16946951671
16946962108
16946969188
16946977794
16946984996
16946991954
16947000377
16947005016
16947013439
16947019176
16947024608
16947030223
16947037426
16947045116
16947050365
16947057079
16947063487
16947069530
16947076244
16947083141
16947087963
16947095836
16947101390
16947106944
16947115917
16947121166
16947127757
16947135326
16947142528
16947149486
16947156871
16947164134
16947171519
16947176707
16947185985
16947191844
16947199473
16947208385
16947215343
16947222178
16947230113
16947237132
16947243968
16947252147
16947260020
16947268016
16947273448
16947282725
16947287669
16947295482
16947301402
16947309397
16947316050
16947321299
16947329783
16947335765
16947342662
16947347911
16947356089
16947362132
16947367869
16947373118
16947382456
16947388804
16947394969
16947400889
16947406321
16947412913
16947419077
16947426646
16947430979
16947439585
16947444956
16947453135
16947459544
16947465586
16947472788
16947477976
16947486826
16947492075
16947498789
16947503672
16947511057
16947518320
16947523325
16947530283
16947536570
16947542551
16947548777
16947554697
16947560923
16947568430
16947573923
16947580820
16947587534
16947592966
16947599009
16947603952
16947611704
16947618479
16947626413
16947630503
16947640573
16947647959
16947655527
16947662607
16947670969
16947674875
16947686777
16947694650
16947702219
16947709421
16947718271
16947726938
16947733530
16947742624
16947748727
16947757272
16947763376
16947772531
16947779855
16947789804
16947800973
16947807260
16947816232
16947824533
16947831003
16947838144
16947846750
16947854074
16947861459
16947869027
16947875192
16947882394
16947889962
16947897103
16947906076
16947914132
16947922189
16947929940
16947936410
16947944345
16947950875
16947958871
16947967050
16947975900
16947981637
16947989388
16947998361
16948006966
16948013192
16948023751
16948028695
16948038338
16948045358
16948052682
16948060555
16948067696
16948073861
16948083504
16948089181
16948099740
16948107674
16948116036
16948123299
16948131478
16948137642
16948145211
16948151070
16948159676
16948166634
16948175484
16948183175
16948191231
16948194588
16948202706
16948207589
16948214424
16948221505
16948226815
16948232613
16948239022
16948243965
16948248787
16948255074
16948259529
16948266487
16948270760
16948277657
16948282784
16948287239
16948294014
16948298470
16948302681
16948309517
16948314888
16948319832
16948323982
16948331245
16948335640
16948342659
16948348335
16948356514
16948360420
16948367744
16948372261
16948379585
16948384895
16948390022
16948395454
16948400703
16948405708
16948410591
16948415596
16948420723
16948426155
16948432869
16948437690
16948444282
16948448860
16948457466
16948463447
16948471931
16948478096
16948484077
16948489509
16948496589
16948503303
16948511421
16948515022
16948522895
16948525642
16948532234
16948536323
16948543647
16948550056
16948555427
16948560920
16948566596
16948571967
16948577461
16948582221
16948587470
16948594245
16948600471
16948604987
16948610786
16948617683
16948622321
16948627387
16948632209
16948641425
16948647224
16948652229
16948656196
16948663032
16948667426
16948672492
16948676887
16948684272
16948689521
16948695197
16948700751
16948706306
16948711738
16948717292
16948722846
16948727179
16948732062
16948739570
16948744819
16948752082
16948756537
16948761542
16948768256
16948774909
16948780341
16948785468
16948792121
16948797126
16948802619
16948812262
16948818061
16948823493
16948831671
16948836798
16948843695
16948850104
16948854315
16948860236
16948866400
16948870978
16948878302
16948884650
16948890692
16948896613
16948902838
16948907782
16948912665
16948919135
16948923956
16948930731
16948937384
16948941901
16948947333
16948953863
16948958197
16948964117
16948970343
16948976752
16948980109
16948987494
16948993597
16948999274
16949003851
16949010870
16949015753
16949023077
16949030951
16949036871
16949042181
16949048163
16949052679
16949059820
16949065008
16949071905
16949081366
16949087530
16949094732
16949099432
16949106573
16949112432
16949117803
16949124334
16949131170
16949136297
16949141119
16949146307
16949151007
16949156256
16949161871
16949166815
16949174261
16949179571
16949184759
16949189947
16949195135
16949200628
16949205755
16949210882
16949218450
16949222784
16949227789
16949232916
16949237981
16949244695
16949249029
16949254644
16949260198
16949266851
16949272405
16949276861
16949282049
16949286199
16949291936
16949296392
16949303716
16949310369
16949316045
16949322088
16949328008
16949335393
16949340947
16949344365
16949352849
16949357915
16949363530
16949368169
16949374944
16949380376
16949389348
16949395696
16949402410
16949412908
16949420720
16949427617
16949435308
16949442693
16949449346
16949457158
16949467534
16949474614
16949482976
16949490422
16949495671
16949505071
16949510808
16949518803
16949524663
16949534489
16949541692
16949549687
16949555669
16949562566
16949571599
16949578313
16949585271
16949593083
16949602482
16949610112
16949617131
16949625126
16949632084
16949638310
16949645817
16949654301
16949662785
16949670842
16949678349
16949684941
16949692387
16949698918
16949706913
16949714665
16949724003
16949730351
16949739811
16949746220
16949754765
16949764286
16949769169
16949778446
16949786137
16949796696
16949802860
16949812077
16949819584
16949826969
16949832890
16949840397
16949848392
16949857914
16949865238
16949873234
16949880070
16949887638
16949893864
16949900883
16949909855
16949916813
16949925907
16949934757
16949940616
16949947818
16949956913
16949962162
16949971073
16949979068
16949989139
16949997074
16950004947
16950014164
16950021610
16950027652
16950038333
16950048282
16950056705
16950065494
16950073001
16950079776
16950087528
16950094791
16950102908
16950109012
16950119205
16950125430
16950134830
16950141849
16950151981
16950158877
16950169681
16950177432
16950186099
16950194827
16950203189
16950210879
16950219302
16950225894
16950233157
16950243533
16950253543
16950260684
16950270633
16950277285
16950284426
16950294009
16950301882
16950309512
16950316043
16950326968
16950332339
16950342593
16950349795
16950358401
16950365969
16950372073
16950382021
16950388735
16950397280
16950403689
16950413454
16950420596
16950430483
16950437746
16950445376
16950452395
16950462832
16950469302
16950477785
16950485598
16950493777
16950501223
16950510256
16950516909
16950527773
16950536623
16950541994
16950552065
16950558779
16950568361
16950574770
16950582705
16950590517
16950599916
16950608950
16950617861
16950622499
16950633425
16950640383
16950650820
16950658083
16950665163
16950674989
16950681459
16950691164
16950696291
16950707094
16950713014
16950721315
16950729616
16950738405
16950745363
16950753725
16950761232
16950770753
16950777345
16950783632
16950793703
16950801698
16950809816
16950817323
16950822877
16950829774
16950835756
16950842531
16950848390
16950852418
16950858522
16950864442
16950870790
16950873964
16950883790
16950889100
16950895448
16950902711
16950909852
16950915956
16950921998
16950928529
16950935670
16950941468
16950947450
16950954652
16950960511
16950966920
16950972901
16950978211
16950984254
16950990357
16950995301
16951001954
16951007691
16951014100
16951020570
16951026307
16951030091
16951038209
16951044984
16951049683
16951056458
16951062257
16951068177
16951072694
16951079835
16951084473
16951089722
16951095093
16951103882
16951110047
16951115174
16951119751
16951125794
16951128541
16951137879
16951143006
16951150330
16951155396
16951161255
16951167237
16951172791
16951177308
16951183350
16951189942
16951195374
16951200379
16951207093
16951214539
16951218018
16951224976
16951229981
16951235779
16951241272
16951250122
16951256775
16951261902
16951268250
16951275818
16951282654
16951287964
16951293518
16951301025
16951307861
16951313660
16951319763
16951326721
16951331604
16951336487
16951344482
16951353149
16951358581
16951365295
16951370544
16951375183
16951379944
16951383789
16951389770
16951394775
16951399780
16951404968
16951411011
16951415100
16951419677
16951424865
16951430725
16951435669
16951440246
16951445190
16951452087
16951457031
16951461853
16951468322
16951474426
16951480896
16951486084
16951490295
16951496704
16951501220
16951506469
16951512268
16951518249
16951524230
16951529846
16951535217
16951540466
16951545593
16951550720
16951555114
16951562866
16951567382
16951574218
16951580200
16951585082
16951589294
16951595763
16951600158
16951606384
16951613281
16951619750
16951624328
16951631042
16951635558
16951640685
16951647765
16951653136
16951661193
16951665588
16951671996
16951675292
16951683105
16951688170
16951695128
16951700988
16951707519
16951710570
16951717894
16951723266
16951730712
16951735534
16951742431
16951747069
16951752684
16951760192
16951766784
16951773009
16951778685
16951783080
16951789428
16951795165
16951800719
16951807677
16951813048
16951818175
16951822692
16951828917
16951834960
16951841612
16951848143
16951856444
16951861327
16951867735
16951874510
16951880614
16951886412
16951892088
16951897459
16951906432
16951911070
16951915404
16951920226
16951925902
16951930113
16951935850
16951940794
16951947264
16951951048
16951956969
16951961546
16951967528
16951972838
16951977537
16951981566
16951989256
16951995665
16952001890
16952007872
16952017027
16952024046
16952030272
16952038328
16952045225
16952053465
16952059874
16952065977
16952074522
16952079161
16952088255
16952094786
16952102476
16952109373
16952116209
16952123411
16952130796
16952139097
16952144651
16952150633
16952160398
16952169309
16952176939
16952183347
16952190977
16952198545
16952202940
16952211057
16952216917
16952226560
16952234922
16952240720
16952248777
16952255979
16952263303
16952269285
16952278318
16952287290
16952293638
16952302183
16952307920
16952314206
16952320737
16952329282
16952336118
16952345273
16952351804
16952358579
16952366574
16952372983
16952379453
16952386655
16952394040
16952403379
16952409177
16952418454
16952424008
16952431211
16952439389
16952447263
16952454770
16952463071
16952471677
16952477231
16952485165
16952493039
16952500546
16952506589
16952515439
16952525937
16952534665
16952540829
16952549313
16952557309
16952564145
16952571469
16952581174
16952589535
16952597226
16952604794
16952614010
16952621945
16952629147
16952635678
16952645199
16952650876
16952661435
16952666928
16952676266
16952680600
16952690243
16952698788
16952704403
16952712765
16952720944
16952727047
16952736508
16952744930
16952750607
16952759396
16952765438
16952772946
16952781857
16952791378
16952799435
16952806637
16952813961
16952820797
16952828915
16952836788
16952843258
16952854183
16952861019
16952868648
16952872738
16952883541
16952889339
16952896053
16952905147
16952913570
16952919796
16952929683
16952935726
16952944576
16952951229
16952958736
16952965694
16952974300
16952983089
16952989986
16952999996
16953005977
16953013607
16953021785
16953027828
16953033748
16953044429
16953048702
16953058894
16953064815
16953072994
16953081477
16953086787
16953096126
16953102901
16953112239
16953121150
16953127193
16953133601
16953142879
16953148433
16953158382
16953164119
16953172969
16953181697
16953189754
16953197200
16953202998
16953212275
16953218135
16953224177
16953232478
16953242793
16953252253
16953258540
16953265376
16953274958
16953299800
16953305354
16953318843
16953324946
16953334101
16953342341
16953350215
16953358271
16953365168
16953371882
16953380854
16953385737
16953393427
16953399836
16953406611
16953413264
16953420161
16953428034
16953432795
16953440913
16953445551
16953449518
16953454340
16953458491
16953462885
16953469050
16953473994
16953478937
16953484369
16953489252
16953495173
16953501276
16953508051
16953513605
16953519343
16953525446
16953530085
16953536127
16953542719
16953547663
16953552851
16953557734
16953562738
16953569513
16953575678
16953582087
16953587030
16953592462
16953597162
16953603022
16953608759
16953615656
16953622309
16953628412
16953633722
16953639765
16953644220
16953650324
16953655512
16953662714
16953667108
16953672723
16953677728
16953684076
16953689264
16953694757
16953700189
16953705255
16953710321
16953715265
16953723321
16953727655
16953733209
16953738031
16953743585
16953748834
16953755853
16953763055
16953768182
16953773187
16953779169
16953785516
16953790765
16953797052
16953803033
16953808282
16953814203
16953820184
16953825982
16953832452
16953838495
16953844781
16953852899
16953857782
16953865228
16953869439
16953876702
16953880609
16953887384
16953892999
16953898797
16953905450
16953911920
16953919244
16953926568
16953934258
16953939202
16953946832
16953952752
16953959771
16953967339
16953974419
16953978204
16953986626
16953992425
16953999993
16954004632
16954012749
16954017205
16954024773
16954030633
16954035149
16954039483
16954045464
16954052483
16954057854
16954062981
16954068108
16954072381
16954077508
16954082879
16954088982
16954092705
16954099907
16954104180
16954111260
16954114922
16954120354
16954126152
16954132622
16954136773
16954143303
16954148003
16954153496
16954158989
16954162957
16954169670
16954175652
16954182793
16954187676
16954192803
16954198296
16954204827
16954208916
16954214531
16954220391
16954226494
16954231621
16954237847
16954244011
16954249687
16954254570
16954260368
16954266228
16954271904
16954279778
16954286003
16954291313
16954297417
16954301933
16954306999
16954314079
16954319267
16954324760
16954331047
16954336357
16954340874
16954348564
16954353630
16954359672
16954362602
16954372368
16954377312
16954384514
16954388847
16954393852
16954400444
16954405143
16954412163
16954419853
16954425102
16954430717
16954435783
16954441459
16954447319
16954452751
16954458488
16954463310
16954471672
16954477165
16954483390
16954487724
16954493400
16954498222
16954505180
16954510429
16954516654
16954523796
16954528678
16954535392
16954541252
16954546317
16954552970
16954559135
16954564811
16954573417
16954581352
16954590324
16954595145
16954604789
16954611930
16954622123
16954629142
16954637870
16954644523
16954651420
16954658988
16954666862
16954674552
16954681205
16954689933
16954697867
16954706962
16954715629
16954721732
16954728385
16954739127
16954746512
16954751578
16954761283
16954768424
16954776175
16954784476
16954792105
16954798026
16954806510
16954814017
16954822318
16954826468
16954838919
16954846060
16954852408
16954858511
16954868826
16954876273
16954886465
16954896597
16954904227
16954913077
16954923331
16954929739
16954938101
16954945792
16954954642
16954962027
16954972586
16954980276
16954988333
16954995840
16955002798
16955011343
16955019705
16955027884
16955032095
16955044119
16955050833
16955061209
16955067739
16955074575
16955084646
16955093069
16955100820
16955110037
16955118460
16955125601
16955134084
16955142202
16955150259
16955158987
16955167410
16955171987
16955182302
16955189382
16955196279
16955206228
16955213613
16955220876
16955229543
16955237600
16955244192
16955255117
16955261648
16955270681
16955278493
16955286855
16955293386
16955303274
16955310048
16955316518
16955326284
16955333791
16955341481
16955348623
16955356862
16955366017
16955374379
16955382741
16955391347
16955399587
16955405873
16955413137
16955423390
16955432424
16955438466
16955448964
16955458302
16955467458
16955475819
16955483754
16955491566
16955500722
16955508290
16955516591
16955526051
16955533070
16955542042
16955550343
16955556935
16955567067
16955573842
16955581227
16955591054
16955597096
16955608021
16955615895
16955623829
16955630543
16955638905
16955646534
16955655018
16955663868
16955672779
16955679493
16955689259
16955695729
16955704396
16955711170
16955719044
16955726490
16955733692
16955745289
16955752613
16955760731
16955764942
16955776234
16955783558
16955791859
16955798634
16955808216
16955814869
16955823414
16955833546
16955840931
16955848499
16955855579
16955864429
16955870899
16955879993
16955886280
16955895862
16955901844
16955911304
16955919483
16955926380
16955932911
16955942798
16955946949
16955959644
16955966785
16955974597
16955982837
16955990833
16955997730
16956005420
16956013538
16956019275
16956025318
16956033496
16956037402
16956042651
16956046680
16956053333
16956059009
16956064746
16956069995
16956074268
16956080615
16956087146
16956094348
16956099048
16956104724
16956110950
16956116748
16956122974
16956128833
16956136035
16956143786
16956149646
16956154468
16956159961
16956165515
16956172351
16956176257
16956181689
16956189197
16956195117
16956200000
16956207507
16956213733
16956221911
16956234423
16956239917
16956246386
16956252551
16956258837
16956262927
16956268359
16956272937
16956279528
16956284716
16956289965
16956294848
16956299914
16956306445
16956309924
16956316516
16956321215
16956326769
16956333300
16956341296
16956347460
16956352160
16956357165
16956363390
16956367663
16956372363
16956378649
16956384386
16956393420
16956399950
16956405260
16956412218
16956417345
16956422411
16956429186
16956435839
16956442614
16956447924
16956452868
16956458788
16956464159
16956469774
16956475939
16956483874
16956489611
16956495958
16956503893
16956510729
16956517260
16956523607
16956528612
16956535082
16956542040
16956548815
16956555223
16956562059
16956565233
16956573656
16956578844
16956587511
16956592455
16956598192
16956605699
16956610399
16956617662
16956623766
16956629625
16956634691
16956641100
16956646593
16956654955
16956660265
16956666368
16956669908
16956678941
16956684251
16956689378
16956697191
16956703722
16956708665
16956713853
16956720994
16956726243
16956733324
16956736986
16956746080
16956751878
16956757310
16956765306
16956771043
16956775316
16956780992
16956786668
16956793565
16956799363
16956805528
16956811631
16956818650
16956824266
16956831956
16956837449
16956843126
16956850450
16956857286
16956864854
16956872117
16956879258
16956884202
16956890306
16956894944
16956901353
16956905747
16956911729
16956916245
16956922593
16956927903
16956932786
16956938401
16956946946
16956951890
16956958299
16956965196
16956970261
16956977952
16956982896
16956990647
16956995713
16957001572
16957006028
16957012559
16957018296
16957022446
16957029587
16957035386
16957042893
16957046372
16957052476
16957057358
16957062729
16957069321
16957074448
16957079331
16957085923
16957091050
16957097031
16957102280
16957107956
16957113633
16957117295
16957124314
16957131150
16957136155
16957142624
16957147263
16957153794
16957159104
16957164841
16957169968
16957175827
16957181992
16957187302
16957192917
16957199204
16957203476
16957208115
16957214890
16957219467
16957225510
16957234055
16957240402
16957245041
16957250351
16957257614
16957266830
16957274704
16957280502
16957289719
16957297714
16957306686
16957314743
16957320907
16957328903
16957337936
16957346054
16957352157
16957358749
16957367660
16957374740
16957382248
16957391769
16957397445
16957407089
16957414535
16957422226
16957430099
16957437545
16957444076
16957455001
16957460983
16957468795
16957476181
16957485031
16957493270
16957502181
16957508956
16957517257
16957524764
16957533676
16957540328
16957550216
16957557113
16957566085
16957572799
16957580123
16957587753
16957595870
16957603377
16957611922
16957619979
16957625777
16957637008
16957644515
16957650435
16957658736
16957665816
16957672408
16957681624
16957688094
16957697860
16957704757
16957711287
16957718734
16957725753
16957734420
16957741500
16957749923
16957757308
16957765486
16957773787
16957780562
16957790511
16957799056
16957807845
16957814131
16957820479
16957829451
16957837080
16957843184
16957852828
16957858504
16957868880
16957876692
16957885725
16957893477
16957901289
16957908247
16957917769
16957925520
16957934614
16957943587
16957953230
16957961226
16957969649
16957974348
16957985457
16957992109
16958001570
16958008589
16958016279
16958027143
16958035322
16958042524
16958050154
16958058271
16958063642
16958073408
16958080793
16958087995
16958096052
16958103987
16958111799
16958117048
16958126447
16958133527
16958141462
16958149336
16958156843
16958163007
16958171735
16958178876
16958186811
16958195051
16958203840
16958212018
16958218183
16958224897
16958234968
16958241865
16958248395
16958256086
16958264081
16958271528
16958280439
16958288129
16958294965
16958303388
16958311628
16958318891
16958325605
16958337751
16958342511
16958353864
16958361005
16958371747
16958378705
16958388227
16958395795
16958402692
16958412580
16958421185
16958428754
16958434186
16958442792
16958449872
16958457562
16958465192
16958471906
16958479352
16958489728
16958496075
16958503155
16958510724
16958520734
16958527447
16958533673
16958543439
16958551800
16958559491
16958564557
16958572796
16958580975
16958589337
16958593731
16958603619
16958610516
16958621441
16958627545
16958634625
16958644757
16958650006
16958659283
16958666302
16958674542
16958681500
16958689678
16958695599
16958700482
16958706219
16958711163
16958714886
16958721661
16958726421
16958733379
16958739727
16958745342
16958751263
16958757122
16958761578
16958767620
16958774090
16958780010
16958784100
16958790874
16958796490
16958801861
16958805950
16958812298
16958819256
16958825603
16958829143
16958835247
16958839763
16958846416
16958851299
16958858440
16958862713
16958870342
16958874859
16958882427
16958886821
16958893169
16958898418
16958902813
16958907817
16958913982
16958917888
16958924663
16958929363
16958936199
16958940715
16958947368
16958955608
16958960735
16958966960
16958972148
16958978557
16958983745
16958988933
16958996623
16959001750
16959010356
16959017009
16959023418
16959030315
16959037883
16959042583
16959050090
16959057964
16959065410
16959068950
16959078471
16959084148
16959089641
16959093913
16959100627
16959105937
16959113322
16959116252
16959123698
16959128215
16959135783
16959139995
16959145732
16959152324
16959158793
16959163737
16959169291
16959176616
16959182292
16959187846
16959192912
16959199138
16959206279
16959213481
16959219523
16959225688
16959229228
16959237040
16959242045
16959250224
16959255656
16959261698
16959268290
16959274699
16959280436
16959284892
16959293315
16959298441
16959304667
16959310038
16959317118
16959322123
16959328898
16959333903
16959341776
16959346659
16959352580
16959358317
16959366312
16959372721
16959377055
16959383524
16959389689
16959396464
16959403239
16959407938
16959414286
16959420511
16959425577
16959431254
16959438395
16959443155
16959450846
16959456461
16959462748
16959469462
16959477213
16959483439
16959488504
16959496927
16959501200
16959508951
16959514200
16959522318
16959528421
16959535562
16959540873
16959547708
16959553812
16959561136
16959566812
16959574076
16959579752
16959587076
16959594461
16959600504
16959608316
16959614847
16959621317
16959627908
16959634073
16959641214
16959646829
16959654947
16959659525
16959664529
16959673868
16959680154
16959688760
16959694315
16959702981
16959708902
16959715127
16959721475
16959729593
16959735574
16959742349
16959747415
16959752115
16959757791
16959763467
16959769693
16959776162
16959782022
16959787027
16959793191
16959798257
16959806009
16959812051
16959818216
16959823342
16959828653
16959836587
16959842019
16959847940
16959854165
16959860818
16959867166
16959873574
16959878762
16959884927
16959892129
16959898599
16959903970
16959910256
16959915811
16959921426
16959927285
16959933144
16959939492
16959945168
16959953164
16959958901
16959967141
16959973428
16959982095
16959990212
16959998574
16960002969
16960018899
16960035683
16960053322
16960065712
16960076516
16960086647
16960096779
16960106484
16960116982
16960127358
16960138527
16960146218
16960152748
16960160866
16960167031
16960173683
16960182045
16960188271
16960196388
16960202614
16960211159
16960218178
16960225136
16960231300
16960241188
16960246559
16960255165
16960261147
16960270729
16960277687
16960285011
16960292274
16960301063
16960309059
16960316872
16960323463
16960331337
16960339393
16960347145
16960354103
16960363991
16960370887
16960378151
16960385231
16960394447
16960400550
16960407997
16960415931
16960423683
16960432716
16960440834
16960446083
16960456153
16960461341
16960469337
16960476905
16960486976
16960493568
16960501747
16960509925
16960515785
16960523170
16960530494
16960537574
16960546668
16960553565
16960561927
16960567969
16960574622
16960582130
16960590491
16960597755
16960606116
16960613990
16960619544
16960628394
16960635840
16960644446
16960652747
16960659095
16960666175
16960676673
16960683448
16960690406
16960700049
16960708533
16960715247
16960721289
16960729468
16960737281
16960746131
16960751563
16960760535
16960768469
16960776587
16960784155
16960791236
16960797827
16960806250
16960816260
16960822058
16960832495
16960839697
16960847510
16960855139
16960862524
16960869177
16960878821
16960885779
16960893652
16960902197
16960908911
16960915747
16960924780
16960932287
16960940283
16960948095
16960956823
16960964697
16960971594
16960982275
16960988928
16960996985
16961005163
16961014929
16961023046
16961030676
16961038610
16961046484
16961053564
16961061193
16961067602
16961074194
16961083410
16961089697
16961098913
16961106176
16961113378
16961120886
16961129736
16961135229
16961145666
16961152807
16961159948
16961164404
16961177831
16961183691
16961193700
16961198156
16961210180
16961219274
16961225377
16961232335
16961242895
16961250768
16961259252
16961266149
16961277379
16961285009
16961291539
16961302160
16961308812
16961316503
16961325719
16961333776
16961339940
16961348607
16961355321
16961363317
16961370397
16961379247
16961386022
16961392186
16961401891
16961411290
16961417272
16961424168
16961429234
16961434422
16961441624
16961447545
16961452184
16961459325
16961464146
16961469029
16961476659
16961480504
16961486912
16961492894
16961498204
16961503941
16961509312
16961516392
16961521519
16961526707
16961531895
16961539464
16961544224
16961549412
16961556309
16961561253
16961565770
16961572056
16961577855
16961581395
16961586644
16961593907
16961598423
16961604649
16961610325
16961615147
16961621434
16961627232
16961631993
16961638890
16961643345
16961649449
16961653904
16961659886
16961664219
16961669895
16961675999
16961680454
16961687535
16961693638
16961698887
16961705174
16961711765
16961716404
16961722324
16961729832
16961734592
16961741367
16961746616
16961751865
16961757725
16961763950
16961769749
16961774631
16961781345
16961787693
16961793857
16961798862
16961803928
16961808872
16961816562
16961821445
16961830295
16961835544
16961840671
16961847629
16961852695
16961857822
16961863254
16961868564
16961873935
16961884067
16961891147
16961897190
16961902195
16961908664
16961916172
16961920810
16961926425
16961933994
16961942295
16961946506
16961953830
16961958530
16961965000
16961970127
16961975559
16961982883
16961988254
16961994296
16962000095
16962004794
16962016208
16962020664
16962027683
16962032138
16962038364
16962043735
16962049960
16962056491
16962060825
16962065402
16962073032
16962077792
16962085849
16962090488
16962097385
16962101962
16962107150
16962114108
16962119601
16962124972
16962129428
16962137912
16962143161
16962149020
16962154147
16962159884
16962167086
16962175143
16962181308
16962188876
16962193332
16962200961
16962205478
16962212558
16962217685
16962224093
16962232577
16962239840
16962245944
16962253268
16962257785
16962264010
16962268527
16962274142
16962281039
16962285616
16962292758
16962297640
16962307833
16962312106
16962319979
16962325228
16962332186
16962337984
16962345370
16962350619
16962357149
16962361849
16962367159
16962373873
16962379610
16962386019
16962393282
16962398348
16962405489
16962411654
16962417269
16962422640
16962428560
16962433199
16962438509
16962446505
16962451571
16962458773
16962463472
16962468660
16962475191
16962480745
16962485201
16962493013
16962497286
16962503084
16962508638
16962515535
16962522249
16962529085
16962534517
16962542208
16962545870
16962554232
16962559297
16962566683
16962572054
16962579378
16962583895
16962591402
16962596040
16962602327
16962608980
16962612215
16962618379
16962622896
16962629182
16962635469
16962642549
16962649385
16962657747
16962663667
16962672395
16962678926
16962687044
16962694246
16962701387
16962707429
16962716401
16962721651
16962731050
16962737337
16962744294
16962751191
16962760591
16962766084
16962773103
16962779451
16962786836
16962795137
16962802034
16962807771
16962816377
16962824556
16962831575
16962837251
16962845246
16962852937
16962860566
16962866181
16962874543
16962883088
16962890962
16962898896
16962903230
16962911652
16962917268
16962925874
16962934113
16962941193
16962948884
16962956269
16962965180
16962972382
16962980134
16962987153
16962993317
16963000947
16963006806
16963014741
16963023285
16963030793
16963037446
16963045197
16963051911
16963061188
16963068879
16963076264
16963084137
16963091217
16963097321
16963104340
16963110566
16963121613
16963132477
16963138581
16963146576
16963154389
16963162934
16963171173
16963179962
16963188812
16963196442
16963204315
16963208588
16963217621
16963223724
16963231049
16963240082
16963245880
16963256439
16963263580
16963271942
16963280975
16963288910
16963297211
16963304779
16963312225
16963320770
16963328766
16963338226
16963345855
16963351837
16963358368
16963368072
16963374603
16963382721
16963390777
16963398468
16963406707
16963415496
16963422943
16963429595
16963437896
16963444793
16963454376
16963461944
16963469757
16963474395
16963485381
16963493560
16963499603
16963506133
16963514922
16963523345
16963531036
16963538360
16963547088
16963555572
16963561065
16963569121
16963576202
16963585662
16963593230
16963601348
16963608672
16963614287
16963624297
16963631682
16963638762
16963646087
16963656585
16963662444
16963672271
16963679900
16963689605
16963695281
16963703643
16963712920
16963721953
16963726287
16963736785
16963746001
16963754546
16963761016
16963767607
16963777434
16963784331
16963794646
16963801177
16963808379
16963814360
16963822295
16963830107
16963838896
16963843413
16963855681
16963862334
16963871001
16963877837
16963886076
16963892729
16963902434
16963909270
16963917387
16963925200
16963934233
16963942289
16963951445
16963959013
16963965056
16963973967
16963982328
16963991484
16963999357
16964007719
16964014250
16964021391
16964031340
16964038236
16964046110
16964051298
16964057279
16964062467
16964069242
16964073515
16964084928
16964091215
16964100004
16964105924
16964114774
16964120329
16964126188
16964131803
16964138273
16964145841
16964150358
16964155119
16964162382
16964166288
16964172208
16964177396
16964182096
16964188077
16964192838
16964197782
16964204679
16964210172
16964215787
16964222257
16964228910
16964232938
16964238614
16964245206
16964250943
16964255948
16964261747
16964267850
16964274869
16964280851
16964287259
16964293180
16964298856
16964303434
16964308805
16964313077
16964319425
16964324796
16964329740
16964335477
16964342374
16964348599
16964354825
16964360562
16964366361
16964372342
16964376431
16964384244
16964391446
16964396146
16964400967
16964407925
16964413785
16964418851
16964425687
16964430386
16964436734
16964443326
16964448941
16964453397
16964460294
16964466519
16964472317
16964478360
16964483731
16964488736
16964495389
16964501675
16964506070
16964510953
16964515957
16964522488
16964527798
16964532864
16964539212
16964544339
16964550930
16964556302
16964561551
16964568753
16964575589
16964581021
16964585476
16964592556
16964596585
16964604275
16964610562
16964615933
16964620510
16964627774
16964633633
16964640225
16964645046
16964653591
16964659634
16964665066
16964669277
16964677212
16964681484
16964688992
16964698574
16964705715
16964712429
16964717739
16964723415
16964731045
16964736782
16964746304
16964750820
16964758388
16964763882
16964770840
16964775112
16964780117
16964787319
16964793484
16964798977
16964805630
16964809780
16964815212
16964819851
16964825466
16964831630
16964836757
16964842495
16964847988
16964852688
16964856838
16964863796
16964868862
16964874111
16964879970
16964886745
16964892543
16964898220
16964901332
16964908840
16964913478
16964918911
16964925380
16964930690
16964938259
16964944057
16964949123
16964954067
16964959926
16964965480
16964971279
16964976589
16964983974
16964989894
16964996120
16965000514
16965006618
16965010890
16965016689
16965023830
16965030177
16965037990
16965042201
16965048793
16965053859
16965059474
16965069240
16965075465
16965081996
16965090663
16965096095
16965103480
16965108729
16965115565
16965121486
16965128749
16965136561
16965140956
16965147548
16965152308
16965158473
16965164698
16965170131
16965174525
16965179896
16965187465
16965192652
16965199672
16965205592
16965210780
16965215663
16965221522
16965226710
16965235621
16965240321
16965246424
16965251063
16965257472
16965262538
16965266383
16965273829
16965281703
16965288661
16965298548
16965304957
16965314539
16965325221
16965331141
16965343409
16965353541
16965366785
16965373926
16965382715
16965392359
16965397669
16965409754
16965419153
16965425074
16965433497
16965443262
16965449366
16965458033
16965467798
16965475977
16965483606
16965493433
16965502222
16965509119
16965514185
16965522669
16965530847
16965538477
16965545191
16965550623
16965558862
16965567041
16965574426
16965581140
16965589746
16965596033
16965602869
16965610254
16965617029
16965623438
16965633691
16965639978
16965649011
16965655359
16965664270
16965671045
16965680200
16965686487
16965695886
16965702051
16965710657
16965719568
16965727807
16965734765
16965740991
16965750757
16965757653
16965763513
16965769494
16965777124
16965782739
16965790551
16965797021
16965806726
16965813806
16965819909
16965826684
16965831994
16965841088
16965848474
16965855798
16965863610
16965871972
16965878320
16965886498
16965892785
16965900597
16965909875
16965916161
16965924767
16965931603
16965938134
16965945092
16965953332
16965960839
16965968468
16965976525
16965985436
16965991234
16966000023
16966008996
16966014672
16966021752
16966029931
16966042931
16966050499
16966058739
16966068444
16966077843
16966086327
16966097069
16966104515
16966112938
16966122826
16966134911
16966140343
16966150841
16966158165
16966165245
16966172753
16966181053
16966189476
16966195030
16966205406
16966212120
16966220604
16966226402
16966232384
16966239830
16966247520
16966253624
16966262779
16966270897
16966278648
16966285240
16966291893
16966298668
16966304954
16966312645
16966319420
16966327781
16966333214
16966341819
16966348045
16966355491
16966361595
16966371360
16966378501
16966384788
16966391197
16966399681
16966406761
16966413414
16966421531
16966430381
16966436180
16966444786
16966453147
16966459312
16966468772
16966474693
16966483360
16966492027
16966499961
16966506797
16966513938
16966517966
16966527976
16966533897
16966541953
16966551047
16966558494
16966564597
16966571067
16966574241
16966580222
16966585654
16966593284
16966597983
16966604087
16966608909
16966615073
16966619224
16966625571
16966630515
16966634421
16966642173
16966648459
16966653037
16966657126
16966664389
16966668235
16966676230
16966679831
16966686606
16966693198
16966698020
16966703879
16966708518
16966715903
16966724936
16966732871
16966739340
16966745810
16966750937
16966759299
16966765952
16966771933
16966777487
16966783469
16966787558
16966792929
16966796835
16966803732
16966807883
16966813620
16966817465
16966823264
16966827414
16966832785
16966837790
16966843405
16966848837
16966856161
16966861105
16966866537
16966870993
16966878378
16966883566
16966889425
16966893942
16966900290
16966905722
16966909872
16966915426
16966919333
16966925375
16966932028
16966937216
16966945150
16966951254
16966957480
16966963583
16966969015
16966973959
16966979086
16966983786
16966989462
16966995626
16967001547
16967006369
16967011923
16967017111
16967021688
16967026083
16967034506
16967039633
16967044821
16967047933
16967055197
16967060018
16967064962
16967070089
16967076498
16967081564
16967087667
16967093282
16967099325
16967105245
16967112814
16967118124
16967126607
16967133199
16967138509
16967143819
16967149496
16967153158
16967160604
16967166341
16967174886
16967178670
16967186605
16967191488
16967196004
16967203756
16967207662
16967214559
16967219747
16967227681
16967232991
16967239705
16967246602
16967251302
16967256429
16967264363
16967269429
16967276326
16967282613
16967291097
16967297628
16967304219
16967312032
16967317342
16967323140
16967331624
16967337056
16967342183
16967347249
16967352254
16967359212
16967364461
16967370198
16967375508
16967382893
16967387349
16967393819
16967398030
16967403157
16967409505
16967414998
16967419820
16967425618
16967431844
16967437276
16967441914
16967446126
16967453267
16967458455
16967463582
16967470540
16967476521
16967480794
16967486653
16967491963
16967498128
16967504292
16967508626
16967514851
16967518940
16967525715
16967530354
16967537068
16967541890
16967547688
16967553486
16967558735
16967563679
16967571736
16967576069
16967582234
16967587788
16967593464
16967598469
16967605244
16967609883
16967616841
16967621845
16967627461
16967634052
16967638691
16967644367
16967649800
16967655781
16967661640
16967666889
16967673054
16967677876
16967684284
16967688129
16967694721
16967701374
16967706562
16967712482
16967721088
16967726337
16967732014
16967739826
16967748981
16967753559
16967765766
16967772602
16967782062
16967789020
16967799824
16967806782
16967815021
16967825885
16967833881
16967841877
16967850177
16967857929
16967864948
16967875873
16967882221
16967893024
16967902301
16967911090
16967920307
16967928668
16967936908
16967944965
16967952960
16967961017
16967968890
16967978778
16967987567
16967997333
16968004657
16968016437
16968024188
16968034320
16968041644
16968048907
16968063129
16968072650
16968080707
16968089374
16968096881
16968104938
16968111529
16968119281
16968129229
16968135150
16968144671
16968151690
16968159503
16968168048
16968174945
16968181903
16968189044
16968196002
16968203936
16968211627
16968219622
16968227374
16968234820
16968240679
16968249835
16968255999
16968264056
16968271929
16968278216
16968285235
16968292193
16968301043
16968308672
16968315508
16968321185
16968332110
16968339861
16968347124
16968354327
16968362383
16968369768
16968378252
16968385332
16968395220
16968401751
16968411211
16968418169
16968426714
16968434282
16968442400
16968450213
16968454668
16968465960
16968473284
16968481401
16968491472
16968497393
16968506609
16968512834
16968521868
16968528459
16968538774
16968546404
16968553850
16968562761
16968570146
16968575761
16968584123
16968593828
16968602007
16968609636
16968616228
16968625139
16968630815
16968640337
16968648332
16968655900
16968663103
16968671831
16968679948
16968688371
16968695512
16968703935
16968710710
16968720170
16968727311
16968737077
16968743608
16968753190
16968759721
16968766923
16968776994
16968784013
16968791520
16968800309
16968808488
16968818681
16968826798
16968834977
16968843766
16968848649
16968860124
16968869157
16968878434
16968890092
16968898270
16968906205
16968913773
16968921647
16968927750
16968933915
16968943375
16968949113
16968958573
16968964615
16968974076
16968980607
16968987504
16968996415
16969005326
16969011673
16969020218
16969027909
16969033524
16969042191
16969048050
16969056900
16969064041
16969071488
16969079361
16969086075
16969092423
16969102127
16969107865
16969118363
16969122940
16969132767
16969139542
16969148941
16969155472
16969163468
16969173416
16969180862
16969188309
16969193558
16969200272
16969205887
16969212112
16969217117
16969222732
16969228470
16969234146
16969238785
16969245987
16969250931
16969255752
16969262710
16969267776
16969273575
16969278702
16969284439
16969290237
16969296768
16969301468
16969307083
16969311844
16969318252
16969322769
16969328201
16969335525
16969340408
16969347183
16969352554
16969358108
16969364029
16969369278
16969375625
16969382461
16969385513
16969395645
16969400405
16969406082
16969411270
16969417922
16969426040
16969430435
16969435439
16969443618
16969449905
16969454238
16969461440
16969466201
16969472976
16969476821
16969482436
16969488662
16969496108
16969501357
16969506911
16969513137
16969519912
16969523025
16969533157
16969537795
16969548659
16969555800
16969562942
16969572768
16969579177
16969585464
16969591872
16969597854
16969601394
16969607497
16969611770
16969616774
16969621779
16969626723
16969631118
16969637526
16969642165
16969647963
16969653029
16969658828
16969662734
16969667922
16969673232
16969680373
16969685622
16969690810
16969695876
16969701186
16969705519
16969709731
16969715285
16969721083
16969725783
16969731581
16969736647
16969741591
16969748793
16969753188
16969763747
16969769362
16969774611
16969781935
16969791884
16969798781
16969808546
16969820204
16969826247
16969835402
16969844923
16969854445
16969861830
16969870009
16969878676
16969888197
16969896193
16969904310
16969912489
16969920424
16969929152
16969937513
16969947462
16969955030
16969962172
16969969862
16969976759
16969984754
16969993299
16970001051
16970009657
16970017652
16970025160
16970032972
16970040785
16970048963
16970057508
16970067335
16970074659
16970083509
16970089613
16970098280
16970106397
16970115491
16970123609
16970132459
16970143873
16970151014
16970160108
16970167249
16970176282
16970184644
16970193494
16970202100
16970211133
16970224927
16970234815
16970242933
16970252881
16970260144
16970270154
16970278760
16970284803
16970293653
16970301587
16970309766
16970315747
16970324658
16970333386
16970340955
16970347424
16970357007
16970365918
16970375806
16970381665
16970390393
16970398389
16970407361
16970415234
16970423535
16970431042
16970439038
16970446545
16970452893
16970460339
16970466199
16970475659
16970484326
16970491833
16970498852
16970506848
16970514538
16970521740
16970527722
16970537182
16970545117
16970554089
16970562817
16970573864
16970581433
16970591259
16970599011
16970609753
16970617687
16970629528
16970638317
16970648815
16970659802
16970668530
16970678967
16970688488
16970699108
16970708202
16970718700
16970729076
16970738659
16970749096
16970758251
16970768383
16970778332
16970788280
16970798839
16970807323
16970817394
16970828014
16970839489
16970849926
16970858715
16970870983
16970881420
16970893016
16970903453
16970912242
16970921581
16970932445
16970942149
16970953075
16970964977
16970972545
16970983714
16970994701
16971005321
16971015880
16971023021
16971035899
16971044871
16971056285
16971066539
16971076976
16971085582
16971096263
16971106028
16971116343
16971128123
16971136302
16971147654
16971155650
16971167002
16971177684
16971185923
16971195262
16971205943
16971215525
16971224680
16971235240
16971246287
16971254771
16971261912
16971270152
16971275706
16971282908
16971288584
16971296030
16971304453
16971309702
16971319346
16971325144
16971333811
16971340159
16971345896
16971353525
16971360850
16971368113
16971373789
16971380686
16971387095
16971395151
16971400217
16971407969
16971415049
16971423166
16971428904
16971436533
16971442698
16971451059
16971458384
16971467234
16971474008
16971483042
16971491037
16971497080
16971506723
16971512705
16971519968
16971528818
16971534860
16971545114
16971551889
16971560922
16971568185
16971577524
16971584299
16971593210
16971598642
16971607309
16971615060
16971623727
16971631235
16971637155
16971644418
16971653146
16971660592
16971669931
16971677987
16971684091
16971693368
16971699777
16971707284
16971716623
16971724252
16971733468
16971739877
16971748666
16971755014
16971764108
16971772531
16971778939
16971787484
16971797006
16971809762
16971820870
16971831124
16971841683
16971852181
16971861764
16971870797
16971879891
16971886605
16971893502
16971900948
16971908456
16971915902
16971923226
16971930367
16971936104
16971944893
16971952889
16971960641
16971969002
16971975472
16971983407
16971990609
16971996468
16971999276
16972006478
16972009041
16972017464
16972025216
16972035714
16972040413
16972045601
16972050728
16972056038
16972060555
16972069161
16972073250
16972078499
16972083931
16972088326
16972092598
16972098580
16972105660
16972110787
16972116890
16972120735
16972125801
16972129769
16972137032
16972142037
16972147652
16972152474
16972157417
16972162972
16972168160
16972173286
16972178230
16972183235
16972189461
16972195015
16972200569
16972205818
16972210213
16972216926
16972221443
16972228462
16972234444
16972240364
16972245674
16972251167
16972257454
16972262886
16972268745
16972274055
16972279182
16972284492
16972289741
16972296455
16972301094
16972306770
16972311714
16972319221
16972324104
16972330452
16972336189
16972340767
16972347480
16972354560
16972360969
16972365852
16972374519
16972378425
16972384529
16972389839
16972395637
16972402534
16972406379
16972410774
16972415962
16972421028
16972425605
16972429450
16972433784
16972439155
16972444892
16972448371
16972454658
16972458442
16972464668
16972468940
16972477668
16972482063
16972487861
16972492072
16972498603
16972503791
16972510078
16972514960
16972522407
16972528449
16972532722
16972538276
16972542487
16972547675
16972551887
16972558234
16972562812
16972568976
16972573127
16972579535
16972585700
16972591559
16972596137
16972601508
16972608405
16972615363
16972619880
16972625129
16972631659
16972637824
16972643378
16972647528
16972655280
16972661261
16972666449
16972672248
16972678412
16972683112
16972688605
16972693244
16972701239
16972705695
16972713324
16972717841
16972724494
16972729376
16972736701
16972741400
16972747199
16972754645
16972761725
16972766119
16972772467
16972776862
16972782233
16972788397
16972796332
16972801398
16972807684
16972813422
16972819464
16972825201
16972831305
16972836371
16972847479
16972854742
16972859991
16972867315
16972871771
16972877325
16972884466
16972891363
16972896673
16972903753
16972908697
16972916754
16972922003
16972928473
16972935492
16972940374
16972948187
16972952887
16972959051
16972964117
16972971014
16972975347
16972981695
16972988470
16972992498
16972998602
16973003668
16973009466
16973013250
16973017401
16973023260
16973029974
16973035467
16973040838
16973046819
16973050115
16973056890
16973062444
16973066290
16973071416
16973077337
16973082708
16973086980
16973092779
16973097723
16973101812
16973107305
16973112188
16973118536
16973123601
16973128850
16973133550
16973137395
16973141973
16973148015
16973151555
16973159551
16973164983
16973171514
16973175420
16973182012
16973187627
16973192510
16973197271
16973206853
16973212651
16973217534
16973222173
16973227727
16973233464
16973238591
16973243535
16973249761
16973254888
16973260503
16973265081
16973271062
16973275090
16973281438
16973285588
16973293096
16973298039
16973306340
16973310979
16973315618
16973322087
16973326299
16973332158
16973337041
16973344670
16973349492
16973355779
16973360417
16973365605
16973370061
16973375188
16973381047
16973387944
16973393498
16973399663
16973405949
16973411626
16973415044
16973422673
16973427251
16973434697
16973440007
16973447270
16973451848
16973458073
16973463444
16973468998
16973476018
16973481816
16973490361
16973495488
16973503422
16973508122
16973515019
16973519841
16973525639
16973528263
16973540043
16973546757
16973550724
16973555302
16973560856
16973565007
16973570683
16973573857
16973581059
16973586369
16973592045
16973595707
16973602055
16973606571
16973612736
16973617130
16973625248
16973630436
16973636479
16973640385
16973646732
16973651493
16973656376
16973661381
16973666996
16973673588
16973678715
16973682682
16973688297
16973695988
16973702030
16973706852
16973713200
16973718632
16973723575
16973728824
16973735233
16973739933
16973744633
16973749332
16973758304
16973764408
16973769535
16973773380
16973780460
16973784672
16973789737
16973794681
16973800907
16973807010
16973812992
16973817264
16973824100
16973829593
16973834720
16973838871
16973846378
16973851261
16973857975
16973862674
16973869632
16973874332
16973878421
16973884769
16973889957
16973896182
16973902164
16973908023
16973912601
16973919071
16973923160
16973929813
16973933658
16973940921
16973947574
16973951968
16973956973
16973962894
16973966922
16973971866
16973976993
16973985049
16973991275
16973996768
16974001468
16974006656
16974011600
16974017215
16974021976
16974030276
16974035403
16974043094
16974048587
16974055240
16974059451
16974066836
16974072085
16974080813
16974088809
16974094973
16974101077
16974107058
16974111514
16974116336
16974120547
16974126773
16974132815
16974137881
16974142031
16974146731
16974151858
16974156985
16974161196
16974165530
16974171633
16974177920
16974182131
16974189150
16974194216
16974199343
16974204409
16974210452
16974216799
16974222720
16974225955
16974232607
16974237063
16974243655
16974247805
16974255190
16974261843
16974268557
16974280032
16974286318
16974292727
16974298647
16974304507
16974312441
16974319643
16974325381
16974331667
16974337832
16974343203
16974347658
16974352053
16974359743
16974364443
16974373110
16974376284
16974386538
16974391176
16974396914
16974399904
16974408754
16974414614
16974420351
16974425539
16974429750
16974433962
16974440371
16974445742
16974451296
16974457704
16974462831
16974469057
16974473940
16974480165
16974487306
16974492433
16974497682
16974505983
16974511415
16974515627
16974521486
16974526247
16974533083
16974537904
16974544496
16974550844
16974559084
16974566164
16974571352
16974581850
16974590211
16974598756
16974606386
16974619508
16974624025
16974632936
16974641237
16974643739
16974657045
16974662233
16974673402
16974683412
16974692140
16974702943
16974710389
16974719117
16974724549
16974736268
16974741944
16974752931
16974760804
16974767762
16974777162
16974782594
16974788575
16974793641
16974800599
16974805299
16974811219
16974815980
16974822022
16974826783
16974831727
16974838502
16974844239
16974849610
16974855897
16974862122
16974867249
16974872498
16974878052
16974883118
16974887635
16974893616
16974900025
16974905701
16974910950
16974916382
16974921876
16974927857
16974933411
16974938965
16974943238
16974948914
16974955140
16974960999
16974966614
16974973023
16974977723
16974983521
16974989380
16974996521
16975003907
16975009278
16975014710
16975020142
16975025147
16975031494
16975037476
16975042664
16975049256
16975054993
16975059632
16975066651
16975071778
16975077698
16975083557
16975089112
16975095154
16975103150
16975108277
16975114197
16975120056
16975124695
16975131104
16975136047
16975141235
16975148193
16975155396
16975160278
16975166565
16975171814
16975177246
16975182861
16975189087
16975194458
16975201050
16975206604
16975212585
16975219055
16975223999
16975228882
16975235290
16975240478
16975248230
16975253540
16975259033
16975266296
16975271240
16975277221
16975283752
16975289245
16975293640
16975300415
16975307190
16975312561
16975316589
16975325378
16975331054
16975337097
16975344299
16975351989
16975361755
16975368713
16975374755
16975382141
16975386779
16975393188
16975399230
16975405944
16975411498
16975417053
16975422790
16975427429
16975433776
16975439880
16975443176
16975450256
16975454589
16975461303
16975466125
16975471801
16975476806
16975482238
16975487182
16975493407
16975498412
16975505370
16975511046
16975517089
16975522460
16975528258
16975533874
16975540404
16975546142
16975550841
16975558654
16975563781
16975569884
16975574950
16975582457
16975587890
16975592528
16975599852
16975604369
16975612059
16975618407
16975624022
16975629760
16975635863
16975639098
16975647093
16975654723
16975659484
16975664855
16975672179
16975677123
16975682616
16975690245
16975695616
16975704649
16975710509
16975716673
16975722044
16975728209
16975733824
16975740233
16975745238
16975752501
16975758421
16975765135
16975770140
16975776183
16975782103
16975787962
16975796568
16975801024
16975808714
16975815855
16975822508
16975829466
16975834044
16975838988
16975846739
16975852049
16975857542
16975864683
16975870970
16975876097
16975881407
16975888731
16975893065
16975899778
16975905821
16975913633
16975918272
16975924498
16975929625
16975935301
16975940428
16975945555
16975953367
16975963194
16975971678
16975978208
16975984495
16975990965
16975997190
16976002561
16976010130
16976014768
16976022031
16976025999
16976031309
16976036863
16976042905
16976047849
16976054868
16976059812
16976065488
16976071470
16976076292
16976080686
16976087461
16976092039
16976098447
16976103757
16976110288
16976114683
16976119626
16976125059
16976129819
16976137693
16976143369
16976148923
16976152707
16976159177
16976162412
16976169614
16976174436
16976189023
16976193723
16976200559
16976207151
16976213193
16976218503
16976224912
16976230771
16976236325
16976241696
16976249387
16976255002
16976260922
16976267148
16976271298
16976276853
16976283933
16976288632
16976296079
16976302304
16976308103
16976314267
16976320676
16976326596
16976333249
16976338498
16976345944
16976351193
16976358273
16976362973
16976369748
16976375851
16976381772
16976387387
16976391904
16976398862
16976404355
16976409970
16976416012
16976421750
16976427853
16976433346
16976438168
16976445553
16976449338
16976455258
16976461972
16976467526
16976474423
16976480099
16976486630
16976494626
16976499813
16976505062
16976511715
16976517880
16976524105
16976527768
16976536434
16976542782
16976548031
16976556088
16976562924
16976570614
16976576840
16976582089
16976591854
16976595333
16976603512
16976608883
16976615048
16976620236
16976625485
16976629818
16976635311
16976640560
16976647762
16976652218
16976659542
16976664242
16976670589
16976674252
16976681271
16976686214
16976691830
16976698421
16976703487
16976708736
16976715511
16976720882
16976727047
16976743587
16976748409
16976756588
16976760006
16976767513
16976772579
16976778316
16976784115
16976791439
16976796199
16976802852
16976809993
16976815364
16976821468
16976827327
16976832759
16976838375
16976843379
16976848445
16976854244
16976859798
16976868099
16976874141
16976879390
16976886287
16976891780
16976898616
16976903682
16976910457
16976915889
16976922359
16976928523
16976933833
16976940730
16976946895
16976950984
16976958003
16976963863
16976969600
16976975032
16976981624
16976988277
16976995174
16977000606
16977005611
16977010554
16977015864
16977020320
16977026912
16977033076
16977039851
16977043208
16977050410
16977055537
16977062495
16977065852
16977073176
16977077388
16977082820
16977090388
16977094600
16977100398
16977106196
16977111140
16977117121
16977122920
16977124690
16977135432
16977141352
16977147090
16977152339
16977158442
16977164179
16977170893
16977177119
16977183772
16977189631
16977196040
16977200251
16977205744
16977211726
16977217097
16977222590
16977228816
16977233637
16977240534
16977245356
16977250666
16977255793
16977261347
16977264094
16977271784
16977280573
16977287226
16977294245
16977300715
16977307062
16977313776
16977320124
16977325922
16977331659
16977336542
16977341486
16977346552
16977351496
16977356318
16977361445
16977366938
16977371698
16977376154
16977381281
16977386164
16977390986
16977395563
16977400873
16977405817
16977410944
16977416681
16977421259
16977427362
16977431086
16977436273
16977441584
16977447382
16977454645
16977459528
16977464960
16977469538
16977475702
16977480463
16977486383
16977489862
16977496759
16977501642
16977508356
16977513971
16977519647
16977526239
16977533441
16977539484
16977544855
16977551447
16977557428
16977564264
16977569696
16977576166
16977580621
16977586359
16977591119
16977597223
16977602045
16977608453
16977613275
16977618158
16977626825
16977631769
16977638971
16977644159
16977648797
16977655267
16977661920
16977667230
16977672784
16977678399
16977684747
16977691949
16977697503
16977704034
16977712091
16977719293
16977724847
16977730157
16977737176
16977742059
16977748040
16977753472
16977758966
16977762689
16977768609
16977774774
16977780267
16977785089
16977789910
16977796258
16977800103
16977806634
16977810906
16977816216
16977819024
16977827447
16977832146
16977839227
16977844170
16977849847
16977855889
16977861016
16977865472
16977871880
16977876275
16977883599
16977888665
16977893670
16977900689
16977907464
16977912408
16977918633
16977923638
16977931634
16977936638
16977942376
16977948479
16977955010
16977960076
16977967339
16977972161
16977977288
16977983208
16977990471
16977998101
16978004265
16978012139
16978018242
16978028923
16978035454
16978040215
16978048088
16978051445
16978057976
16978062126
16978068108
16978073906
16978079521
16978086235
16978090752
16978096550
16978101616
16978106255
16978111321
16978117424
16978122124
16978129509
16978133842
16978139702
16978144096
16978150505
16978155998
16978160881
16978166435
16978173820
16978179619
16978184746
16978192924
16978199272
16978205009
16978208305
16978221184
16978228020
16978234489
16978240715
16978245964
16978251396
16978259636
16978265190
16978272941
16978280632
16978286857
16978292167
16978298210
16978304985
16978311943
16978320060
16978327446
16978333061
16978342033
16978348503
16978354484
16978359245
16978363639
16978371025
16978375358
16978381584
16978387321
16978390861
16978396232
16978401908
16978407462
16978411674
16978417472
16978422111
16978427055
16978431449
16978440726
16978447196
16978452079
16978458182
16978463554
16978468681
16978472770
16978477347
16978481681
16978486808
16978492484
16978497306
16978501761
16978506583
16978513663
16978518973
16978522635
16978532157
16978537467
16978543509
16978548209
16978554435
16978558646
16978563895
16978570121
16978577262
16978582755
16978587943
16978593253
16978597403
16978603446
16978608084
16978614615
16978620658
16978626578
16978631217
16978635916
16978642203
16978646720
16978652945
16978658743
16978663016
16978669669
16978674124
16978679984
16978686026
16978690115
16978696158
16978701651
16978708914
16978714163
16978718436
16978723563
16978730032
16978735281
16978739981
16978744131
16978752554
16978758047
16978763174
16978768545
16978773794
16978779288
16978785025
16978787955
16978797842
16978803091
16978808706
16978814078
16978820486
16978826040
16978832205
16978839346
16978847281
16978856070
16978860281
16978866690
16978870657
16978877249
16978881094
16978886282
16978892691
16978897634
16978902456
16978907217
16978911795
16978917044
16978920828
16978926931
16978932363
16978937307
16978941458
16978947988
16978952749
16978958975
16978963003
16978970022
16978974294
16978980520
16978984792
16978990103
16978996511
16979001455
16979006216
16979012258
16979017934
16979022756
16979028738
16979033620
16979038381
16979043752
16979048757
16979055410
16979062368
16979069265
16979074819
16979079946
16979085561
16979090627
16979096548
16979101064
16979108388
16979115468
16979119680
16979124135
16979131765
16979136342
16979141347
16979148549
16979155263
16979160817
16979166127
16979176198
16979180227
16979188222
16979193044
16979198903
16979204580
16979212819
16979217458
16979224660
16979230275
16979235951
16979238942
16979246388
16979250661
16979257619
16979262502
16979270009
16979274892
16979279469
16979286366
16979291921
16979297231
16979301564
16979310719
16979316335
16979321950
16979324818
16979332082
16979336964
16979344594
16979347707
16979355031
16979362294
16979366444
16979373341
16979377675
16979384144
16979389760
16979395070
16979403676
16979409779
16979417653
16979426747
16979435597
16979442982
16979450306
16979456715
16979464894
16979468007
16979476185
16979481556
16979487233
16979492054
16979499379
16979505360
16979509510
16979514881
16979520253
16979525990
16979532460
16979537953
16979544483
16979550587
16979555165
16979559620
16979565296
16979571400
16979575855
16979583119
16979588368
16979593861
16979599049
16979605274
16979609303
16979614674
16979619923
16979626575
16979632191
16979638355
16979643543
16979650501
16979655811
16979664478
16979668873
16979675342
16979681629
16979688709
16979694141
16979700062
16979704822
16979711292
16979717274
16979723743
16979728626
16979733875
16979742176
16979748157
16979753650
16979757373
16979763782
16979771228
16979775867
16979781238
16979788196
16979794239
16979801075
16979806140
16979811634
16979819263
16979823719
16979830005
16979836536
16979845447
16979850086
