16877577887
16877583502
16877588995
16877594183
16877599676
16877604559
16877609564
16877615362
16877620977
16877625616
16877630499
16877634832
16877640325
16877645086
16877649175
16877654608
16877660223
16877665777
16877670049
16877675665
16877681219
16877687078
16877692205
16877696905
16877703741
16877709234
16877715948
16877722417
16877727911
16877734808
16877743963
16877752569
16877758184
16877767461
16877776067
16877783819
16877791814
16877799627
16877806341
16877813604
16877822271
16877829046
16877834234
16877844426
16877853765
16877859136
16877865850
16877870732
16877878423
16877884465
16877890752
16877897283
16877903020
16877909368
16877915471
16877921147
16877925725
16877932683
16877937566
16877945378
16877950261
16877956914
16877962102
16877968572
16877972295
16877978948
16877985478
16877991399
16877995671
16878003239
16878010197
16878014714
16878022588
16878027348
16878036015
16878041508
16878047734
16878054448
16878061345
16878066472
16878072575
16878077763
16878084111
16878091130
16878096135
16878103520
16878109013
16878114201
16878121159
16878127141
16878133793
16878139470
16878145390
16878152470
16878157475
16878163700
16878170292
16878177372
16878183659
16878190068
16878196598
16878202458
16878206852
16878213932
16878222416
16878228520
16878235539
16878240483
16878246403
16878253117
16878259159
16878266239
16878270512
16878279728
16878286015
16878293583
16878302311
16878308414
16878316593
16878324955
16878332218
16878341556
16878347965
16878359562
16878366764
16878374393
16878381656
16878387028
16878393986
16878399235
16878406131
16878411747
16878418766
16878424320
16878432010
16878438297
16878445316
16878451358
16878457767
16878461307
16878469669
16878477237
16878484439
16878491703
16878497928
16878503971
16878511112
16878517215
16878522464
16878531192
16878537174
16878544071
16878549625
16878556766
16878562320
16878570072
16878577029
16878584720
16878589420
16878596683
16878603763
16878609134
16878616153
16878623660
16878630557
16878636356
16878643314
16878651187
16878657046
16878663272
16878670230
16878676944
16878683230
16878689578
16878696597
16878702762
16878708682
16878715884
16878721194
16878730410
16878736575
16878744143
16878749820
16878755862
16878764285
16878770755
16878778201
16878788027
16878794497
16878801943
16878808291
16878816592
16878825259
16878832156
16878840151
16878847476
16878854556
16878860659
16878869448
16878875430
16878885622
16878892092
16878900210
16878907351
16878914553
16878923830
16878930788
16878937136
16878947634
16878956362
16878962954
16878971621
16878980593
16878989321
16878996401
16879007692
16879014956
16879019655
16879023623
16879029665
16879034853
16879038637
16879044680
16879051088
16879056581
16879062136
16879068117
16879072878
16879078676
16879083864
16879090395
16879096132
16879101686
16879106935
16879111757
16879115297
16879123476
16879126955
16879132631
16879138063
16879144289
16879150942
16879155946
16879160219
16879166261
16879170351
16879176943
16879181642
16879188051
16879195009
16879200746
16879205202
16879211000
16879215334
16879222047
16879227724
16879233095
16879239809
16879244142
16879248842
16879254457
16879259218
16879265687
16879270631
16879276002
16879280458
16879286256
16879290834
16879296022
16879300721
16879307008
16879312257
16879318239
16879323976
16879329164
16879335206
16879341676
16879347718
16879355409
16879362367
16879368837
16879372743
16879381654
16879388063
16879393678
16879399354
16879406983
16879413575
16879421327
16879427674
16879433534
16879439027
16879445252
16879450196
16879456117
16879461732
16879466493
16879472718
16879477479
16879481202
16879489625
16879495118
16879502686
16879506532
16879514588
16879519044
16879526734
16879533753
16879539612
16879545655
16879556092
16879562012
16879569459
16879575074
16879582276
16879588440
16879593567
16879601807
16879607605
16879613770
16879618897
16879623352
16879629395
16879633728
16879637940
16879644715
16879649231
16879654908
16879660889
16879665711
16879670594
16879677430
16879682129
16879690735
16879695740
16879702454
16879706970
16879712708
16879718140
16879723023
16879728638
16879734986
16879739502
16879746094
16879751892
16879755737
16879762573
16879768982
16879775879
16879782715
16879789185
16879792969
16879799744
16879804749
16879811707
16879817932
16879823852
16879828674
16879834595
16879839722
16879844055
16879851318
16879857239
16879862243
16879867981
16879874206
16879878784
16879885437
16879890747
16879896911
16879902160
16879907776
16879912780
16879920532
16879925110
16879933471
16879939270
16879945007
16879949890
16879955932
16879961181
16879967773
16879974731
16879981994
16879988525
16879994384
16880000305
16880004333
16880010192
16880015930
16880023010
16880029113
16880034667
16880040832
16880047363
16880052184
16880057006
16880061706
16880067016
16880072265
16880079040
16880085754
16880090820
16880094421
16880100524
16880107360
16880114806
16880122314
16880127685
16880134399
16880142455
16880149230
16880154784
16880162292
16880168334
16880174010
16880183104
16880188353
16880196044
16880204345
16880210631
16880219115
16880226561
16880232604
16880240722
16880249388
16880256408
16880262389
16880271849
16880277953
16880286742
16880295348
16880302001
16880309996
16880317443
16880323302
16880331297
16880336669
16880346434
16880352477
16880361449
16880367247
16880376219
16880382384
16880388060
16880397765
16880405455
16880411742
16880419615
16880427489
16880435484
16880441527
16880448973
16880456663
16880463743
16880471068
16880477904
16880486021
16880492613
16880501341
16880508177
16880517027
16880523558
16880531004
16880536924
16880546446
16880552427
16880559813
16880567686
16880575804
16880581968
16880590330
16880598265
16880605650
16880613340
16880621275
16880627500
16880635801
16880643614
16880648435
16880657346
16880665098
16880672727
16880680051
16880689329
16880696592
16880705808
16880713377
16880720945
16880727598
16880737974
16880745176
16880754026
16880760740
16880769407
16880775998
16880785093
16880791318
16880801633
16880808042
16880816526
16880825681
16880832395
16880838681
16880847409
16880856809
16880865354
16880872617
16880882444
16880890378
16880899350
16880907224
16880916440
16880923032
16880936887
16880943845
16880954892
16880960507
16880971005
16880978696
16880985226
16880991940
16881001828
16881008664
16881015988
16881022824
16881031613
16881038388
16881046628
16881053280
16881061459
16881067502
16881075741
16881085934
16881097348
16881106076
16881118954
16881129086
16881139645
16881150143
16881160519
16881170651
16881178646
16881190548
16881201596
16881210568
16881219601
16881228085
16881236935
16881246639
16881256649
16881267025
16881278500
16881288509
16881297787
16881308285
16881317745
16881327206
16881339046
16881348263
16881359005
16881368770
16881374141
16881387142
16881396541
16881405574
16881416622
16881426448
16881434139
16881443843
16881454402
16881461910
16881471126
16881480770
16881491451
16881502315
16881509639
16881519954
16881529964
16881538020
16881548030
16881560237
16881570003
16881576961
16881587581
16881596980
16881606319
16881618404
16881627437
16881640864
16881651179
16881661433
16881671199
16881681270
16881693171
16881701106
16881712520
16881719050
16881727229
16881737056
16881744990
16881752803
16881761470
16881772944
16881786250
16881796443
16881805598
16881815363
16881825373
16881833735
16881845454
16881853144
16881861933
16881869807
16881876460
16881884272
16881890925
16881900141
16881908137
16881917231
16881922236
16881929987
16881937189
16881946955
16881954706
16881962092
16881968744
16881979487
16881988398
16881995600
16882002924
16882011164
16882018854
16882026178
16882034540
16882043512
16882051569
16882059809
16882067926
16882076471
16882084894
16882093439
16882101862
16882110040
16882114191
16882124994
16882134943
16882143121
16882151849
16882160333
16882168390
16882174921
16882184015
16882193903
16882201837
16882210626
16882218378
16882226617
16882235712
16882242425
16882251092
16882261163
16882267938
16882279291
16882285516
16882296563
16882303155
16882310968
16882321710
16882328485
16882336236
16882344842
16882352716
16882361871
16882370111
16882378656
16882388726
16882396600
16882404473
16882413934
16882422784
16882430718
16882437249
16882447564
16882455438
16882463372
16882468255
16882473748
16882478509
16882483575
16882490166
16882494561
16882500542
16882505181
16882513177
16882518609
16882524285
16882533990
16882539971
16882546746
16882551018
16882557061
16882561944
16882565911
16882571038
16882576226
16882579949
16882585137
16882589653
16882594048
16882599114
16882603264
16882608818
16882613274
16882617669
16882623101
16882628045
16882632927
16882638726
16882643608
16882650811
16882654229
16882659233
16882664177
16882668999
16882673638
16882678459
16882684014
16882687676
16882691155
16882697502
16882702202
16882706963
16882711662
16882715325
16882721672
16882727165
16882731072
16882734978
16882740776
16882745537
16882752373
16882756706
16882763359
16882768364
16882774406
16882779594
16882784599
16882790092
16882795952
16882799614
16882805962
16882811943
16882815971
16882821525
16882827202
16882831962
16882838005
16882841423
16882849357
16882855461
16882860344
16882863884
16882870964
16882874992
16882882805
16882886711
16882894035
16882897575
16882903740
16882908806
16882915519
16882921501
16882925895
16882930290
16882936821
16882941581
16882948295
16882952995
16882960075
16882966056
16882971977
16882976676
16882981681
16882993827
16882999931
16883008720
16883017387
16883025810
16883032218
16883041374
16883049857
16883059501
16883066459
16883075919
16883081657
16883092277
16883099723
16883108573
16883116080
16883123099
16883129935
16883138114
16883144279
16883151542
16883159354
16883166068
16883172355
16883180961
16883187369
16883195121
16883201285
16883209708
16883216605
16883222709
16883232901
16883239798
16883246573
16883255179
16883261832
16883270804
16883277457
16883284354
16883291251
16883302542
16883310904
16883319510
16883327445
16883336051
16883340811
16883349905
16883356802
16883365530
16883372305
16883380240
16883386954
16883395743
16883402273
16883409354
16883418570
16883427176
16883434012
16883443838
16883450552
16883457876
16883464651
16883471853
16883480459
16883488028
16883493948
16883502493
16883508535
16883517324
16883523611
16883531790
16883539724
16883545767
16883554129
16883562368
16883568777
16883576528
16883584280
16883592153
16883598684
16883605398
16883614553
16883621328
16883629019
16883635915
16883644766
16883652334
16883661062
16883667837
16883677969
16883685171
16883693410
16883702077
16883709035
16883715139
16883723501
16883732473
16883738820
16883747487
16883753896
16883762807
16883770376
16883778310
16883784536
16883792714
16883802297
16883808522
16883817189
16883823598
16883832692
16883841176
16883848745
16883857106
16883866628
16883875478
16883882436
16883891774
16883899709
16883907277
16883914967
16883921559
16883930348
16883937245
16883943410
16883949941
16883957143
16883964711
16883971425
16883981190
16883986562
16883994008
16884002248
16884010121
16884016652
16884025624
16884034230
16884042225
16884052052
16884060170
16884067006
16884074757
16884083180
16884090199
16884096302
16884104847
16884113392
16884121388
16884128163
16884134999
16884143299
16884150013
16884156361
16884165272
16884173085
16884181263
16884187123
16884195240
16884202748
16884216847
16884224903
16884235706
16884244373
16884252674
16884260242
16884269093
16884277210
16884283192
16884291492
16884300098
16884307728
16884314075
16884322437
16884328480
16884337208
16884343250
16884355274
16884361316
16884370228
16884375049
16884379688
16884388111
16884390247
16884398670
16884403919
16884409717
16884413196
16884422290
16884425830
16884432178
16884437000
16884442859
16884448535
16884453479
16884459217
16884464038
16884469715
16884475757
16884479480
16884488513
16884492969
16884501575
16884505298
16884511768
16884517749
16884525073
16884530444
16884535632
16884541919
16884550769
16884554370
16884561877
16884566455
16884576099
16884583423
16884589282
16884596789
16884605029
16884610339
16884615710
16884621875
16884626880
16884631640
16884635791
16884641833
16884645740
16884651233
16884655078
16884660998
16884665393
16884670337
16884674670
16884681140
16884687060
16884692492
16884697558
16884703112
16884709643
16884715747
16884720629
16884726611
16884731616
16884737414
16884744067
16884749987
16884754870
16884760852
16884766833
16884769763
16884777575
16884784411
16884790209
16884797228
16884801928
16884807971
16884813464
16884820544
16884827013
16884832995
16884838427
16884842455
16884850634
16884854723
16884861681
16884868212
16884876086
16884880724
16884888293
16884891772
16884897265
16884902087
16884908312
16884912218
16884920153
16884923998
16884930102
16884935717
16884940478
16884945788
16884950609
16884956347
16884962816
16884969530
16884974901
16884981188
16884987047
16884993761
16884999559
16885003283
16885013659
16885019518
16885024706
16885031420
16885038011
16885040270
16885051073
16885057054
16885064928
16885071947
16885076830
16885083299
16885088610
16885095567
16885100023
16885105394
16885111559
16885117723
16885123766
16885129991
16885137315
16885142076
16885149339
16885154283
16885163622
16885172227
16885178087
16885183946
16885189195
16885196092
16885200487
16885207628
16885214220
16885219163
16885223375
16885228929
16885234910
16885240892
16885245592
16885252550
16885258348
16885263170
16885268663
16885273851
16885279344
16885283494
16885290696
16885297532
16885301744
16885309251
16885313951
16885317674
16885324327
16885329881
16885335801
16885340318
16885347276
16885351976
16885358323
16885361924
16885369187
16885375474
16885381211
16885385118
16885391709
16885396653
16885402390
16885408982
16885414231
16885418687
16885424485
16885430833
16885438035
16885444016
16885449265
16885454026
16885460191
16885466782
16885470261
16885476487
16885482774
16885489670
16885494614
16885500474
16885505479
16885512376
16885518052
16885522751
16885529221
16885534470
16885539902
16885545518
16885550583
16885558091
16885566575
16885573655
16885582383
16885588791
16885598923
16885605759
16885615525
16885621994
16885630905
16885639756
16885645676
16885653244
16885661606
16885669724
16885676743
16885685593
16885693039
16885700180
16885709335
16885716354
16885722946
16885733444
16885743759
16885752304
16885762009
16885769638
16885778732
16885785019
16885793625
16885803879
16885814438
16885821884
16885831528
16885839462
16885846969
16885854904
16885864608
16885875229
16885883835
16885892990
16885898483
16885906845
16885914840
16885920578
16885928146
16885936325
16885941146
16885950729
16885958419
16885965255
16885972152
16885981613
16885989242
16885996749
16886004501
16886011825
16886018417
16886026901
16886033736
16886041549
16886048568
16886058028
16886064742
16886072311
16886078353
16886087203
16886092940
16886100997
16886106978
16886115523
16886123580
16886131270
16886139083
16886145736
16886153609
16886159285
16886168136
16886173446
16886185164
16886190841
16886200301
16886208785
16886214766
16886222213
16886246199
16886253585
16886261580
16886269332
16886277388
16886282027
16886291976
16886300154
16886308333
16886316023
16886322920
16886329634
16886336592
16886345259
16886352278
16886358382
16886367293
16886376753
16886383528
16886390059
16886399519
16886408308
16886415144
16886423933
16886433821
16886440413
16886449141
16886455549
16886464094
16886471418
16886478865
16886487593
16886495161
16886506208
16886513655
16886521833
16886528364
16886537519
16886544233
16886553205
16886559858
16886569319
16886578535
16886584516
16886593427
16886602278
16886610395
16886618208
16886627668
16886636701
16886647199
16886657331
16886665754
16886671857
16886681989
16886688337
16886697736
16886705549
16886713605
16886721723
16886727704
16886735395
16886742719
16886749677
16886759382
16886767133
16886776227
16886781232
16886789960
16886796979
16886805097
16886811872
16886821393
16886828168
16886835614
16886842755
16886852399
16886859540
16886867658
16886874555
16886882428
16886888532
16886897199
16886906110
16886912335
16886920392
16886928021
16886936261
16886943036
16886951031
16886958722
16886966595
16886974530
16886981061
16886984662
16886992352
16886996014
16887005414
16887009137
16887016400
16887023236
16887029156
16887033063
16887038922
16887044171
16887051739
16887056561
16887062909
16887067425
16887072186
16887079022
16887084515
16887090558
16887096478
16887102154
16887109295
16887115887
16887120221
16887127789
16887132855
16887138836
16887145306
16887151226
16887155865
16887162640
16887168072
16887172589
16887181011
16887186321
16887191876
16887198040
16887203411
16887210247
16887215923
16887219769
16887226971
16887233807
16887239544
16887244427
16887250713
16887258831
16887265240
16887270672
16887277019
16887281963
16887288372
16887293255
16887298504
16887304546
16887311260
16887319073
16887324810
16887331402
16887338421
16887343242
16887351055
16887357891
16887362774
16887373394
16887379863
16887384746
16887390117
16887395000
16887400676
16887405498
16887413189
16887420024
16887425457
16887430950
16887438213
16887444072
16887449016
16887454692
16887460308
16887467449
16887473857
16887479411
16887484477
16887489238
16887495708
16887501628
16887509197
16887515727
16887520000
16887526592
16887531780
16887538249
16887542094
16887548808
16887555583
16887561992
16887565776
16887573222
16887578410
16887583842
16887588420
16887595561
16887601359
16887608073
16887613872
16887619548
16887625529
16887629313
16887635722
16887641520
16887647685
16887653483
16887659343
16887667155
16887673869
16887679362
16887684611
16887691020
16887696330
16887702800
16887709819
16887714640
16887722148
16887727030
16887733439
16887737773
16887744120
16887750529
16887754496
16887761271
16887767192
16887773478
16887778971
16887784586
16887791178
16887796122
16887801005
16887810160
16887815409
16887822611
16887826945
16887831156
16887838786
16887843546
16887850382
16887856120
16887862833
16887866556
16887875040
16887879313
16887885050
16887890421
16887897379
16887902567
16887908060
16887913370
16887919901
16887925150
16887932169
16887937723
16887945048
16887951639
16887959940
16887966532
16887972208
16887980204
16887985025
16887991922
16887997904
16888003946
16888008951
16888013407
16888020975
16888027140
16888032083
16888037332
16888043741
16888049845
16888055033
16888060709
16888065653
16888072672
16888077310
16888082620
16888088480
16888095865
16888101724
16888107217
16888110513
16888116922
16888122049
16888128030
16888133829
16888139993
16888145975
16888151407
16888157632
16888162515
16888168863
16888174173
16888179666
16888187112
16888193155
16888202127
16888208291
16888218423
16888227762
16888234414
16888240640
16888251626
16888257730
16888268228
16888274087
16888283853
16888289041
16888299844
16888308938
16888315957
16888323220
16888332376
16888340066
16888347756
16888354287
16888364114
16888370461
16888379250
16888388101
16888395547
16888404275
16888410500
16888418313
16888426919
16888436074
16888445168
16888451760
16888459084
16888469582
16888474709
16888483498
16888489968
16888499184
16888508645
16888515725
16888524270
16888531655
16888538430
16888548623
16888556374
16888564797
16888570900
16888577614
16888586525
16888594155
16888601418
16888608376
16888616616
16888624001
16888632363
16888641152
16888651711
16888657082
16888668801
16888677223
16888685463
16888692299
16888700905
16888710610
16888719276
16888728859
16888735695
16888744179
16888751015
16888758583
16888765907
16888775307
16888781959
16888791237
16888797767
16888805519
16888812050
16888821510
16888828224
16888838051
16888844887
16888854469
16888859291
16888869239
16888874183
16888883766
16888891029
16888900672
16888905433
16888915321
16888923378
16888929481
16888936439
16888943763
16888951332
16888959876
16888965797
16888973853
16888978553
16888988502
16888993934
16889001991
16889012611
16889018897
16889026649
16889034583
16889042335
16889048682
16889057288
16889067176
16889074195
16889081275
16889090735
16889098243
16889106544
16889114844
16889121131
16889126197
16889137916
16889146033
16889152198
16889160987
16889166907
16889174048
16889182105
16889192603
16889199561
16889209143
16889216162
16889223059
16889231726
16889238928
16889245703
16889254981
16889262854
16889272009
16889279395
16889287329
16889293921
16889299963
16889311255
16889317481
16889327490
16889333655
16889342078
16889350378
16889358496
16889367224
16889374121
16889381628
16889389746
16889399389
16889406164
16889412817
16889423315
16889430823
16889437536
16889448828
16889460058
16889470678
16889479406
16889484655
16889495520
16889503759
16889510900
16889517492
16889527197
16889534765
16889541723
16889549475
16889555822
16889562719
16889570349
16889579138
16889585546
16889594091
16889600927
16889607458
16889614416
16889618932
16889623937
16889630224
16889635351
16889639928
16889644262
16889653234
16889657934
16889664587
16889669469
16889674596
16889680028
16889684972
16889690893
16889696813
16889702672
16889708105
16889711645
16889717565
16889723668
16889731237
16889736425
16889740819
16889746862
16889751073
16889757726
16889762731
16889769017
16889771276
16889781041
16889785680
16889791600
16889798619
16889803868
16889809728
16889814061
16889820592
16889829381
16889835668
16889840489
16889845128
16889852513
16889857945
16889863744
16889869847
16889872045
16889882604
16889887120
16889892247
16889898045
16889904942
16889910313
16889915440
16889922398
16889928441
16889934544
16889939793
16889946385
16889952000
16889959080
16889964513
16889969517
16889975743
16889982762
16889989354
16889995824
16890001195
16890008641
16890013096
16890020482
16890027073
16890035191
16890041173
16890047642
16890052891
16890059300
16890064549
16890069737
16890078221
16890081517
16890093418
16890097874
16890105381
16890113926
16890119236
16890126438
16890131993
16890139500
16890150913
16890157017
16890161350
16890166172
16890170750
16890176853
16890181614
16890188084
16890192722
16890198948
16890203770
16890208408
16890216953
16890221592
16890226292
16890232273
16890237583
16890244114
16890249973
16890256870
16890263828
16890270542
16890276401
16890282932
16890288120
16890294346
16890300205
16890306064
16890311619
16890316929
16890320713
16890328159
16890334446
16890339084
16890344272
16890350254
16890354160
16890361240
16890366489
16890372470
16890376316
16890383396
16890389011
16890394687
16890400058
16890405857
16890411167
16890415683
16890421909
16890426120
16890432590
16890437534
16890443881
16890447483
16890453647
16890457126
16890464755
16890468051
16890474704
16890480747
16890485141
16890490939
16890495212
16890501010
16890506564
16890511996
16890516330
16890522556
16890529208
16890533725
16890539706
16890543857
16890549533
16890555698
16890559970
16890567721
16890572421
16890579745
16890586642
16890594089
16890600986
16890606112
16890611789
16890619174
16890623202
16890631442
16890635287
16890643527
16890648227
16890656588
16890665133
16890671115
16890676669
16890684420
16890690341
16890696627
16890704196
16890710238
16890715487
16890720126
16890726412
16890731967
16890737094
16890741976
16890748568
16890753756
16890760958
16890765170
16890771578
16890776461
16890786044
16890793795
16890799777
16890806612
16890816927
16890821993
16890829928
16890836581
16890845736
16890852511
16890861300
16890867953
16890877657
16890884188
16890892672
16890899447
16890907686
16890914278
16890924349
16890931429
16890941439
16890947970
16890956698
16890963350
16890972261
16890980867
16890986177
16890996492
16891005464
16891013521
16891020906
16891029268
16891036592
16891045381
16891052095
16891062288
16891069551
16891078523
16891087129
16891095430
16891102205
16891108431
16891117586
16891122408
16891132234
16891139741
16891146883
16891154573
16891163667
16891171602
16891177766
16891184541
16891193757
16891201387
16891211030
16891218599
16891225313
16891232942
16891239961
16891247529
16891255525
16891264741
16891272676
16891280732
16891287812
16891296968
16891303743
16891312532
16891320893
16891330903
16891337434
16891344087
16891352998
16891360322
16891368623
16891375642
16891383820
16891396699
16891407197
16891413850
16891422028
16891430756
16891435761
16891446442
16891455353
16891465729
16891472932
16891481965
16891490571
16891496674
16891505341
16891511323
16891519257
16891527375
16891531952
16891542878
16891551056
16891557770
16891565522
16891573212
16891580292
16891590546
16891596283
16891605194
16891610138
16891620453
16891625153
16891635651
16891640412
16891651093
16891658661
16891665253
16891671967
16891681427
16891689301
16891695953
16891702728
16891712433
16891719391
16891728058
16891735321
16891742401
16891748444
16891756683
16891765716
16891773346
16891779449
16891788299
16891797027
16891803924
16891813080
16891819244
16891829315
16891838165
16891844696
16891853058
16891861724
16891870025
16891878204
16891883331
16891893035
16891900604
16891910369
16891917816
16891926666
16891933929
16891942901
16891950164
16891959869
16891969146
16891977813
16891983062
16891993804
16891998992
16892008941
16892016936
16892024322
16892032684
16892041900
16892048125
16892057830
16892066192
16892072845
16892081389
16892090362
16892100493
16892110015
16892119353
16892128020
16892134734
16892143828
16892149138
16892160430
16892165801
16892176909
16892182097
16892193022
16892197722
16892206511
16892210601
16892221099
16892226226
16892236907
16892242827
16892248198
16892256011
16892262297
16892269316
16892275786
16892281828
16892286589
16892292143
16892296599
16892300749
16892306548
16892311552
16892316924
16892321135
16892327177
16892332243
16892338469
16892344145
16892350249
16892356108
16892363554
16892367827
16892375212
16892380705
16892386564
16892391936
16892396940
16892401701
16892406950
16892411406
16892417204
16892422087
16892427580
16892432829
16892439238
16892443998
16892451201
16892458220
16892464079
16892468595
16892475309
16892480375
16892486906
16892493620
16892499723
16892506864
16892511564
16892518644
16892522550
16892531645
16892536039
16892542692
16892548307
16892555937
16892561735
16892567045
16892570890
16892579374
16892584684
16892590543
16892595731
16892603178
16892608183
16892614347
16892621671
16892627103
16892631925
16892635953
16892645353
16892652616
16892657804
16892663907
16892668668
16892673978
16892679532
16892683195
16892690397
16892696683
16892702604
16892707181
16892713529
16892720365
16892725858
16892732450
16892739896
16892744901
16892751493
16892755338
16892762906
16892769681
16892777860
16892784452
16892791043
16892796537
16892806607
16892814237
16892818753
16892827970
16892834561
16892840543
16892849088
16892856046
16892861478
16892868741
16892873074
16892877835
16892882169
16892888028
16892892911
16892899075
16892906216
16892912259
16892918423
16892923795
16892928189
16892934415
16892939664
16892945035
16892950772
16892957486
16892962002
16892968472
16892974026
16892979947
16892985196
16892991116
16892996914
16893003567
16893009793
16893015286
16893020352
16893025479
16893032254
16893036038
16893042080
16893046597
16893051968
16893057217
16893063076
16893066494
16893071743
16893077298
16893082913
16893086270
16893091275
16893098599
16893103665
16893107998
16893114834
16893119107
16893124539
16893129544
16893133816
16893140896
16893147915
16893152554
16893156948
16893162624
16893168545
16893173977
16893178860
16893187649
16893193691
16893200100
16893205288
16893210415
16893215603
16893224087
16893229946
16893235500
16893241360
16893247097
16893251736
16893257046
16893262966
16893269008
16893276943
16893281460
16893288112
16893292812
16893299099
16893303798
16893311550
16893316189
16893321865
16893328579
16893333889
16893338283
16893345852
16893355556
16893367397
16893378444
16893388881
16893397548
16893405422
16893417324
16893423427
16893435817
16893444118
16893453517
16893462856
16893468959
16893477443
16893486293
16893494594
16893504482
16893512904
16893520717
16893528590
16893537929
16893545619
16893553004
16893561793
16893569240
16893579127
16893587489
16893594813
16893601466
16893608485
16893615687
16893624659
16893632106
16893640773
16893647853
16893656764
16893664210
16893671351
16893678553
16893687281
16893694361
16893703578
16893710719
16893718959
16893723292
16893732936
16893737635
16893749232
16893757777
16893763636
16893771754
16893779261
16893787806
16893794154
16893802210
16893810389
16893818812
16893827723
16893834864
16893841090
16893850001
16893858118
16893867457
16893873743
16893881800
16893890772
16893899317
16893905970
16893916102
16893923487
16893930811
16893940760
16893949060
16893956568
16893964441
16893970789
16893980127
16893988916
16893994654
16894003626
16894011927
16894020960
16894027063
16894036035
16894042383
16894051233
16894058740
16894067835
16894076196
16894083460
16894092859
16894099878
16894110254
16894118188
16894126733
16894134363
16894144372
16894151819
16894162439
16894171167
16894182336
16894193994
16894200281
16894215539
16894224084
16894233423
16894241906
16894248315
16894256555
16894265039
16894273461
16894279687
16894288354
16894297082
16894304467
16894311242
16894319543
16894326318
16894335351
16894342736
16894350793
16894358544
16894366296
16894374658
16894382775
16894391259
16894400353
16894408227
16894414330
16894423791
16894429589
16894439355
16894446435
16894456811
16894464440
16894472069
16894482567
16894489525
16894496483
16894506066
16894513146
16894522484
16894529320
16894537987
16894547997
16894554161
16894561303
16894570885
16894579247
16894589196
16894594750
16894604393
16894612084
16894621666
16894629296
16894638939
16894647789
16894656639
16894665062
16894673546
16894678856
16894689598
16894694725
16894705162
16894713890
16894718956
16894724510
16894730492
16894735802
16894740990
16894746483
16894753075
16894757042
16894764183
16894770347
16894776085
16894780784
16894787803
16894793785
16894799888
16894806663
16894813804
16894817772
16894824852
16894830406
16894836082
16894842003
16894846275
16894853538
16894858055
16894865440
16894869895
16894876304
16894882408
16894888755
16894894737
16894903770
16894908958
16894915306
16894921531
16894928550
16894934532
16894940330
16894947898
16894952659
16894957359
16894961753
16894967124
16894971763
16894976585
16894982688
16894988853
16894994407
16894999290
16895004234
16895010215
16895014182
16895020408
16895026511
16895031028
16895038108
16895043906
16895052817
16895057883
16895063437
16895068381
16895074668
16895081382
16895087790
16895095176
16895099753
16895106345
16895111716
16895117331
16895122825
16895127097
16895135520
16895141623
16895147666
16895153708
16895158530
16895164634
16895169638
16895173911
16895180197
16895186362
16895191916
16895196250
16895202353
16895209067
16895214743
16895220358
16895225974
16895232810
16895238730
16895244162
16895250693
16895255637
16895262167
16895267477
16895274741
16895279868
16895285971
16895291159
16895298422
16895303793
16895309531
16895315634
16895322897
16895328329
16895333517
16895338400
16895344137
16895349203
16895356283
16895363241
16895370077
16895376608
16895384298
16895390646
16895396383
16895401999
16895408102
16895414938
16895419394
16895426107
16895430441
16895435812
16895441549
16895447531
16895454550
16895461264
16895469564
16895475668
16895481100
16895487936
16895494223
16895503683
16895508383
16895515463
16895521505
16895530355
16895534750
16895539572
16895546285
16895553243
16895558431
16895563558
16895569540
16895573446
16895581014
16895584493
16895591573
16895598165
16895603353
16895609090
16895613302
16895618856
16895624166
16895629354
16895634725
16895641561
16895646688
16895652364
16895656637
16895663534
16895668477
16895675191
16895681112
16895686849
16895691854
16895698568
16895702047
16895707540
16895713643
16895719625
16895724630
16895730428
16895735250
16895740987
16895747701
16895753072
16895758565
16895763631
16895768758
16895774617
16895779378
16895785665
16895792440
16895797627
16895803060
16895807576
16895812581
16895820333
16895826253
16895832906
16895836507
16895844075
16895850240
16895856221
16895866292
16895872945
16895878987
16895889424
16895898396
16895904988
16895914876
16895920918
16895930745
16895938924
16895947346
16895953755
16895962117
16895970479
16895978535
16895985554
16895995320
16896004353
16896013325
16896022480
16896030171
16896039936
16896046162
16896055561
16896066181
16896072956
16896077900
16896090046
16896099140
16896108235
16896115803
16896127766
16896135578
16896147846
16896159870
16896170246
16896179646
16896191914
16896201862
16896211445
16896219685
16896226215
16896233784
16896240681
16896247578
16896253376
16896261371
16896268574
16896276386
16896283405
16896289753
16896296589
16896303486
16896310871
16896317768
16896326007
16896334613
16896340046
16896349445
16896355732
16896365680
16896371906
16896382221
16896389789
16896398212
16896404865
16896413165
16896420673
16896427204
16896436115
16896442951
16896450641
16896457599
16896466205
16896473285
16896481769
16896489886
16896498309
16896503253
16896513507
16896518939
16896528583
16896536578
16896542377
16896550128
16896557757
16896566424
16896573810
16896582416
16896588336
16896596454
16896604754
16896612262
16896619220
16896627581
16896634295
16896643573
16896650470
16896656878
16896665911
16896671405
16896680682
16896686785
16896695880
16896702838
16896709612
16896718279
16896725115
16896734149
16896742571
16896754046
16896759600
16896770037
16896778338
16896786639
16896791705
16896801653
16896809100
16896818255
16896826128
16896834551
16896839800
16896849566
16896856646
16896866289
16896871782
16896881670
16896894121
16896905108
16896915239
16896923113
16896932695
16896941668
16896951921
16896967180
16896975786
16896983965
16896991716
16896999590
16897008806
16897014665
16897022722
16897030901
16897038591
16897046770
16897054460
16897060808
16897071184
16897078081
16897087053
16897092058
16897101152
16897108232
16897117509
16897126115
16897132890
16897145036
16897151567
16897161027
16897169084
16897177629
16897183976
16897192094
16897200456
16897207475
16897213395
16897223222
16897228410
16897234758
16897239640
16897245011
16897249528
16897255998
16897261064
16897266557
16897269975
16897276750
16897280778
16897287736
16897290971
16897299088
16897303300
16897309709
16897315507
16897321610
16897327165
16897332597
16897337907
16897342545
16897346085
16897353593
16897359696
16897366288
16897368790
16897377885
16897382340
16897389909
16897394303
16897402787
16897410722
16897415543
16897421647
16897426896
16897432633
16897438859
16897443741
16897448502
16897455155
16897460770
16897465592
16897471146
16897477372
16897484574
16897489884
16897496293
16897501725
16897509293
16897513932
16897519974
16897524308
16897531388
16897536209
16897544083
16897549576
16897558243
16897563492
16897570450
16897575150
16897584915
16897592606
16897598404
16897606644
16897611710
16897618424
16897621903
16897628800
16897632095
16897640518
16897645096
16897649429
16897655167
16897659561
16897664993
16897671829
16897676590
16897681717
16897687271
16897692276
16897698441
16897702896
16897708755
16897712784
16897718826
16897724808
16897730667
16897736404
16897740494
16897744339
16897749771
16897753738
16897760513
16897768692
16897773819
16897779190
16897783523
16897788772
16897793533
16897797683
16897805984
16897813553
16897819107
16897825943
16897832046
16897837967
16897842788
16897849014
16897855239
16897860977
16897865554
16897873550
16897879348
16897884109
16897890029
16897895889
16897900772
16897909988
16897914810
16897920791
16897925918
16897931472
16897937331
16897942947
16897947768
16897953079
16897960891
16897964797
16897971877
16897976821
16897983474
16897988479
16897993789
16897998428
16898005813
16898010818
16898018447
16898022842
16898027358
16898035232
16898039382
16898045486
16898051833
16898057876
16898061782
16898069472
16898073134
16898080214
16898085708
16898091567
16898096816
16898104934
16898110000
16898121291
16898126357
16898133620
16898137893
16898143569
16898151137
16898157363
16898163405
16898170119
16898175795
16898183669
16898186843
16898193190
16898198134
16898204299
16898209303
16898215224
16898220168
16898226088
16898230422
16898236586
16898240675
16898247939
16898252882
16898258131
16898262404
16898268263
16898273451
16898278151
16898284254
16898290602
16898296889
16898302016
16898306654
16898312880
16898316969
16898322279
16898328139
16898336256
16898341627
16898347548
16898353346
16898356886
16898364638
16898371596
16898378554
16898385511
16898396315
16898401259
16898410902
16898418104
16898425978
16898433424
16898441297
16898450819
16898458815
16898464796
16898474073
16898479444
16898488600
16898496412
16898504225
16898514051
16898520033
16898527662
16898535719
16898544386
16898550245
16898558180
16898565687
16898574232
16898583021
16898590528
16898596571
16898605726
16898611524
16898619092
16898626844
16898635389
16898644422
16898650831
16898659315
16898667005
16898672620
16898680250
16898689710
16898701429
16898709302
16898717664
16898727796
16898734998
16898742261
16898750074
16898755323
16898767530
16898774304
16898780103
16898788526
16898796582
16898804334
16898813977
16898822644
16898832532
16898839002
16898849439
16898858167
16898867139
16898880811
16898889294
16898902478
16898919507
16898935132
16898944470
16898955823
16898964001
16898972973
16898980969
16898989636
16898996716
16899002209
16899008679
16899018200
16899024487
16899032299
16899038037
16899044934
16899050122
16899059399
16899064282
16899073681
16899081066
16899088818
16899096447
16899101574
16899109203
16899115551
16899124340
16899132092
16899141247
16899149609
16899157116
16899164135
16899171398
16899179882
16899186108
16899193859
16899201244
16899209911
16899218944
16899228039
16899236828
16899242077
16899252270
16899261181
16899267528
16899277538
16899287792
16899295238
16899304454
16899311229
16899321910
16899329174
16899337780
16899346080
16899351207
16899360912
16899368480
16899376903
16899383800
16899390270
16899399486
16899408763
16899415477
16899424693
16899431407
16899439403
16899445567
16899454723
16899463939
16899472728
16899480296
16899488719
16899494945
16899506969
16899515208
16899523753
16899533214
16899541392
16899551036
16899562022
16899570872
16899581248
16899587962
16899598887
16899605540
16899614207
16899621775
16899630076
16899637217
16899646861
16899654734
16899661143
16899670970
16899676524
16899684397
16899691294
16899695933
16899701243
16899707163
16899711619
16899715952
16899722117
16899727183
16899732554
16899737193
16899742442
16899746104
16899751780
16899757639
16899762217
16899767649
16899772837
16899776804
16899782542
16899789072
16899793772
16899800120
16899804575
16899809031
16899813914
16899818674
16899822336
16899828684
16899833872
16899841379
16899846750
16899851877
16899856455
16899861948
16899866037
16899870737
16899874765
16899882090
16899886240
16899892893
16899896494
16899903330
16899908945
16899913462
16899917917
16899926889
16899931955
16899937448
16899942758
16899947824
16899952646
16899958811
16899965097
16899972788
16899977854
16899984384
16899989023
16899994577
16900000437
16900005564
16900010202
16900016611
16900022409
16900026987
16900038644
16900042917
16900049509
16900054208
16900061044
16900065805
16900073312
16900078012
16900086069
16900090707
16900097055
16900100534
16900108407
16900115060
16900120737
16900127084
16900133127
16900140207
16900145944
16900151986
16900160776
16900165841
16900174814
16900179574
16900185983
16900191110
16900197274
16900202157
16900207101
16900213754
16900219979
16900225167
16900229501
16900234506
16900242013
16900246835
16900251901
16900256661
16900267098
16900272164
16900281075
16900286813
16900293099
16900299264
16900306710
16900312631
16900318612
16900323495
16900330331
16900338143
16900343514
16900349618
16900356393
16900361764
16900369088
16900374825
16900382272
16900388253
16900394234
16900401559
16900406502
16900412667
16900419686
16900424264
16900427926
16900434517
16900438241
16900445504
16900451607
16900456124
16900459603
16900468087
16900472298
16900478646
16900482003
16900488594
16900492989
16900498909
16900506905
16900512764
16900516549
16900523201
16900528206
16900533089
16900537606
16900542916
16900547188
16900555001
16900560372
16900566658
16900571297
16900576668
16900582588
16900587776
16900593636
16900600655
16900605599
16900612618
16900617134
16900622933
16900628059
16900634163
16900639534
16900644844
16900651985
16900655952
16900661812
16900668587
16900673775
16900678169
16900684761
16900689278
16900696541
16900703071
16900708259
16900715095
16900723030
16900728096
16900732673
16900740120
16900748176
16900754280
16900762764
16900769172
16900776680
16900781379
16900786445
16900791450
16900798530
16900803047
16900808357
16900812507
16900819038
16900823616
16900828926
16900833747
16900841987
16900848518
16900856330
16900862922
16900870124
16900876350
16900885261
16900890998
16900901313
16900907661
16900916267
16900924018
16900931709
16900940070
16900947456
16900953498
16900963020
16900969489
16900978156
16900984138
16900991584
16900998725
16901005744
16901013862
16901020820
16901029548
16901036750
16901045112
16901052070
16901059333
16901067878
16901074225
16901083075
16901091864
16901098944
16901106635
16901115119
16901122504
16901128791
16901137519
16901144110
16901154975
16901161566
16901170966
16901176703
16901184332
16901192023
16901200507
16901206732
16901214850
16901222540
16901230780
16901240668
16901245795
16901256476
16901265692
16901274542
16901280829
16901289801
16901295416
16901303717
16901311102
16901319403
16901327398
16901333441
16901340521
16901349066
16901356268
16901364508
16901371405
16901379339
16901387701
16901393621
16901402411
16901411016
16901417486
16901427008
16901433599
16901442388
16901451055
16901459661
16901467352
16901476507
16901486334
16901494085
16901502569
16901509588
16901516485
16901526739
16901531866
16901544866
16901550542
16901559881
16901567449
16901574712
16901581487
16901588628
16901597356
16901603277
16901611883
16901619695
16901626165
16901633733
16901639776
16901647893
16901654912
16901661443
16901671758
16901678838
16901686162
16901692937
16901699590
16901707158
16901715337
16901722966
16901728582
16901737432
16901744634
16901751714
16901758733
16901767034
16901772588
16901780583
16901786565
16901796452
16901802678
16901812138
16901817998
16901827885
16901836797
16901844731
16901850896
16901858830
16901867131
16901874577
16901880437
16901890324
16901897526
16901906254
16901912602
16901919438
16901927800
16901935490
16901941533
16901951237
16901959904
16901965947
16901974736
16901982304
16901990788
16901997380
16902003300
16902013188
16902020207
16902029179
16902035649
16902042301
16902050846
16902057804
16902063969
16902075749
16902082951
16902090031
16902096256
16902106571
16902113834
16902122318
16902129459
16902139225
16902146732
16902153629
16902160404
16902168888
16902175297
16902183597
16902190678
16902199161
16902205265
16902211246
16902218509
16902223514
16902228763
16902234928
16902239506
16902248173
16902254642
16902259830
16902266971
16902275394
16902281315
16902285892
16902293155
16902297550
16902302738
16902307865
16902312137
16902317752
16902324222
16902329410
16902336063
16902340457
16902346927
16902352237
16902357120
16902361820
16902368839
16902374881
16902381229
16902387515
16902392520
16902397525
16902403812
16902408756
16902413638
16902419803
16902426822
16902431033
16902437381
16902442264
16902448306
16902454044
16902460696
16902466922
16902472659
16902478458
16902484561
16902489505
16902494998
16902499759
16902506351
16902513064
16902519351
16902526431
16902532046
16902536685
16902542422
16902547671
16902553836
16902560183
16902566287
16902571170
16902576480
16902582095
16902586856
16902593386
16902598880
16902604312
16902608889
16902615725
16902620974
16902627444
16902633792
16902639285
16902643801
16902650271
16902655276
16902661868
16902667666
16902673709
16902678164
16902683535
16902690310
16902695315
16902700015
16902707278
16902713137
16902717959
16902724795
16902729861
16902736147
16902740542
16902746523
16902751589
16902759035
16902764895
16902770632
16902776736
16902783327
16902787600
16902792788
16902798769
16902807741
16902814577
16902820864
16902826967
16902831484
16902838808
16902847353
16902853457
16902858645
16902866152
16902871340
16902877871
16902882143
16902886171
16902893068
16902898378
16902903872
16902908388
16902915590
16902919496
16902925295
16902931398
16902935915
16902941103
16902946718
16902953371
16902958986
16902965517
16902970400
16902975710
16902982057
16902987306
16902993410
16902999330
16903006715
16903012148
16903016908
16903023927
16903028078
16903034303
16903038515
16903045778
16903052064
16903056886
16903062563
16903068544
16903074159
16903078798
16903083681
16903089662
16903094240
16903103395
16903108888
16903114442
16903118898
16903125917
16903130556
16903135072
16903141908
16903148683
16903153444
16903157045
16903165345
16903168947
16903175172
16903180238
16903187501
16903192872
16903200257
16903205873
16903211671
16903218385
16903224061
16903229127
16903236329
16903241822
16903252198
16903259095
16903264283
16903269654
16903276124
16903281861
16903287538
16903293519
16903298524
16903306275
16903311646
16903317994
16903322938
16903329713
16903336243
16903340821
16903347230
16903352418
16903362244
16903366700
16903373353
16903378724
16903385560
16903390870
16903397645
16903403016
16903411866
16903417542
16903424622
16903429810
16903437195
16903442933
16903448670
16903455384
16903460938
16903467652
16903473572
16903485169
16903491333
16903497681
16903504334
16903510376
16903517273
16903523011
16903528382
16903531678
16903537903
16903542908
16903549072
16903554505
16903562622
16903567688
16903572754
16903578552
16903582703
16903589111
16903594544
16903601074
16903608093
16903612976
16903620850
16903625855
16903631775
16903637878
16903643616
16903647949
16903652649
16903659912
16903665405
16903671204
16903677002
16903682434
16903686462
16903694458
16903700439
16903706665
16903713379
16903720093
16903723694
16903731567
16903738830
16903744751
16903748535
16903755005
16903759643
16903764770
16903770324
16903777588
16903782898
16903788879
16903794128
16903799255
16903803527
16903809509
16903814636
16903818908
16903827575
16903832458
16903839111
16903844543
16903851379
16903855285
16903863403
16903867309
16903873779
16903878845
16903885986
16903892516
16903898437
16903903686
16903909911
16903915649
16903922118
16903926696
16903931823
16903939025
16903943908
16903950683
16903954589
16903961059
16903966796
16903972777
16903978271
16903984923
16903990600
16903996154
16904003173
16904009765
16904015502
16904020690
16904026916
16904033019
16904038756
16904045775
16904053527
16904058410
16904063414
16904067992
16904078551
16904084899
16904091063
16904097350
16904103759
16904110167
16904114806
16904118346
16904125487
16904129759
16904136473
16904144835
16904149108
16904155150
16904160094
16904166686
16904171874
16904177916
16904182799
16904188963
16904196349
16904199950
16904207091
16904212706
16904218321
16904223631
16904229796
16904234068
16904240294
16904244688
16904252440
16904257811
16904264220
16904269408
16904277342
16904282042
16904287657
16904294798
16904296995
16904305784
16904309569
16904317625
16904321592
16904329466
16904336180
16904342833
16904346678
16904354612
16904358519
16904364744
16904370909
16904377317
16904382566
16904388182
16904392881
16904400389
16904406004
16904410582
16904417723
16904423094
16904429502
16904436033
16904441160
16904445982
16904451963
16904457945
16904464231
16904469480
16904475340
16904480283
16904487730
16904493345
16904499937
16904506040
16904511045
16904516721
16904520567
16904528257
16904532224
16904540098
16904546873
16904551450
16904556577
16904562925
16904570310
16904576169
16904580869
16904587156
16904593809
16904598508
16904602964
16904609495
16904615476
16904619810
16904628476
16904633298
16904641538
16904647214
16904653135
16904661435
16904667966
16904674680
16904683103
16904689084
16904698972
16904704526
16904711667
16904718076
16904726682
16904731076
16904739255
16904743100
16904750424
16904755551
16904761594
16904767453
16904773557
16904778378
16904785153
16904795346
16904802121
16904807248
16904813046
16904817807
16904823239
16904829099
16904833798
16904838254
16904844785
16904849606
16904856137
16904861142
16904867734
16904872311
16904876767
16904883542
16904888119
16904895138
16904901608
16904909176
16904916318
16904921933
16904928769
16904933957
16904940365
16904947628
16904953976
16904961178
16904966488
16904971188
16904974850
16904983456
16904987423
16904995602
16905002377
16905006832
16905011837
16905018185
16905024533
16905031063
16905036984
16905044003
16905049069
16905054257
16905061520
16905067623
16905072384
16905077328
16905085262
16905089962
16905096432
16905100155
16905107601
16905111446
16905120174
16905124020
16905129574
16905136471
16905141659
16905147762
16905154049
16905158993
16905166012
16905172054
16905177059
16905184139
16905189388
16905198238
16905202328
16905209774
16905216671
16905223079
16905228756
16905234249
16905241939
16905247432
16905252254
16905260006
16905265682
16905270321
16905276912
16905281429
16905289119
16905296993
16905306819
16905312374
16905318660
16905326107
16905332210
16905337154
16905342952
16905351375
16905359920
16905365962
16905370967
16905375179
16905380916
16905384761
16905391048
16905397273
16905403194
16905409297
16905413997
16905420955
16905425166
16905431209
16905436458
16905442195
16905446407
16905452083
16905456233
16905464107
16905471065
16905476253
16905479976
16905486751
16905491572
16905496821
16905501887
16905507930
16905512568
16905519160
16905525203
16905531489
16905537166
16905542354
16905546748
16905552668
16905557673
16905564448
16905569148
16905577510
16905582148
16905586421
16905593745
16905599055
16905604365
16905611506
16905616328
16905620173
16905627558
16905631404
16905637995
16905644465
16905650630
16905656001
16905662226
16905668696
16905674616
16905680354
16905686823
16905691584
16905697627
16905704646
16905706904
16905715632
16905719538
16905726435
16905733393
16905739863
16905743769
16905749567
16905754511
16905760432
16905767878
16905772883
16905779047
16905785090
16905790949
16905796808
16905801630
16905809382
16905814997
16905822443
16905827509
16905833796
16905839045
16905844599
16905850153
16905856867
16905861750
16905867914
16905872614
16905876154
16905884027
16905887323
16905898004
16905902338
16905908075
16905914240
16905924127
16905932184
16905938166
16905943353
16905950922
16905955499
16905964472
16905971063
16905975824
16905979242
16905987726
16905991937
16905997247
16906002741
16906008600
16906012811
16906018610
16906022394
16906029474
16906035883
16906040948
16906045831
16906051263
16906056818
16906063165
16906068414
16906073358
16906078729
16906085748
16906091363
16906096429
16906102472
16906108880
16906113885
16906118951
16906126336
16906132562
16906137323
16906141534
16906149835
16906154107
16906162042
16906165826
16906172845
16906178827
16906184808
16906189508
16906197198
16906203057
16906208490
16906214898
16906221246
16906228875
16906234612
16906243157
16906247552
16906253777
16906257867
16906266229
16906272210
16906278008
16906284661
16906291497
16906297845
16906303033
16906311211
16906317925
16906324578
16906330437
16906336785
16906342034
16906349358
16906361382
16906367058
16906374322
16906379204
16906385613
16906392144
16906397271
16906401665
16906410027
16906418328
16906423577
16906427971
16906434075
16906438225
16906447381
16906451287
16906457634
16906463494
16906471123
16906475090
16906481377
16906486504
16906493767
16906499077
16906505242
16906509880
16906521660
16906527764
16906532707
16906538262
16906544182
16906548699
16906556755
16906564140
16906570610
16906577690
16906584343
16906588066
16906595146
16906601006
16906606987
16906610710
16906619011
16906625298
16906630669
16906636345
16906642876
16906648369
16906652824
16906658806
16906664482
16906668571
16906673881
16906679985
16906684318
16906689750
16906695671
16906701103
16906707695
16906710930
16906719352
16906722954
16906729484
16906735038
16906740837
16906747368
16906752311
16906757743
16906764701
16906768547
16906775688
16906781547
16906787956
16906793876
16906800102
16906805412
16906811210
16906816703
16906823295
16906829215
16906834526
16906841667
16906849174
16906853996
16906858512
16906865226
16906869315
16906876701
16906882133
16906888664
16906894523
16906900382
16906906669
16906913200
16906918143
16906924613
16906931144
16906937553
16906943961
16906950675
16906955680
16906959586
16906969535
16906975699
16906980765
16906987052
16906992545
16907000480
16907006583
16907012076
16907017875
16907023429
16907029593
16907034476
16907042960
16907047965
16907054679
16907061148
16907066275
16907073417
16907077079
16907085624
16907089591
16907098075
16907104117
16907111441
16907118582
16907124137
16907129996
16907135428
16907147147
16907153861
16907162100
16907170035
16907175894
16907182364
16907188712
16907197073
16907203055
16907211172
16907216666
16907221243
16907227652
16907232230
16907239127
16907244009
16907250540
16907256522
16907261893
16907267996
16907273123
16907280936
16907286612
16907291128
16907296927
16907302298
16907307913
16907313833
16907319876
16907325552
16907331472
16907338247
16907343802
16907350393
16907355886
16907362478
16907367422
16907375113
16907379873
16907385916
16907391714
16907398245
16907403067
16907408926
16907414297
16907420095
16907427725
16907432546
16907440115
16907445425
16907450186
16907455679
16907462576
16907467458
16907473745
16907483205
16907489248
16907494985
16907499441
16907507314
16907512075
16907519216
16907523794
16907534109
16907537832
16907546011
16907549917
16907557973
16907563039
16907569509
16907577382
16907583974
16907589284
16907594472
16907598989
16907605703
16907611867
16907617421
16907621938
16907626577
16907635976
16907643178
16907648549
16907653737
16907660451
16907665883
16907671498
16907676992
16907684560
16907689504
16907694448
16907701284
16907707021
16907712392
16907716970
16907724355
16907731862
16907736379
16907740407
16907750051
16907756764
16907762135
16907773000
16907782094
16907790761
16907795155
16907803883
16907808278
16907815724
16907821828
16907829762
16907837697
16907843068
16907849477
16907854237
16907860646
16907864918
16907872426
16907877064
16907883107
16907888722
16907893849
16907898060
16907901478
16907911854
16907916798
16907922780
16907926808
16907935231
16907940846
16907945546
16907950978
16907956349
16907963673
16907969593
16907973133
16907980763
16907986378
16907991139
16907996632
16908002674
16908007984
16908014454
16908020069
16908026966
16908032948
16908038441
16908043385
16908049061
16908054249
16908062794
16908066639
16908072865
16908077992
16908085316
16908090321
16908094837
16908101612
16908107716
16908114613
16908120472
16908125538
16908131214
16908137196
16908142078
16908148731
16908157154
16908162403
16908165760
16908173145
16908179432
16908184742
16908189686
16908196155
16908202076
16908209095
16908214954
16908221058
16908225879
16908233143
16908236927
16908243030
16908248096
16908255115
16908262867
16908268482
16908272754
16908278003
16908283557
16908291187
16908295459
16908304309
16908310169
16908314502
16908320178
16908326343
16908330371
16908336719
16908342090
16908348987
16908354297
16908360217
16908365161
16908372852
16908378345
16908384509
16908389392
16908398853
16908407703
16908413684
16908423816
16908429858
16908437610
16908441882
16908449512
16908454150
16908459765
16908465625
16908470935
16908476184
16908481555
16908485583
16908492846
16908497485
16908501574
16908510486
16908516223
16908521289
16908528857
16908534228
16908542285
16908547107
16908553149
16908558093
16908564563
16908570361
16908574572
16908581042
16908585376
16908593371
16908599536
16908605639
16908609545
16908616931
16908622607
16908628344
16908635790
16908641711
16908647509
16908653063
16908659594
16908665148
16908669299
16908674853
16908681506
16908688219
16908693469
16908699572
16908704150
16908707751
16908715929
16908721484
16908726672
16908734362
16908740588
16908747546
16908752428
16908760546
16908765307
16908771349
16908775622
16908781420
16908788012
16908792956
16908799242
16908802416
16908809252
16908814684
16908819994
16908824572
16908831713
16908837999
16908844408
16908849901
16908856249
16908861742
16908868151
16908874559
16908881151
16908886888
16908892260
16908898424
16908902880
16908908617
16908914110
16908920214
16908926622
16908938951
16908943041
16908948900
16908957933
16908967455
16908977831
16908984728
16908994676
16909001512
16909010118
16909020067
16909029405
16909040391
16909051744
16909066575
16909074083
16909081468
16909088304
16909096055
16909104844
16909112596
16909120897
16909131517
16909138047
16909145799
16909153550
16909162339
16909171006
16909179307
16909187730
16909196641
16909204881
16909212998
16909219712
16909225938
16909235887
16909241990
16909250962
16909259934
16909267625
16909274827
16909285691
16909290696
16909301316
16909310105
16909316087
16909324326
16909332322
16909340928
16909349900
16909357590
16909363572
16909372727
16909379319
16909388779
16909395554
16909403733
16909410752
16909419907
16909428147
16909437546
16909445603
16909455796
16909464280
16909472092
16909480820
16909490341
16909498947
16909507187
16909515976
16909523606
16909535080
16909544663
16909551376
16909560410
16909568344
16909575302
16909583847
16909591476
16909601608
16909607040
16909617172
16909621933
16909632187
16909637436
16909647446
16909652084
16909664657
16909680282
16909694381
16909710312
16909725509
16909738327
16909753830
16909768356
16909783248
16909796432
16909810470
16909824447
16909838790
16909853500
16909864242
16909871749
16909879195
16909887679
16909904464
16909923812
16909941756
16909960677
16909969161
16909978011
16909987044
16909994368
16910001693
16910010726
16910019332
16910026595
16910036239
16910043441
16910054732
16910062606
16910070052
16910077437
16910085921
16910092757
16910101973
16910110274
16910118331
16910127120
16910135420
16910142500
16910149947
16910157942
16910166426
16910175520
16910183821
16910192244
16910200606
16910208907
16910216780
16910225020
16910233992
16910241987
16910249983
16910256453
16910266157
16910275191
16910283125
16910289595
16910298933
16910305159
16910314558
16910323225
16910332136
16910339338
16910347151
16910356611
16910364668
16910372663
16910379927
16910387739
16910394941
16910401655
16910412641
16910421736
16910430891
16910440656
16910449018
16910457990
16910464155
16910474592
16910481062
16910490339
16910499860
16910508283
16910514204
16910523847
16910530805
16910540754
16910547162
16910553693
16910560224
16910564619
16910569929
16910575544
16910578962
16910585798
16910588971
16910595929
16910600446
16910608930
16910613385
16910618757
16910624006
16910629316
16910635419
16910639631
16910645185
16910649213
16910654889
16910660077
16910664594
16910670209
16910675336
16910680646
16910686627
16910690900
16910695783
16910699933
16910705487
16910709699
16910714704
16910718793
16910725446
16910730817
16910735089
16910740643
16910746198
16910749066
16910755780
16910761945
16910765607
16910771893
16910776044
16910781293
16910786359
16910791241
16910797223
16910802472
16910806866
16910812299
16910816327
16910820843
16910826092
16910831830
16910836651
16910842877
16910847638
16910853070
16910857220
16910862530
16910866742
16910872723
16910877606
16910884137
16910888897
16910893719
16910898663
16910903973
16910909039
16910914776
16910918133
16910924725
16910929730
16910935650
16910938763
16910945721
16910951275
16910957623
16910964459
16910970806
16910974469
16910981182
16910986187
16910993206
16910998883
16911003765
16911009320
16911015667
16911020123
16911027447
16911032574
16911038677
16911043865
16911050518
16911055035
16911063213
16911067852
16911074017
16911083111
16911089825
16911094341
16911101116
16911106792
16911111858
16911119060
16911123882
16911130840
16911134319
16911142437
16911146709
16911155865
16911160015
16911168621
16911176006
16911183330
16911189739
16911196514
16911202434
16911208965
16911215740
16911219768
16911225872
16911229839
16911236370
16911240520
16911245891
16911251201
16911257549
16911261638
16911267925
16911271953
16911277507
