16566171030
16566179026
16566186899
16566196543
16566203684
16566213205
16566222177
16566227976
16566236887
16566245981
16566254465
16566263986
16566270273
16566278329
16566291025
16566298898
16566308054
16566315317
16566322763
16566328317
16566336923
16566344125
16566352670
16566360055
16566367257
16566375558
16566384225
16566392160
16566401010
16566408944
16566416330
16566424142
16566430917
16566436410
16566445321
16566452951
16566460519
16566469857
16566474923
16566484323
16566490670
16566499581
16566509103
16566517953
16566524423
16566529855
16566536752
16566543588
16566550546
16566557931
16566564339
16566570199
16566575448
16566581246
16566586251
16566593331
16566598702
16566604623
16566610787
16566616158
16566622750
16566628182
16566635201
16566640633
16566647835
16566653695
16566659920
16566667244
16566672799
16566678170
16566683785
16566690804
16566696297
16566703133
16566708321
16566715584
16566721321
16566725838
16566730660
16566735909
16566742318
16566747506
16566754647
16566761666
16566766121
16566772286
16566779732
16566784554
16566790352
16566796822
16566802803
16566809029
16566815071
16566820809
16566826729
16566834480
16566841194
16566847603
16566853828
16566860909
16566866890
16566874641
16566880867
16566888313
16566897652
16566910347
16566918037
16566927070
16566933906
16566942024
16566948067
16566953804
16566963020
16566969490
16566976204
16566987190
16566994392
16567000740
16567007637
16567015632
16567020637
16567028205
16567034431
16567040962
16567048042
16567055061
16567061531
16567067451
16567088203
16567095283
16567102546
16567109809
16567117439
16567126838
16567132575
16567142646
16567153022
16567159736
16567169746
16567178046
16567185798
16567192207
16567201911
16567208808
16567217475
16567225715
16567233527
16567240668
16567248786
16567255988
16567263923
16567272651
16567281501
16567288886
16567297309
16567305549
16567313544
16567323310
16567331549
16567339911
16567347296
16567353949
16567362494
16567370001
16567376593
16567385321
16567393988
16567405036
16567411871
16567418646
16567428595
16567436896
16567443915
16567452338
16567459113
16567466071
16567473334
16567489874
16567496344
16567505499
16567513678
16567520514
16567528815
16567537909
16567546454
16567551764
16567562689
16567569281
16567580511
16567588568
16567595099
16567604010
16567613592
16567622076
16567630743
16567639532
16567646917
16567676153
16567691778
16567702337
16567708990
16567719305
16567726751
16567738226
16567747625
16567759649
16567766851
16567774236
16567780706
16567787786
16567794500
16567799139
16567806036
16567816595
16567824773
16567831548
16567838994
16567846990
16567854009
16567861394
16567868535
16567877141
16567886052
16567892583
16567898870
16567906743
16567910527
16567919622
16567926580
16567932622
16567938726
16567943486
16567949346
16567955388
16567960454
16567964849
16567971685
16567976750
16567981389
16567987615
16567993657
16567999333
16568006291
16568012517
16568016179
16568021977
16568027898
16568033940
16568039677
16568044011
16568049504
16568052922
16568060613
16568065373
16568074956
16568083623
16568097905
16568107915
16568115971
16568119328
16568127568
16568132451
16568138859
16568143864
16568149602
16568155217
16568160649
16568165104
16568170170
16568175175
16568182194
16568188054
16568194035
16568198552
16568204045
16568209721
16568214360
16568219975
16568222538
16568230961
16568238713
16568244267
16568250187
16568258305
16568264225
16568271855
16568277226
16568286259
16568293583
16568302677
16568308354
16568315495
16568322819
16568329411
16568334232
16568342655
16568350285
16568356815
16568362553
16568369266
16568376286
16568382389
16568387211
16568396305
16568402470
16568409977
16568417301
16568424381
16568429813
16568435856
16568441349
16568450748
16568456119
16568464054
16568468754
16568475101
16568480594
16568487186
16568494938
16568502140
16568506534
16568512394
16568517154
16568521671
16568527347
16568532352
16568536808
16568542972
16568547611
16568554142
16568560062
16568567691
16568572940
16568577335
16568582767
16568589054
16568594608
16568599552
16568605106
16568610355
16568615421
16568620975
16568626407
16568631717
16568640506
16568645694
16568651004
16568655704
16568661990
16568666751
16568672061
16568678836
16568684451
16568690372
16568695743
16568701480
16568708255
16568713748
16568719241
16568726687
16568731814
16568737552
16568742679
16568747989
16568752810
16568757388
16568762881
16568768496
16568776431
16568783145
16568788516
16568796084
16568802981
16568808230
16568815738
16568821597
16568840213
16568857791
16568879641
16568896243
16568910891
16568925112
16568937197
16568947756
16568955996
16568961916
16568966555
16568972842
16568979311
16568987734
16568991885
16569001040
16569009341
16569018130
16569029482
16569033327
16569042544
16569050173
16569058291
16569062197
16569071169
16569077822
16569086184
16569093386
16569101809
16569112612
16569119570
16569127626
16569134890
16569141603
16569148867
16569154543
16569161379
16569168703
16569176699
16569183657
16569189089
16569196718
16569201845
16569210268
16569217409
16569222963
16569228700
16569237856
16569245302
16569252870
16569259767
16569266786
16569275026
16569282655
16569288820
16569296632
16569303468
16569311281
16569318422
16569326662
16569334352
16569339357
16569347108
16569356263
16569363588
16569371217
16569378602
16569387574
16569395448
16569401612
16569409791
16569416749
16569424928
16569433229
16569441041
16569445191
16569455445
16569459840
16569470887
16569477052
16569483399
16569493043
16569499330
16569506532
16569513795
16569522401
16569529298
16569536866
16569544679
16569553590
16569561463
16569567689
16569575928
16569583802
16569592103
16569598633
16569605347
16569612855
16569621094
16569632020
16569639100
16569647339
16569654725
16569662110
16569672669
16569679749
16569686829
16569694764
16569702393
16569710205
16569718140
16569725281
16569732788
16569738770
16569747498
16569754822
16569766236
16569773987
16569784302
16569792725
16569800842
16569807068
16569814880
16569823059
16569831055
16569837891
16569845459
16569854614
16569860596
16569869995
16569876221
16569886047
16569893555
16569900696
16569906799
16569917541
16569925171
16569934692
16569941955
16569949219
16569958923
16569964905
16569974426
16569980590
16569987976
16569996154
16570003296
16570011718
16570018188
16570026977
16570033142
16570041320
16570049194
16570057617
16570066650
16570072875
16570080322
16570089172
16570096191
16570103271
16570111572
16570120300
16570128906
16570135803
16570141357
16570149352
16570156738
16570163024
16570172301
16570179931
16570188781
16570195006
16570201354
16570209838
16570217223
16570224547
16570230651
16570241088
16570246947
16570254332
16570261535
16570269347
16570278319
16570286010
16570293029
16570300719
16570308776
16570316893
16570323241
16570332152
16570340819
16570347289
16570352721
16570359557
16570365660
16570372374
16570378111
16570383605
16570389830
16570393736
16570401305
16570407469
16570414366
16570419493
16570423399
16570428954
16570432799
16570436949
16570441039
16570446776
16570451353
16570457030
16570461302
16570466551
16570471495
16570476134
16570482725
16570489012
16570492979
16570499205
16570504271
16570508970
16570513304
16570519530
16570524656
16570529295
16570535338
16570540953
16570547117
16570554197
16570558409
16570564573
16570569212
16570575865
16570581724
16570586302
16570591551
16570596128
16570600706
16570607054
16570611570
16570618772
16570624083
16570628721
16570632994
16570639036
16570643797
16570649473
16570654173
16570661924
16570666624
16570673155
16570677000
16570683531
16570687803
16570692808
16570698240
16570703794
16570708189
16570713255
16570719602
16570725217
16570730222
16570735593
16570741697
16570747373
16570752622
16570757993
16570762815
16570768186
16570773008
16570777952
16570781980
16570788511
16570792905
16570798521
16570804868
16570810483
16570814756
16570820615
16570824644
16570831724
16570835752
16570841794
16570847776
16570853208
16570857419
16570863035
16570867917
16570877073
16570882077
16570887326
16570895078
16570901426
16570907102
16570912778
16570918088
16570925046
16570930539
16570937192
16570943051
16570949094
16570955869
16570961972
16570968991
16570973203
16570979794
16570984921
16570989316
16570994016
16570998166
16571002683
16571008786
16571013303
16571018735
16571023496
16571028806
16571032529
16571037839
16571042355
16571047238
16571052670
16571057309
16571062436
16571066830
16571072324
16571078671
16571084714
16571089230
16571094845
16571100094
16571106076
16571110592
16571115658
16571121396
16571126462
16571131650
16571138913
16571144406
16571150570
16571155636
16571161252
16571166195
16571171994
16571176999
16571182370
16571190304
16571195431
16571201535
16571206234
16571212094
16571216915
16571222714
16571229977
16571236569
16571242672
16571247006
16571253414
16571256954
16571261776
16571268307
16571274960
16571280636
16571285092
16571291195
16571295651
16571302425
16571308590
16571313900
16571320187
16571325802
16571333187
16571340328
16571347286
16571353939
16571360836
16571369259
16571374935
16571382687
16571387203
16571393185
16571398067
16571403744
16571408687
16571413265
16571418514
16571423763
16571428036
16571433162
16571438106
16571443477
16571450741
16571458431
16571465023
16571473262
16571479671
16571485836
16571492550
16571501094
16571507564
16571515743
16571521846
16571530757
16571537471
16571544124
16571550594
16571558162
16571565975
16571571529
16571578304
16571585140
16571592037
16571598140
16571604060
16571610652
16571616145
16571623897
16571629207
16571637386
16571642696
16571651241
16571656734
16571666621
16571672847
16571679622
16571688045
16571694758
16571698604
16571706599
16571715083
16571723811
16571729732
16571737605
16571744868
16571751643
16571757380
16571764094
16571772090
16571778743
16571786982
16571792292
16571800227
16571806636
16571814997
16571821528
16571827754
16571835383
16571843562
16571850703
16571856990
16571864131
16571870234
16571876582
16571883845
16571890864
16571899958
16571906977
16571913203
16571919062
16571928461
16571934992
16571942744
16571951411
16571959589
16571965876
16571973261
16571980097
16571987788
16571995600
16572002985
16572008906
16572019404
16572026179
16572033991
16572038141
16572048151
16572054377
16572061213
16572070185
16572076716
16572085932
16572092646
16572101679
16572108637
16572115717
16572122065
16572129389
16572139276
16572146540
16572156244
16572163385
16572169611
16572178278
16572186395
16572193964
16572197931
16572208429
16572216425
16572224237
16572231561
16572239862
16572246515
16572255548
16572261713
16572272455
16572278924
16572287103
16572292963
16572300897
16572309869
16572315545
16572324151
16572330438
16572339593
16572346490
16572353204
16572359185
16572368829
16572374261
16572381707
16572390374
16572401055
16572407891
16572415338
16572422174
16572429925
16572438165
16572443902
16572452874
16572460626
16572467950
16572475396
16572481866
16572490655
16572496514
16572503411
16572512017
16572519891
16572528985
16572537530
16572544244
16572552361
16572559685
16572567986
16572575494
16572583672
16572592766
16572599297
16572608880
16572614312
16572624566
16572631218
16572638482
16572646355
16572656609
16572664849
16572672417
16572680657
16572688225
16572696526
16572703911
16572712395
16572720452
16572728386
16572736016
16572742058
16572751824
16572757378
16572766899
16572772759
16572777641
16572783074
16572789971
16572795097
16572801140
16572808220
16572814323
16572820061
16572825005
16572830620
16572836174
16572842400
16572847771
16572855095
16572858879
16572866325
16572872002
16572877556
16572882866
16572890861
16572896171
16572901665
16572906425
16572915092
16572919914
16572927543
16572932548
16572938896
16572944999
16572951835
16572957817
16572964103
16572969719
16572975151
16572981254
16572986198
16572990532
16572996757
16573001701
16573006828
16573010856
16573017143
16573021049
16573026786
16573030570
16573036186
16573041679
16573045829
16573050834
16573056388
16573061271
16573065666
16573070609
16573077262
16573081779
16573087333
16573092643
16573097648
16573102714
16573110404
16573114860
16573120109
16573126151
16573130729
16573134391
16573141532
16573146415
16573152091
16573156913
16573162162
16573167716
16573172843
16573177787
16573183585
16573189445
16573193900
16573199576
16573204764
16573209830
16573215568
16573219901
16573224906
16573230399
16573233878
16573240836
16573247123
16573252189
16573259940
16573264335
16573269400
16573274100
16573278922
16573285453
16573290335
16573295829
16573303397
16573308158
16573312430
16573317618
16573322257
16573329886
16573333975
16573339347
16573346427
16573351981
16573356742
16573362540
16573368277
16573374686
16573380667
16573385123
16573392325
16573397879
16573404044
16573408133
16573413565
16573419791
16573424857
16573429739
16573437064
16573442068
16573448843
16573455496
16573461111
16573465323
16573473501
16573480215
16573485586
16573491263
16573496634
16573503775
16573510977
16573516531
16573523001
16573529043
16573533804
16573539724
16573544729
16573549368
16573553396
16573559012
16573565054
16573570364
16573574026
16573579153
16573583120
16573589468
16573594412
16573600149
16573606131
16573609243
16573615347
16573620779
16573624990
16573630361
16573636709
16573640920
16573646597
16573651846
16573656912
16573662283
16573667410
16573672354
16573678091
16573684561
16573689687
16573695120
16573700308
16573706411
16573711294
16573716604
16573722158
16573728384
16573733022
16573738393
16573744070
16573749013
16573754873
16573759939
16573765737
16573772939
16573778127
16573784536
16573789663
16573794729
16573801626
16573807485
16573813161
16573820363
16573824087
16573831350
16573838186
16573842580
16573848195
16573856069
16573864187
16573872670
16573881032
16573887868
16573897206
16573905995
16573910756
16573922719
16573931630
16573938771
16573947865
16573953786
16573960683
16573969594
16573978078
16573983205
16573992787
16573998158
16574005788
16574016591
16574023183
16574032338
16574039235
16574046193
16574053517
16574064748
16574069264
16574078725
16574085621
16574094044
16574101613
16574109364
16574117299
16574126698
16574136586
16574142933
16574151478
16574157399
16574165883
16574173451
16574181141
16574188893
16574197010
16574201832
16574212208
16574221302
16574227223
16574233814
16574243031
16574250172
16574260670
16574266956
16574275562
16574283375
16574290638
16574299915
16574305409
16574315540
16574321400
16574331348
16574337574
16574345142
16574353016
16574360706
16574367603
16574374988
16574382679
16574391285
16574398975
16574406849
16574412586
16574421436
16574427723
16574434681
16574443409
16574450428
16574457264
16574465686
16574472889
16574478809
16574486866
16574493763
16574501148
16574508777
16574516590
16574523365
16574530994
16574536914
16574543811
16574552966
16574559924
16574566638
16574574939
16574582263
16574589893
16574596729
16574602283
16574610156
16574619006
16574626392
16574630359
16574639636
16574645618
16574654895
16574661243
16574668628
16574675342
16574682605
16574691821
16574699817
16574706531
16574713489
16574720752
16574729175
16574736499
16574742480
16574749865
16574758777
16574767016
16574776110
16574781970
16574790393
16574798144
16574805712
16574810229
16574818774
16574828173
16574834582
16574840685
16574850146
16574857592
16574866808
16574872180
16574882067
16574889636
16574896960
16574903063
16574912890
16574919604
16574927660
16574935046
16574942675
16574949938
16574957934
16574966540
16574971300
16574980517
16574988512
16574994372
16575002001
16575011461
16575021410
16575028246
16575035631
16575042345
16575049547
16575058702
16575065599
16575072496
16575077562
16575087999
16575094469
16575102526
16575109667
16575117052
16575123522
16575131334
16575137804
16575145860
16575154527
16575160143
16575169359
16575176378
16575183092
16575191637
16575198900
16575205980
16575215440
16575220872
16575230150
16575233202
16575239488
16575244127
16575251085
16575257921
16575262926
16575268175
16575273912
16575278978
16575285997
16575292039
16575297166
16575303514
16575308580
16575314500
16575319566
16575323900
16575328538
16575332811
16575340257
16575345079
16575352403
16575357896
16575363023
16575368699
16575373826
16575379502
16575384141
16575392747
16575397386
16575402574
16575408067
16575413438
16575418016
16575423204
16575429429
16575436448
16575442124
16575447679
16575452500
16575458909
16575463365
16575468491
16575476548
16575481675
16575486741
16575493028
16575498154
16575502488
16575508775
16575515000
16575520860
16575526597
16575532700
16575538132
16575543198
16575550217
16575554978
16575560898
16575566453
16575574387
16575579758
16575585801
16575591538
16575596604
16575601914
16575606614
16575612473
16575616684
16575621262
16575627976
16575633652
16575638962
16575643113
16575649826
16575654770
16575659897
16575664963
16575670029
16575675583
16575681015
16575685837
16575690903
16575699143
16575709824
16575724655
16575733872
16575743637
16575751389
16575758957
16575766953
16575775131
16575783188
16575790268
16575795090
16575799118
16575803635
16575808640
16575813950
16575818710
16575823715
16575828232
16575832687
16575837021
16575841721
16575846786
16575852219
16575857651
16575862472
16575866806
16575870712
16575874985
16575881576
16575887008
16575891098
16575895859
16575901047
16575906601
16575911911
16575917099
16575923691
16575929428
16575933578
16575938278
16575942489
16575947311
16575952865
16575957809
16575962814
16575969711
16575974777
16575979660
16575984726
16575990524
16575996078
16576001998
16576008346
16576013412
16576019149
16576024276
16576029586
16576034530
16576040023
16576046371
16576051254
16576057357
16576061324
16576069930
16576074569
16576081283
16576088546
16576094466
16576101730
16576107528
16576111800
16576117904
16576123519
16576130294
16576136520
16576143050
16576148910
16576153854
16576159469
16576165206
16576169601
16576174056
16576177962
16576182540
16576186873
16576193160
16576197310
16576202498
16576207503
16576212752
16576218367
16576224288
16576231063
16576236800
16576242659
16576249251
16576254195
16576259932
16576262984
16576271590
16576276961
16576282759
16576287154
16576293196
16576298140
16576304183
16576308394
16576314131
16576319502
16576325850
16576332625
16576336104
16576345870
16576354109
16576362776
16576369856
16576379134
16576386336
16576392867
16576402937
16576409346
16576416670
16576421553
16576429854
16576435164
16576443159
16576451094
16576455488
16576461531
16576468367
16576479902
16576487471
16576493330
16576505110
16576514937
16576520918
16576528669
16576535872
16576543013
16576550642
16576557783
16576562422
16576571821
16576579328
16576585615
16576593489
16576599043
16576608259
16576614424
16576622175
16576629438
16576637617
16576646162
16576651716
16576660261
16576667951
16576675276
16576683576
16576690229
16576698347
16576705000
16576711897
16576719343
16576726850
16576734968
16576742597
16576750776
16576759443
16576767438
16576774396
16576781843
16576787763
16576795026
16576804303
16576813093
16576820600
16576828779
16576834638
16576843793
16576849530
16576856855
16576864118
16576873090
16576880719
16576888227
16576897565
16576905683
16576913007
16576918683
16576927167
16576936688
16576944928
16576951947
16576960187
16576968732
16576977033
16576981244
16576991437
16577000653
16577008160
16577014813
16577020612
16577029767
16577036542
16577043133
16577052228
16577059491
16577065533
16577075360
16577081769
16577089703
16577096783
16577105145
16577112591
16577120465
16577130414
16577137433
16577144329
16577151287
16577161541
16577166668
16577175824
16577181134
16577191815
16577199749
16577207012
16577214703
16577222759
16577230816
16577239422
16577246990
16577253033
16577259503
16577270672
16577275250
16577285687
16577292095
16577300335
16577308147
16577316265
16577323650
16577332745
16577340008
16577348675
16577356365
16577364361
16577372417
16577379803
16577387859
16577396831
16577403728
16577410503
16577420269
16577428692
16577434307
16577443950
16577451274
16577458721
16577465801
16577476421
16577481914
16577490215
16577497844
16577506206
16577515117
16577521221
16577527812
16577539226
16577545390
16577556072
16577563091
16577570354
16577579936
16577587871
16577595805
16577602214
16577613139
16577619731
16577627849
16577636211
16577642802
16577650004
16577658305
16577665874
16577676005
16577682475
16577689128
16577698649
16577706706
16577713786
16577720683
16577729045
16577740336
16577748637
16577755473
16577760783
16577767436
16577772319
16577778117
16577783061
16577787272
16577793986
16577798136
16577802958
16577808390
16577813151
16577818095
16577823283
16577829020
16577835002
16577840861
16577848002
16577853129
16577859110
16577864970
16577870524
16577877238
16577882792
16577888163
16577893290
16577899332
16577904581
16577910746
16577915018
16577924296
16577927042
16577935831
16577940958
16577947977
16577953165
16577958903
16577962321
16577969279
16577974894
16577981913
16577987284
16577993998
16577999125
16578006205
16578012980
16578018656
16578024759
16578029581
16578035257
16578041727
16578048807
16578053690
16578059183
16578066202
16578071573
16578077127
16578082254
16578087931
16578092874
16578098368
16578103739
16578109171
16578113809
16578119364
16578123819
16578128946
16578133463
16578138651
16578144022
16578151773
16578157694
16578162515
16578166544
16578172037
16578177103
16578183756
16578191751
16578197672
16578204019
16578210916
16578218607
16578223917
16578228372
16578236795
16578244424
16578252725
16578259439
16578264444
16578269815
16578276285
16578280435
16578286111
16578290994
16578296304
16578300149
16578305459
16578309793
16578314554
16578320840
16578326761
16578332925
16578339883
16578345559
16578350686
16578355264
16578360269
16578366494
16578372415
16578378823
16578383889
16578388650
16578393899
16578399575
16578405496
16578411355
16578417214
16578423074
16578430520
16578435220
16578441018
16578446816
16578452554
16578457314
16578463662
16578470193
16578477090
16578480386
16578487038
16578492226
16578498330
16578505044
16578510842
16578516213
16578521218
16578527077
16578533181
16578539284
16578544655
16578550332
16578555825
16578562295
16578567727
16578575173
16578581521
16578588357
16578593239
16578600930
16578606850
16578612160
16578616555
16578624184
16578631264
16578637124
16578642434
16578648415
16578655129
16578659523
16578665322
16578671059
16578676979
16578681923
16578688515
16578695351
16578701149
16578707253
16578712074
16578719582
16578724648
16578729408
16578736000
16578741127
16578746193
16578752052
16578757668
16578762184
16578767677
16578773720
16578779701
16578783913
16578791603
16578797523
16578803383
16578808510
16578815346
16578822304
16578827675
16578832863
16578840370
16578845497
16578850441
16578856666
16578866005
16578870338
16578874916
16578880897
16578886024
16578891639
16578895729
16578900978
16578907570
16578911537
16578917823
16578923378
16578930275
16578936561
16578944618
16578951210
16578959022
16578965065
16578972084
16578978370
16578985939
16578993568
16578999793
16579005470
16579012611
16579018470
16579025245
16579030921
16579037635
16579045020
16579050086
16579058326
16579065528
16579071388
16579077613
16579084571
16579092689
16579098914
16579105262
16579112159
16579119666
16579126624
16579135169
16579141517
16579147437
16579155067
16579162574
16579169532
16579176002
16579185584
16579191260
16579198646
16579205481
16579212195
16579218848
16579225745
16579231055
16579241736
16579248999
16579255713
16579262610
16579271399
16579277930
16579284705
16579288428
16579300513
16579306189
16579313025
16579320471
16579327612
16579331275
16579340857
16579349219
16579356909
16579364295
16579371741
16579378760
16579386084
16579392004
16579398962
16579407629
16579417090
16579423437
16579430456
16579439795
16579446326
16579452978
16579461401
16579468725
16579474585
16579484289
16579492834
16579500036
16579507055
16579514624
16579521521
16579529455
16579533484
16579545568
16579553686
16579561621
16579567663
16579577001
16579584997
16579590002
16579598852
16579610571
16579617834
16579625829
16579631750
16579639257
16579646093
16579654211
16579661352
16579670568
16579677770
16579685705
16579692480
16579699377
16579706884
16579714269
16579721715
16579728918
16579737829
16579745580
16579752965
16579759374
16579769384
16579775304
16579783788
16579789831
16579798803
16579806371
16579814367
16579823034
16579828771
16579837499
16579845006
16579851781
16579860265
16579867833
16579874913
16579882909
16579890843
16579898290
16579904271
16579912328
16579918309
16579929601
16579936864
16579942418
16579950292
16579958348
16579964269
16579971349
16579979832
16579989049
16579996373
16580004002
16580011021
16580018468
16580026463
16580033726
16580042088
16580051121
16580059422
16580066990
16580074376
16580080479
16580087864
16580094334
16580101414
16580111790
16580121190
16580128331
16580136204
16580143956
16580151341
16580157566
16580165623
16580172215
16580181187
16580190342
16580198338
16580205113
16580210545
16580219822
16580226902
16580234654
16580241917
16580249363
16580253452
16580259861
16580266331
16580270969
16580276524
16580282749
16580288364
16580296665
16580300816
16580307224
16580313938
16580319736
16580323887
16580330723
16580337131
16580343479
16580347690
16580353550
16580358372
16580363010
16580367527
16580373997
16580380100
16580386204
16580390537
16580396274
16580401096
16580405735
16580411350
16580416050
16580421665
16580428257
16580433750
16580438327
16580443698
16580448337
16580453403
16580459018
16580464511
16580471591
16580476840
16580482456
16580487705
16580492649
16580498142
16580503208
16580508335
16580513584
16580519504
16580525913
16580530917
16580535922
16580539035
16580546970
16580552402
16580558200
16580564426
16580569858
16580575107
16580580478
16580585666
16580590732
16580595554
16580600864
16580605930
16580611056
16580615085
16580620883
16580624606
16580630893
16580634921
16580641818
16580646213
16580652011
16580658664
16580663852
16580667941
16580673129
16580678927
16580684604
16580690890
16580695407
16580701205
16580706027
16580710971
16580717013
16580721530
16580725924
16580732943
16580738070
16580744967
16580749789
16580754245
16580759188
16580764254
16580771945
16580776766
16580782687
16580789157
16580794467
16580799105
16580803744
16580808749
16580815219
16580821261
16580826449
16580833834
16580839816
16580845370
16580849886
16580856905
16580863802
16580870089
16580876070
16580883578
16580888461
16580894625
16580900118
16580905062
16580910433
16580917025
16580922579
16580927279
16580933871
16580939242
16580945894
16580950533
16580957186
16580961580
16580968355
16580972872
16580979220
16580983431
16580989046
16580994295
16581001864
16581007601
16581012484
16581018099
16581022554
16581031221
16581036898
16581040987
16581047640
16581051851
16581056307
16581063021
16581069307
16581074739
16581079134
16581084627
16581090120
16581097078
16581102022
16581106783
16581113497
16581118746
16581124300
16581129366
16581134798
16581137666
16581146150
16581150362
16581156831
16581161104
16581168489
16581172884
16581177888
16581183748
16581188203
16581194795
16581199861
16581203950
16581209932
16581214082
16581220064
16581224397
16581230562
16581235139
16581242158
16581246675
16581253816
16581258211
16581264863
16581269197
16581277864
16581281648
16581286775
16581293184
16581298738
16581303621
16581309419
16581315583
16581322480
16581327974
16581333100
16581338899
16581344087
16581349153
16581354463
16581359956
16581369660
16581377473
16581383760
16581390473
16581399262
16581408723
16581415193
16581422700
16581432893
16581440461
16581447907
16581454621
16581463349
16581470490
16581477082
16581485139
16581492463
16581502900
16581508881
16581518342
16581524384
16581531647
16581539033
16581546418
16581554108
16581562714
16581571991
16581577851
16581583771
16581592621
16581598908
16581608307
16581614228
16581623505
16581630646
16581636078
16581644989
16581653778
16581660858
16581668122
16581674896
16581683991
16581690094
16581698883
16581704254
16581712189
16581720307
16581727326
16581733917
16581742706
16581748993
16581757355
16581764130
16581772186
16581780365
16581788300
16581792694
16581802582
16581810028
16581818512
16581824737
16581831695
16581839935
16581847137
16581854278
16581862640
16581870758
16581876861
16581886078
16581893158
16581900970
16581907928
16581913482
16581921295
16581930511
16581937469
16581945587
16581953155
16581959136
16581967254
16581975982
16581984039
16581990081
16581998138
16582006378
16582016082
16582022857
16582028045
16582035735
16582044219
16582052459
16582060271
16582067535
16582073638
16582082671
16582088836
16582096770
16582104583
16582113677
16582118133
16582127654
16582136443
16582143584
16582153289
16582158477
16582166167
16582172454
16582182647
16582190581
16582197844
16582207244
16582215178
16582222380
16582230437
16582239348
16582246550
16582252898
16582261504
16582270110
16582276518
16582284148
16582293669
16582298308
16582306487
16582314604
16582322234
16582329619
16582337309
16582345122
16582352080
16582361052
16582368620
16582376677
16582383391
16582390471
16582396941
16582406462
16582412749
16582419707
16582429533
16582436796
16582444365
16582449675
16582458159
16582465361
16582473967
16582482329
16582490690
16582495146
16582505156
16582509733
16582518644
16582526884
16582535612
16582542753
16582548368
16582556852
16582566618
16582572050
16582579313
16582587980
16582597929
16582605253
16582611967
16582620817
16582627409
16582635221
16582639433
16582650480
16582657926
16582663297
16582670560
16582677763
16582686979
16582695646
16582703458
16582710294
16582717618
16582725126
16582733793
16582740751
16582746732
16582756376
16582763212
16582768949
16582775480
16582778287
16582786710
16582792997
16582797696
16582805509
16582809537
16582815030
16582821012
16582827237
16582831998
16582838163
16582844632
16582851590
16582856717
16582863065
16582869596
16582876187
16582881864
16582886807
16582892789
16582897916
16582905057
16582910489
16582915982
16582922452
16582928067
16582933011
16582938504
16582944119
16582951077
16582956082
16582962674
16582970242
16582977505
16582983853
16582989590
16582995084
16583000943
16583005948
16583011685
16583017483
16583023648
16583028897
16583035184
16583039883
16583044827
16583049466
16583055569
16583060391
16583066494
16583071499
16583078152
16583083279
16583088711
16583094632
16583100552
16583108181
16583115261
16583120755
16583127957
16583131924
16583137661
16583141323
16583146633
16583150540
16583156826
16583161709
16583167324
16583171536
16583177944
16583182400
16583189724
16583195889
16583202480
16583207485
16583212368
16583217983
16583223599
16583228970
16583234463
16583237392
16583248440
16583253201
16583258755
16583263943
16583269375
16583274258
16583281399
16583285671
16583292629
16583298061
16583304226
16583309902
16583315945
16583321010
16583326259
16583331692
16583336819
16583344021
16583349087
16583354641
16583360622
16583364956
16583371975
16583376125
16583381679
16583389980
16583396267
16583402309
16583407863
16583411708
16583416896
16583423610
16583428798
16583435695
16583440639
16583447597
16583452053
16583456752
16583464138
16583470058
16583474941
16583481899
16583488307
16583492580
16583499416
16583504054
16583510951
16583514797
16583520351
16583528346
16583535426
16583541164
16583548183
16583556972
16583567287
16583574550
16583583217
16583591823
16583600368
16583612636
16583624171
16583634608
16583643764
16583653468
16583662257
16583669520
16583676539
16583684108
16583691798
16583699733
16583707545
16583718104
16583724757
16583732264
16583739711
16583747584
16583755641
16583762232
16583769923
16583778895
16583787257
16583794398
16583803614
16583813075
16583820826
16583829432
16583836268
16583844752
16583851771
16583859888
16583867274
16583875635
16583884180
16583891260
16583900660
16583906336
16583916163
16583923670
16583932032
16583939722
16583948206
16583956080
16583963587
16583970728
16583980555
16583988428
16583995264
16584004908
16584014124
16584022303
16584028711
16584038050
16584043970
16584054529
16584063440
16584073328
16584083948
16584091455
16584106104
16584113489
16584124170
16584134790
16584145410
16584154504
16584164880
16584174341
16584184228
16584192773
16584200891
16584212732
16584222192
16584230432
16584242212
16584250940
16584263818
16584271753
16584280114
16584288903
16584299524
16584310205
16584320214
16584329797
16584341272
16584351037
16584360925
16584373315
16584382836
16584390771
16584403466
16584410546
16584421227
16584431237
16584441308
16584453881
16584464196
16584473595
16584482201
16584492272
16584501671
16584511620
16584521874
16584530846
16584540490
16584550561
16584559411
16584570031
16584579552
16584589562
16584599877
16584610009
16584620201
16584629540
16584639794
16584650780
16584661217
16584671227
16584678429
16584689781
16584700096
16584709435
16584720726
16584729698
16584738548
16584749840
16584758263
16584768700
16584778099
16584786095
16584795250
16584805687
16584813621
16584823936
16584832054
16584840233
16584849998
16584860374
16584869590
16584881614
16584891197
16584901573
16584910850
16584921043
16584929771
16584939903
16584949302
16584957908
16584967430
16584976829
16584988426
16584997886
16585006004
16585016685
16585024864
16585035362
16585041038
16585048057
16585053428
16585060813
16585065452
16585076255
16585081809
16585089683
16585095969
16585101218
16585107749
16585114524
16585122031
16585128867
16585135215
16585142112
16585148276
16585154929
16585161765
16585171225
16585178428
16585184409
16585193808
16585200949
16585207236
16585214194
16585220237
16585228232
16585237021
16585244956
16585251609
16585258139
16585264670
16585271262
16585280173
16585287253
16585293906
16585300131
16585305930
16585314047
16585321127
16585327658
16585335532
16585341330
16585347922
16585356345
16585362692
16585370016
16585376364
16585382101
16585390646
16585396872
16585404867
16585410300
16585417074
16585424765
16585430685
16585438315
16585446921
16585453451
16585459128
16585465658
16585473044
16585480795
16585489157
16585497580
16585502157
16585511190
16585518515
16585526632
16585534201
16585542196
16585548056
16585555502
16585560324
16585567465
16585572775
16585577963
16585585104
16585590658
16585598837
16585606466
16585614279
16585622518
16585627950
16585633077
16585638998
16585644064
16585651144
16585655721
16585660604
16585664999
16585670797
16585674398
16585680868
16585684896
16585691183
16585695577
16585702047
16585707235
16585714742
16585718526
16585722982
16585729635
16585734945
16585741109
16585746358
16585751485
16585755513
16585765340
16585770650
16585777364
16585782064
16585787435
16585793660
16585799764
16585806844
16585812093
16585820211
16585827962
16585834493
16585839864
16585845174
16585850972
16585856771
16585862447
16585869039
16585874715
16585880574
16585885396
16585889363
16585895223
16585900289
16585905843
16585909932
16585915852
16585920552
16585925069
16585929280
16585935506
16585939595
16585944783
16585951131
16585955830
16585961201
16585965718
16585970357
16585975667
16585979451
16585985127
16585989094
16585994527
16585998128
16586003804
16586008687
16586013081
16586017171
16586023701
16586028340
16586031880
16586037007
16586040547
16586045430
16586049092
16586053486
16586059041
16586064106
16586068318
16586073811
16586078633
16586085774
16586090413
16586095234
16586102009
16586106587
16586112690
16586117817
16586122944
16586127522
16586133442
16586138630
16586144062
16586151203
16586156513
16586161518
16586167378
16586173481
16586178181
16586183186
16586188984
16586194477
16586202351
16586207356
16586213154
16586217487
16586222675
16586228657
16586233601
16586238606
16586245136
16586250507
16586254780
16586261982
16586265705
16586272846
16586278828
16586284260
16586288654
16586294941
16586299946
16586306232
16586313007
16586318073
16586325275
16586329670
16586336567
16586343891
16586349872
16586356220
16586362018
16586368854
16586374591
16586381061
16586387958
16586392353
16586399677
16586406757
16586413105
16586418964
16586424640
16586430133
16586435382
16586441486
16586446857
16586450641
16586456195
16586461139
16586463947
16586470905
16586476032
16586481586
16586487201
16586492328
16586497211
16586502704
16586507282
16586514179
16586520343
16586526996
16586531329
16586537860
16586542377
16586547260
16586554706
16586559222
16586565753
16586570697
16586577106
16586581744
16586586993
16586592364
16586598285
16586604449
16586610003
16586615253
16586620868
16586626056
16586631976
16586637530
16586643268
16586647967
16586655169
16586662066
16586669635
16586679095
16586686297
16586693927
16586702166
16586709613
16586717852
16586725909
16586732318
16586740618
16586748614
16586756610
16586763934
16586771929
16586778582
16586787310
16586794817
16586803423
16586811114
16586819842
16586826861
16586833331
16586841082
16586848162
16586855975
16586864642
16586872393
16586878741
16586886187
16586894488
16586901873
16586907732
16586915117
16586921343
16586931780
16586938189
16586946612
16586955034
16586962420
16586968401
16586977861
16586984392
16586995378
16587002825
16587010271
16587017839
16587022783
16587032732
16587039080
16587049089
16587057939
16587065447
16587073198
16587081133
16587088518
16587096636
16587103838
16587112383
16587121599
16587129594
16587138506
16587144731
16587151079
16587160966
16587167375
16587174821
16587184221
16587191545
16587198747
16587205949
16587216325
16587221757
16587231828
16587238298
16587246965
16587256791
16587265519
16587271318
16587279435
16587286332
16587296403
16587302629
16587309953
16587319902
16587327836
16587335038
16587343339
16587350663
16587358964
16587366654
16587373551
16587381486
16587390702
16587396989
16587403458
16587413712
16587420243
16587430558
16587437028
16587443925
16587453751
16587461076
16587468339
16587475724
16587483964
16587491471
16587499589
16587506913
16587515153
16587525040
16587531205
16587541031
16587547318
16587555985
16587564164
16587571183
16587578568
16587586686
16587594559
16587602005
16587609207
16587617630
16587626908
16587634598
16587639969
16587648758
16587657974
16587664749
16587672623
16587681412
16587688736
16587693802
16587703690
16587709000
16587718277
16587725540
16587733353
16587740311
16587748489
16587755691
16587763809
16587772232
16587778274
16587786880
16587794754
16587801956
16587808731
16587815140
16587824539
16587831192
16587838211
16587845352
16587853714
16587861648
16587869766
16587876785
16587883133
16587892410
16587900344
16587908340
16587917556
16587923538
16587933242
16587941543
16587948928
16587957412
16587965042
16587973586
16587980300
16587988052
16587997573
16588004287
16588013198
16588019729
16588026443
16588033218
16588042922
16588048721
16588058425
16588064712
16588072097
16588079055
16588084060
16588088637
16588095046
16588100234
16588107863
16588112990
16588119094
16588123183
16588128859
16588134414
16588138991
16588146987
16588152541
16588157668
16588160537
16588167006
16588172744
16588177810
16588182998
16588189894
16588195632
16588200759
16588204726
16588209853
16588215529
16588221327
16588227126
16588235549
16588239638
16588246962
16588252089
16588256728
16588261794
16588266493
16588273024
16588279921
16588284071
16588288588
16588295363
16588299330
16588305190
16588311476
16588317885
16588323073
16588328383
16588334120
16588339613
16588344374
16588351149
16588357619
16588364088
16588368727
16588375319
16588378859
16588385878
16588390455
16588395704
16588403578
16588409743
16588415785
16588420424
16588426161
16588430983
16588437147
16588442457
16588450270
16588457411
16588463331
16588468641
16588474379
16588479261
16588485243
16588491652
16588498548
16588504774
16588511000
16588518507
16588522352
16588528456
16588533888
16588540480
16588547682
16588553785
16588560072
16588567030
16588572828
16588578504
16588584242
16588589552
16588596510
16588600416
16588605543
16588612806
16588618238
16588623426
16588628736
16588634718
16588640516
16588648511
16588654432
16588659009
16588664747
16588670423
16588676160
16588681348
16588687635
16588692640
16588698743
16588703626
16588709424
16588714979
16588720960
16588727552
16588732557
16588738538
16588744153
16588750318
16588755323
16588761853
16588767591
16588773572
16588778638
16588784803
16588791577
16588798169
16588801282
16588808850
16588814344
16588819104
16588825940
16588830396
16588837720
16588844190
16588849561
16588853467
16588859693
16588865857
16588871961
16588876782
16588883191
16588889600
16588896069
16588901196
16588906751
16588909802
16588915845
16588921704
16588928052
16588933423
16588940076
16588948315
16588953076
16588958935
16588963147
16588970227
16588975293
16588981274
16588987012
16588993237
16588998730
16589004407
16589009228
16589014905
16589019543
16589026440
16589031506
16589037182
16589042675
16589048535
16589054821
16589059277
16589064831
16589069531
16589076428
16589081494
16589090100
16589096508
16589102612
16589109326
16589115490
16589121411
16589127697
16589133129
16589140087
16589145397
16589152538
16589157726
16589162609
16589168774
16589174084
16589181408
16589188244
16589193066
16589199108
16589204723
16589210888
16589215832
16589220165
16589225170
16589230785
16589238232
16589242321
16589248363
16589254162
16589261730
16589269176
16589276317
16589282909
16589290294
16589297436
16589305797
16589313061
16589318065
16589327709
16589333141
16589340770
16589348339
16589357311
16589363170
16589374035
16589378978
16589386852
16589394054
16589402599
16589411876
16589420238
16589426586
16589434642
16589442211
16589450450
16589456737
16589464794
16589471568
16589479320
16589488536
16589493663
16589503246
16589508678
16589516795
16589523753
16589531993
16589539317
16589547435
16589554637
16589563060
16589567332
16589577708
16589584788
16589591441
16589598460
16589606273
16589615611
16589622508
16589630015
16589637401
16589644786
16589651805
16589659678
16589667247
16589675303
16589682322
16589690379
16589697703
16589702647
16589710032
16589718760
16589726329
16589735179
16589744578
16589752452
16589759593
16589767405
16589775157
16589781077
16589789500
16589797495
16589805918
16589812998
16589821299
16589828501
16589836863
16589844004
16589852427
16589859629
16589870249
16589876963
16589884653
16589891978
16589900767
16589908213
16589917673
16589926035
16589935862
16589943369
16589952158
16589960154
16589967417
16589975718
16589983896
16589992014
16589996347
16590007822
16590014170
16590024118
16590030771
16590037180
16590046823
16590055307
16590062937
16590071909
16590079355
16590085397
16590096201
16590102976
16590113107
16590120798
16590128366
16590137704
16590145456
16590153940
16590161752
16590170602
16590177988
16590185007
16590192880
16590202279
16590210702
16590218820
16590227060
16590235116
16590243112
16590251352
16590259652
16590268563
16590277108
16590285165
16590291452
16590300851
16590309213
16590315744
16590323434
16590329476
16590342050
16590346261
16590355355
16590363595
16590371163
16590377206
16590385995
16590395150
16590404366
16590411141
16590418954
16590428109
16590435555
16590441659
16590450204
16590456246
16590464120
16590473885
16590481576
16590487496
16590494942
16590501900
16590509224
16590518197
16590527779
16590534127
16590541878
16590549080
16590556343
16590565377
16590574105
16590585030
16590593575
16590602608
16590610420
16590617989
16590625618
16590629647
16590639900
16590646126
16590654183
16590661995
16590667122
16590671761
16590680672
16590688667
16590693672
16590702522
16590707710
16590713875
16590720528
16590725777
16590730598
16590737373
16590741890
16590747810
16590752632
16590758125
16590762703
16590766426
16590772590
16590776253
16590783089
16590787666
16590792427
16590797127
16590801704
16590806465
16590811226
16590816414
16590822517
16590826973
16590832588
16590837288
16590842170
16590847847
16590852668
16590860420
16590864326
16590870246
16590875923
16590881233
16590885444
16590891426
16590897041
16590902656
16590908821
16590914009
16590919563
16590924812
16590929328
16590935981
16590941108
16590949104
16590954475
16590961494
16590968086
16590973823
16590980903
16590986091
16590994148
16590998542
16591004218
16591009284
16591017097
16591021247
16591027534
16591031501
16591039436
16591046394
16591052375
16591057441
16591064765
16591069404
16591075385
16591081061
16591088141
16591092719
16591099067
16591104804
16591110724
16591116401
16591121528
16591127814
16591134894
16591141120
16591145942
16591151679
16591157355
16591162970
16591169867
16591175788
16591181098
16591187690
16591192450
16591198554
16591205878
16591211493
16591216925
16591224494
16591230658
16591236334
16591241950
16591248236
16591254218
16591261237
16591270026
16591275885
16591280585
16591288519
16591293890
16591298590
16591303290
16591309882
16591314886
16591319891
16591326117
16591331183
16591336554
16591342596
16591346747
16591352972
16591358710
16591363837
16591370978
16591375250
16591381659
16591385992
16591392462
16591397711
16591403814
16591408819
16591415655
16591418768
16591426214
16591432684
16591439032
16591444159
16591449530
16591455877
16591461432
16591466925
16591471563
16591477423
16591481878
16591489202
16591495123
16591500433
16591506903
16591513311
16591517889
16591523870
16591531439
16591537420
16591543585
16591549627
16591556219
16591561468
16591567693
16591572637
16591579229
16591587591
16591593267
16591599187
16591604437
16591611578
16591617986
16591624395
16591629705
16591635076
16591640081
16591645696
16591652349
16591658819
16591664068
16591670965
16591676702
16591680974
16591686101
16591695135
16591700750
16591708257
16591712957
16591717595
16591724492
16591730779
16591736394
16591741521
16591746648
16591752507
16591758916
16591763738
16591769536
16591774846
16591781804
16591786992
16591793706
16591797551
16591805852
16591810491
16591816716
16591823125
16591830510
16591837163
16591843755
16591850163
16591855168
16591863835
16591868474
16591876103
16591881963
16591888432
16591893376
16591901677
16591907536
16591912114
16591918034
16591923894
16591929265
16591934758
16591939275
16591946355
16591952641
16591958440
16591962834
16591968205
16591974553
16591979680
16591985417
16591990300
16591997807
16592004094
16592009404
16592014592
16592019719
16592024174
16592029850
16592035527
16592041020
16592046452
16592052678
16592059575
16592065556
16592070317
16592077031
16592080021
16592088017
16592094242
16592099858
16592105595
16592111210
16592117924
16592122196
16592126713
16592134342
16592140324
16592145939
16592152165
16592157597
16592163456
16592169071
16592172672
16592179569
16592190922
16592198002
16592203800
16592210880
16592217838
16592224125
16592229313
16592234562
16592239994
16592244450
16592249699
16592254276
16592261783
16592265812
16592272953
16592278934
16592285221
16592290409
16592295963
16592301395
16592306888
16592312381
16592316959
16592321842
16592329899
16592334537
16592340946
16592345401
16592349918
16592354862
16592361820
16592366764
16592373600
16592378360
16592385623
16592390262
16592396366
16592402591
16592408756
16592414310
16592421756
16592426700
16592434879
16592442691
16592451785
16592455814
16592462161
16592468692
16592472842
16592477542
16592482913
16592488651
16592492496
16592497928
16592502261
16592508426
16592511050
16592518680
16592523990
16592530032
16592535525
16592540164
16592545230
16592550906
16592555789
16592560123
16592568362
16592574039
16592579471
16592584781
16592590152
16592595401
16592601260
16592603946
16592612796
16592617251
16592623599
16592627810
16592634158
16592639834
16592645572
16592651614
16592657351
16592661868
16592666568
16592671878
16592679019
16592684451
16592690127
16592695559
16592701724
16592706668
16592712100
16592717959
16592721316
16592727969
16592733584
16592739749
16592744692
16592749575
16592756350
16592760073
16592766116
16592771792
16592777224
16592783328
16592788516
16592793337
16592798464
16592804263
16592812685
16592817751
16592823305
16592828005
16592834109
16592839846
16592843996
16592849367
16592857119
16592862002
16592866579
16592872194
16592877199
16592882937
16592889834
16592895205
16592902651
16592908327
16592915407
16592922365
16592929079
16592936464
16592943178
16592948793
16592954836
16592959902
16592965639
16592970461
16592977358
16592982729
16592988649
16592993349
16592998171
16593003542
16593009401
16593014589
16593018740
16593027468
16593032961
16593038027
16593043092
16593048464
16593052126
16593058473
16593063295
16593069521
16593074098
16593080263
16593085390
16593090273
16593095094
16593099001
16593107545
16593112245
16593117372
16593123415
16593128053
16593132082
16593138612
16593143190
16593149965
16593154848
16593161683
16593165773
16593171815
16593177003
16593181947
16593189088
16593195619
16593201173
16593206544
16593212098
16593217714
16593223451
16593227968
16593235414
16593240724
16593246034
16593251344
16593256593
16593261354
16593266786
16593273255
16593278688
16593284547
16593290284
16593295167
16593300233
16593305299
16593311646
16593317994
16593325318
16593330628
16593336060
16593340760
16593345338
16593350648
16593359315
16593365724
16593373658
16593381043
16593387330
16593392335
16593397218
16593404847
16593411622
16593416688
16593426026
16593431031
16593437134
16593443726
16593450196
16593456238
16593463074
16593469910
16593473450
16593480958
16593485291
16593492920
16593498536
16593506104
16593511353
16593518311
16593523194
16593528504
16593533143
16593538514
16593545105
16593550415
16593554993
16593559571
16593564331
16593570313
16593575501
16593580872
16593587158
16593592224
16593597229
16593603333
16593608643
16593613220
16593618897
16593626953
16593632874
16593638916
16593644409
16593649597
16593655335
16593661194
16593666626
16593672180
16593679688
16593684265
16593689941
16593695374
16593700867
16593707581
16593714111
16593719910
16593728210
16593733276
16593738891
16593744324
16593749939
16593755920
16593761413
16593766601
16593773681
16593778869
16593784363
16593789367
16593794922
16593800598
16593806457
16593812988
16593819519
16593825317
16593830810
16593836547
16593842102
16593848877
16593854614
16593859802
16593865600
16593871337
16593877319
16593883789
16593888000
16593893737
16593899230
16593905395
16593912536
16593919006
16593924560
16593929687
16593935302
16593939636
16593946227
16593950805
16593959167
16593964233
16593969848
16593976257
16593981811
16593986327
16593992675
16593997009
16594003722
16594009154
16594015258
16594022704
16594028686
16594033996
16594039977
16594047912
16594055907
16594060851
16594068114
16594073302
16594079650
16594084960
16594091124
16594097106
16594105895
16594110351
16594115538
16594122069
16594126708
16594131652
16594136840
16594144103
16594150328
16594155883
16594161437
16594167479
16594173217
16594178771
16594184447
16594188964
16594196593
16594201964
16594207762
16594212828
16594218505
16594223937
16594229613
16594234068
16594242125
16594248778
16594254210
16594259032
16594264891
16594269225
16594276122
16594282713
16594289244
16594295897
16594301390
16594306578
16594311949
16594318053
16594323729
16594329588
16594336668
16594342100
16594347899
16594354368
16594357847
16594365172
16594370665
16594374998
16594381712
16594386595
16594393431
16594398131
16594404295
16594408751
16594415709
16594420164
16594428282
16594437315
16594442686
16594448118
16594453917
16594458677
16594465391
16594471373
16594476744
16594482359
16594487486
16594492979
16594499021
16594503599
16594508238
16594515989
16594521116
16594526243
16594531980
16594537534
16594542722
16594549986
16594556944
16594562010
16594567625
16594574155
16594579649
16594584470
16594589170
16594596494
16594601072
16594606443
16594613889
16594620359
16594626340
16594633848
16594639646
16594646665
16594653318
16594659116
16594665342
16594671384
16594677488
16594683530
16594688047
16594694516
16594700498
16594705442
16594710508
16594716977
16594722959
16594729734
16594734250
16594740598
16594747068
16594752072
16594757505
16594763364
16594768979
16594774045
16594781613
16594787168
16594793332
16594798581
16594804379
16594809567
16594814755
16594820310
16594827939
16594833005
16594838498
16594844663
16594849973
16594854245
16594861935
16594868588
16594874753
16594882260
16594887509
16594891721
16594898556
16594902402
16594907773
16594912350
16594917355
16594923154
16594928403
16594934445
16594939938
16594945676
16594951779
16594957211
16594964169
16594970028
16594976498
16594983273
16594988827
16594994504
16595000180
16595005795
16595011532
16595017514
16595024411
16595030453
16595035763
16595043393
16595048336
16595052975
16595059262
16595064694
16595070797
16595076596
16595081906
16595087460
16595093930
16595098019
16595103451
16595110348
16595116512
16595121578
16595127194
16595131954
16595137386
16595142635
16595148251
16595158688
16595164120
16595170834
16595177853
16595185665
16595192257
16595198544
16595206722
16595212643
16595218685
16595226314
16595234432
16595240658
16595245907
16595255855
16595260067
16595265499
16595271236
16595276546
16595282284
16595287166
16595292782
16595298763
16595302120
16595308895
16595314937
16595318294
16595323055
16595329708
16595334529
16595341121
16595345455
16595351680
16595356441
16595361263
16595366512
16595372066
16595376827
16595383296
16595388118
16595392330
16595398982
16595403255
16595407466
16595412593
16595418086
16595422725
16595429927
16595434627
16595440120
16595444759
16595450557
16595456172
16595461299
16595464107
16595471919
16595477718
16595482234
16595486629
16595493587
16595497615
16595501643
16595507625
16595513850
16595520137
16595525508
16595531062
16595538081
16595544307
16595549556
16595554866
16595561458
16595567683
16595574397
16595580012
16595585872
16595590083
16595596003
16595601069
16595610103
16595615657
16595622371
16595628230
16595634700
16595639582
16595644831
16595652034
16595657099
16595662104
16595668696
16595673213
16595678767
16595683711
16595691279
16595697444
16595707759
16595713374
16595719294
16595727961
16595735468
16595743769
16595749629
16595760859
16595768916
16595781489
16595788752
16595798823
16595804682
16595814081
16595818842
16595830012
16595836603
16595852350
16595861689
16595871576
16595877436
16595887568
16595898676
16595903498
16595912531
16595919306
16595928400
16595936823
16595945307
16595953302
16595958490
16595968256
16595974176
16595981867
16595990534
16595999933
16596008051
16596016229
16596022882
16596032831
16596039667
16596046991
16596057123
16596062494
16596071222
16596079095
16596087701
16596092096
16596102411
16596109247
16596118341
16596125848
16596132379
16596140924
16596149164
16596156244
16596160638
16596170160
16596179132
16596189508
16596197015
16596204644
16596214959
16596222589
16596229791
16596234552
16596241204
16596245965
16596253533
16596258233
16596266046
16596273004
16596278680
16596281854
16596288384
16596292718
16596299798
16596304315
16596313775
16596316949
16596323846
16596330560
16596336114
16596340630
16596346673
16596351434
16596360101
16596365533
16596371636
16596376519
16596382745
16596388665
16596394219
16596399895
16596405938
16596410638
16596416741
16596421136
16596427056
16596432183
16596437920
16596444573
16596451653
16596456414
16596461541
16596468377
16596473992
16596478936
16596484490
16596491021
16596498833
16596503716
16596509453
16596515313
16596521660
16596528374
16596533318
16596539971
16596548943
16596553398
16596559807
16596564690
16596571343
16596579216
16596585015
16596590264
16596598259
16596603203
16596608391
16596614494
16596619805
16596624382
16596629936
16596636589
16596644524
16596648552
16596655022
16596659294
16596666496
16596671623
16596677299
16596683159
16596688957
16596694206
16596701347
16596706901
16596712456
16596719658
16596726311
16596731987
16596739067
16596744804
16596751152
16596756950
16596762443
16596771538
16596778007
16596782585
16596787040
16596793571
16596797905
16596804863
16596809318
16596815239
16596820488
16596830375
16596835746
16596841301
16596846000
16596852775
16596857292
16596862541
16596869010
16596876762
16596881706
16596889823
16596894767
16596900871
16596908378
16596913871
16596921806
16596927421
16596933280
16596939872
16596946403
16596950980
16596957450
16596962638
16596967765
16596972831
16596980338
16596986808
16596991935
16596996513
16597003348
16597007194
16597014457
16597020927
16597026420
16597032584
16597037650
16597043571
16597048881
16597053702
16597059867
16597066092
16597071769
16597077140
16597084281
16597088859
16597095450
16597101249
16597107657
16597114249
16597121512
16597127250
16597133536
16597139823
16597145194
16597150748
16597156180
16597161734
16597170157
16597176505
16597181998
16597189322
16597196951
16597202323
16597206961
16597214835
16597219290
16597226187
16597230643
16597235648
16597242117
16597247366
16597252493
16597260428
16597265311
16597270193
16597276724
16597281058
16597287894
16597292410
16597298392
16597305899
16597310538
16597315298
16597321707
16597327200
16597331656
16597337210
16597343924
16597351065
16597355704
16597360403
16597367361
16597373098
16597378103
16597383413
16597389822
16597396597
16597402151
16597407766
16597414297
16597419607
16597424612
16597428884
16597435842
16597441824
16597448660
16597453787
16597459097
16597464102
16597469595
16597474905
16597481741
16597488760
16597495413
16597500479
16597507070
16597511648
16597518118
16597522329
16597529348
16597534353
16597543569
16597551626
16597560110
16597566152
16597573049
16597580251
16597585867
16597593435
16597599111
16597603750
16597608755
16597613210
16597619253
16597624135
16597629873
16597635671
16597641347
16597646291
16597653493
16597658010
16597663686
16597670156
16597676259
16597682607
16597688588
16597694997
16597702565
16597709035
16597717275
16597722829
16597728566
16597736623
16597740956
16597746511
16597753163
16597759450
16597764882
16597769887
16597774770
16597779592
16597784413
16597789113
16597793447
16597799855
16597804189
16597808888
16597814321
16597818837
16597824025
16597829884
16597833302
16597839528
16597844350
16597849599
16597854909
16597861623
16597867543
16597872853
16597878346
16597884755
16597888905
16597895070
16597900319
16597905385
16597911549
16597916859
16597923451
16597928883
16597934743
16597941640
16597947621
16597953847
16597958363
16597965260
16597970143
16597975087
16597980702
16597985829
16597991383
16597998829
16598002491
16598009449
16598013661
16598020863
16598025563
16598030812
16598035450
16598041615
16598046803
16598052540
16598058461
16598064381
16598070240
16598077320
16598082569
16598088551
16598094898
16598099476
16598104420
16598113453
16598119557
16598126026
16598131947
16598140675
16598146168
16598151722
16598155018
16598161732
16598168995
16598175220
16598179920
16598186085
16598190540
16598197803
16598202503
16598208118
16598215748
16598222156
16598227711
16598233509
16598239490
16598246387
16598252369
16598258167
16598264820
16598271900
16598279102
16598283069
16598291797
16598297840
16598301868
16598310047
16598316455
16598322925
16598329822
16598336292
16598341907
16598348316
16598352222
16598358081
16598363758
16598370166
16598374866
16598379810
16598385913
16598390491
16598396228
16598401233
16598406055
16598413257
16598419910
16598424854
16598429004
16598435352
16598439441
16598445911
16598453418
16598458118
16598463245
16598470142
16598475696
16598480945
16598485522
16598490588
16598496814
16598501697
16598505542
16598512012
16598515674
16598521838
16598527026
16598532397
16598537524
16598542773
16598547900
16598553454
16598558581
16598564197
16598570056
16598576098
16598580859
16598586657
16598591540
16598598803
16598603808
16598609057
16598614367
16598621447
16598627673
16598634265
16598640063
16598645129
16598651232
16598657214
16598661669
16598668505
16598674365
16598680773
16598686389
16598691271
16598698168
16598701037
16598708666
16598713854
16598719897
16598726733
16598731310
16598737231
16598741869
16598747485
16598752428
16598757922
16598765002
16598770922
16598776293
16598783068
16598787951
16598793261
16598798205
16598805224
16598810412
16598816271
16598821947
16598827135
16598834826
16598839647
16598844713
16598850817
16598856432
16598863146
16598870714
16598878161
16598882738
16598888537
16598894518
16598902086
16598908312
16598913500
16598919359
16598924120
16598929674
16598934069
