16912189065
16912200540
16912213845
16912225503
16912236062
16912245217
16912253945
16912264016
16912275613
16912284829
16912295815
16912306069
16912315530
16912327492
16912339333
16912350014
16912360573
16912371499
16912381203
16912391396
16912403481
16912411660
16912423012
16912434487
16912442177
16912455788
16912466591
16912476296
16912487160
16912496071
16912509743
16912521340
16912531044
16912541969
16912552345
16912564613
16912576271
16912584938
16912596230
16912608253
16912620338
16912632789
16912642250
16912654396
16912663856
16912675392
16912687233
16912697609
16912710243
16912721290
16912730934
16912740333
16912750709
16912759742
16912768775
16912778846
16912788673
16912795875
16912801978
16912809669
16912814613
16912820594
16912828101
16912833900
16912840797
16912846839
16912852821
16912860267
16912865211
16912872596
16912878333
16912885169
16912891944
16912897437
16912905372
16912910987
16912919471
16912924598
16912930884
16912937659
16912943641
16912949195
16912955298
16912962317
16912968665
16912975196
16912983680
16912993384
16913001929
16913010840
16913018287
16913023108
16913031592
16913038123
16913042884
16913051429
16913057715
16913064429
16913070960
16913077735
16913084082
16913090369
16913098487
16913105383
16913110755
16913118628
16913124365
16913130896
16913138464
16913143836
16913149817
16913156592
16913162695
16913168066
16913173621
16913180823
16913186743
16913192725
16913199133
16913205786
16913210974
16913217627
16913222266
16913229040
16913235327
16913240454
16913248938
16913253760
16913260168
16913268408
16913274939
16913281042
16913287146
16913293188
16913301306
16913306555
16913313513
16913320410
16913326941
16913333532
16913339392
16913346838
16913353186
16913359167
16913365759
16913371679
16913379431
16913383764
16913391393
16913397131
16913402685
16913408911
16913415746
16913420934
16913428137
16913433874
16913440771
16913447546
16913460607
16913467382
16913473913
16913481115
16913488012
16913495641
16913502233
16913509984
16913516393
16913521642
16913529882
16913537877
16913546178
16913554174
16913561254
16913568090
16913576330
16913583837
16913591100
16913599462
16913605199
16913612828
16913620214
16913624486
16913643529
16913651403
16913659337
16913667455
16913680150
16913687779
16913698705
16913703771
16913711339
16913719151
16913724950
16913732823
16913740514
16913747594
16913755772
16913762608
16913769444
16913776891
16913784642
16913791905
16913799290
16913806615
16913812291
16913821263
16913827244
16913836766
16913842442
16913850804
16913859593
16913867466
16913873326
16913880101
16913888585
16913895909
16913903843
16913910557
16913922154
16913928074
16913937413
16913943821
16913952915
16913959690
16913968174
16913973728
16913982395
16913990208
16913994236
16913999241
16914004795
16914010166
16914014256
16914020908
16914025303
16914032688
16914037022
16914042515
16914046665
16914052464
16914056248
16914062351
16914066380
16914073399
16914078281
16914084873
16914089756
16914096470
16914100437
16914107395
16914113499
16914118320
16914123875
16914128757
16914133213
16914139683
16914144504
16914150547
16914155552
16914161716
16914166294
16914171909
16914176792
16914181553
16914187412
16914192051
16914198948
16914204990
16914209262
16914215305
16914219761
16914226535
16914231540
16914238498
16914245395
16914249973
16914255527
16914262485
16914267612
16914273899
16914280124
16914287204
16914297580
16914304477
16914312473
16914317111
16914321872
16914328403
16914332248
16914337741
16914343723
16914348666
16914355136
16914359958
16914366672
16914371310
16914376132
16914381931
16914386996
16914390964
16914396518
16914400546
16914405063
16914411105
16914416354
16914421542
16914426913
16914434421
16914439303
16914448947
16914453647
16914459872
16914465609
16914471774
16914476657
16914482089
16914486178
16914493319
16914499301
16914504855
16914510104
16914515597
16914522189
16914529086
16914534701
16914540560
16914543734
16914552279
16914558322
16914564608
16914570834
16914576754
16914583895
16914589083
16914594027
16914600802
16914606051
16914613375
16914618868
16914624606
16914631991
16914636813
16914641940
16914649203
16914655550
16914660921
16914666293
16914670748
16914677462
16914683443
16914689852
16914694857
16914701205
16914706637
16914711336
16914717013
16914725252
16914730074
16914735140
16914742220
16914747835
16914753695
16914758822
16914764376
16914770418
16914777254
16914782381
16914787752
16914792879
16914800570
16914806185
16914812410
16914819857
16914824739
16914831575
16914837618
16914843355
16914850008
16914854097
16914860933
16914873079
16914878755
16914888765
16914895906
16914901155
16914908113
16914912874
16914917879
16914924410
16914929659
16914936861
16914941682
16914948579
16914953951
16914959749
16914966158
16914971651
16914977693
16914983614
16914989656
16914994722
16915000215
16915005281
16915010591
16915015474
16915020662
16915025361
16915031465
16915037385
16915041841
16915049837
16915054536
16915062837
16915066987
16915072847
16915078218
16915084687
16915091096
16915097749
16915103242
16915108735
16915113923
16915119844
16915125215
16915131684
16915137605
16915141816
16915147981
16915156037
16915163056
16915172883
16915179475
16915187287
16915194428
16915202363
16915212922
16915219575
16915225984
16915235627
16915242280
16915252473
16915258881
16915265656
16915275300
16915282624
16915290253
16915299103
16915306550
16915313813
16915322358
16915330170
16915338471
16915346100
16915354706
16915363495
16915371979
16915379242
16915387604
16915394684
16915402863
16915409699
16915419342
16915425690
16915436005
16915442597
16915450226
16915460358
16915465912
16915475067
16915485687
16915492340
16915502411
16915508331
16915516754
16915522125
16915531281
16915537384
16915547638
16915555023
16915562958
16915570404
16915578339
16915586029
16915596283
16915603180
16915617767
16915627228
16915635040
16915646942
16915654510
16915662750
16915671661
16915679779
16915687652
16915695526
16915702179
16915711700
16915720062
16915727020
16915734527
16915741485
16915749359
16915756317
16915764739
16915771820
16915780364
16915787200
16915797576
16915804290
16915812835
16915819915
16915827361
16915834319
16915842742
16915849700
16915856658
16915864532
16915871246
16915880645
16915887176
16915894622
16915901031
16915908965
16915917693
16915925200
16915933623
16915941375
16915947661
16915957305
16915963897
16915971709
16915980132
16915987578
16915994231
16916003569
16916011565
16916021209
16916029265
16916035979
16916043181
16916052336
16916057463
16916067046
16916073882
16916082183
16916088591
16916096037
16916103606
16916111357
16916119963
16916127654
16916134673
16916142302
16916149199
16916159331
16916168425
16916176360
16916184294
16916190031
16916199492
16916205900
16916215605
16916221892
16916230742
16916241362
16916247954
16916256804
16916263701
16916272551
16916280180
16916287321
16916297087
16916305693
16916313322
16916320341
16916328520
16916338041
16916345915
16916352629
16916361418
16916370756
16916379606
16916394254
16916401640
16916410063
16916416959
16916426481
16916435514
16916444486
16916453031
16916462675
16916469022
16916476713
16916484647
16916492155
16916500333
16916508512
16916515592
16916523771
16916532743
16916541105
16916548551
16916556058
16916565091
16916570218
16916575101
16916582364
16916586759
16916592801
16916597196
16916602384
16916609769
16916616727
16916621366
16916628751
16916633206
16916637418
16916643582
16916648221
16916654752
16916661405
16916666287
16916671720
16916676663
16916681973
16916688016
16916694425
16916699796
16916705350
16916711759
16916716397
16916721341
16916726773
16916731778
16916737332
16916743741
16916749417
16916755460
16916760159
16916765652
16916771878
16916777554
16916780728
16916787320
16916793973
16916799405
16916802701
16916810147
16916816617
16916820645
16916827664
16916833584
16916839261
16916845425
16916853055
16916858914
16916864346
16916870816
16916877224
16916882779
16916887967
16916894131
16916901211
16916906765
16916912564
16916917996
16916924771
16916931057
16916935635
16916940213
16916946987
16916953396
16916958096
16916963345
16916970730
16916975857
16916982815
16916990139
16916995327
16917001980
16917008389
16917013210
16917017361
16917024380
16917030178
16917038418
16917043484
16917052273
16917060085
16917065517
16917073025
16917080715
16917086697
16917094082
16917100063
16917104702
16917110500
16917115383
16917120571
16917125820
16917132046
16917138698
16917142727
16917147609
16917154995
16917161709
16917166347
16917172207
16917177578
16917182155
16917189602
16917195461
16917202236
16917206935
16917212184
16917218532
16917224453
16917229946
16917236415
16917241848
16917246608
16917253139
16917259365
16917266017
16917272060
16917278407
16917284145
16917288722
16917295680
16917302089
16917307094
16917313014
16917320033
16917326076
16917331935
16917338771
16917344325
16917350612
16917358180
16917361293
16917368983
16917375392
16917381984
16917386623
16917396083
16917401393
16917407741
16917412318
16917418910
16917423366
16917429042
16917433986
16917440394
16917447596
16917451625
16917458156
16917463405
16917470057
16917474513
16917480006
16917485682
16917493129
16917497828
16917505336
16917510157
16917515406
16917520594
16917526637
16917533229
16917539576
16917546778
16917553919
16917559352
16917566249
16917572047
16917576686
16917585902
16917592616
16917598963
16917606165
16917612086
16917617884
16917623866
16917628931
16917633692
16917642298
16917647974
16917657069
16917662562
16917668604
16917675806
16917682825
16917687464
16917695460
16917700098
16917706995
16917711573
16917716822
16917722803
16917728113
16917735132
16917739832
16917745630
16917750269
16917754114
16917761072
16917765711
16917770960
16917776148
16917783106
16917789148
16917796534
16917804041
16917811853
16917818628
16917826258
16917833033
16917840235
16917846948
16917855249
16917861658
16917867822
16917876184
16917883875
16917891382
16917898767
16917906336
16917911951
16917918115
16917924768
16917932703
16917939172
16917947656
16917953577
16917962366
16917967248
16917976648
16917983972
16917991968
16917998743
16918006555
16918010827
16918021875
16918028100
16918035913
16918042505
16918050805
16918056726
16918063806
16918073022
16918080224
16918087243
16918094934
16918102441
16918108667
16918115930
16918123742
16918130761
16918137292
16918144860
16918151696
16918159326
16918168115
16918173608
16918181787
16918188989
16918195153
16918202844
16918206872
16918215539
16918221825
16918230431
16918236352
16918245202
16918250756
16918258324
16918265771
16918273522
16918280602
16918289025
16918296776
16918303612
16918312035
16918318688
16918326806
16918334313
16918342553
16918357201
16918363854
16918374047
16918382836
16918389733
16918398705
16918410485
16918417076
16918426415
16918433434
16918439904
16918446984
16918453881
16918461754
16918468590
16918475731
16918482994
16918490440
16918497337
16918505394
16918511620
16918520165
16918528160
16918533714
16918542015
16918549705
16918556602
16918564049
16918572655
16918578392
16918587669
16918595604
16918601585
16918610008
16918615928
16918623924
16918631553
16918638145
16918647300
16918654136
16918660667
16918669395
16918676475
16918684288
16918692772
16918698509
16918707115
16918714134
16918721153
16918729209
16918739952
16918748069
16918755393
16918761924
16918769920
16918779563
16918787986
16918795005
16918803672
16918810203
16918820152
16918826743
16918836631
16918843589
16918851157
16918858604
16918868735
16918876792
16918884177
16918891624
16918898215
16918906821
16918915122
16918923240
16918931113
16918939841
16918946677
16918955771
16918962363
16918969809
16918979453
16918986838
16918994284
16919002524
16919009726
16919015525
16919023947
16919028281
16919039572
16919047263
16919053488
16919060446
16919070151
16919076499
16919086325
16919093283
16919099875
16919110251
16919117087
16919121970
16919128500
16919133444
16919141013
16919148947
16919157065
16919163351
16919170859
16919178915
16919183615
16919190512
16919193503
16919200033
16919204855
16919210165
16919216635
16919222311
16919227499
16919233420
16919239157
16919244162
16919248983
16919252646
16919256430
16919262350
16919266501
16919272787
16919277487
16919282675
16919287558
16919294699
16919299704
16919305746
16919309713
16919314779
16919319174
16919325155
16919330465
16919334799
16919339620
16919345297
16919351217
16919356039
16919362692
16919367697
16919372335
16919377035
16919382833
16919385519
16919392660
16919397848
16919403402
16919407797
16919412679
16919417806
16919423727
16919430135
16919436910
16919443624
16919450094
16919454122
16919459737
16919464986
16919469442
16919473592
16919482870
16919485982
16919492147
16919497030
16919502523
16919508687
16919512166
16919519307
16919525960
16919535299
16919541158
16919546956
16919553792
16919559713
16919566427
16919572225
16919577352
16919583577
16919588399
16919595235
16919599813
16919604695
16919611348
16919617513
16919623189
16919629293
16919634542
16919638997
16919645894
16919651509
16919657247
16919664388
16919671102
16919677266
16919683553
16919689900
16919695638
16919705159
16919709065
16919717366
16919727132
16919731892
16919737996
16919745015
16919752156
16919757405
16919765095
16919770955
16919775960
16919780842
16919786702
16919792317
16919797505
16919803303
16919809590
16919812520
16919820393
16919825520
16919830098
16919832600
16919839314
16919845540
16919851216
16919856160
16919860920
16919865681
16919872517
16919877156
16919882222
16919885151
16919892353
16919895649
16919903035
16919909321
16919915181
16919921589
16919928242
16919935627
16919943073
16919949299
16919954853
16919963154
16919968525
16919973591
16919979267
16919987080
16919992268
16919997761
16920004292
16920010517
16920017353
16920022846
16920028706
16920034565
16920039814
16920045734
16920052082
16920057819
16920062092
16920068806
16920074848
16920082477
16920087238
16920092914
16920098408
16920105488
16920109638
16920116779
16920122883
16920128010
16920133869
16920144367
16920150592
16920156818
16920163044
16920167438
16920173481
16920180439
16920186481
16920190937
16920197406
16920201618
16920207660
16920213459
16920219257
16920224933
16920229999
16920235492
16920240741
16920245563
16920253375
16920261432
16920269306
16920284869
16920296405
16920301349
16920314533
16920322223
16920330890
16920337848
16920345477
16920350482
16920357745
16920366107
16920371051
16920379413
16920386981
16920393268
16920399798
16920405841
16920413531
16920419757
16920426288
16920435260
16920443560
16920449908
16920456988
16920465167
16920471881
16920479998
16920488787
16920494647
16920502642
16920510516
16920517596
16920526202
16920532916
16920541155
16920550006
16920558184
16920564105
16920571002
16920578936
16920586688
16920595721
16920602374
16920609209
16920617632
16920625750
16920632708
16920641253
16920647539
16920656756
16920664812
16920672320
16920679034
16920688311
16920694414
16920703936
16920711260
16920720354
16920728106
16920733721
16920741472
16920747271
16920757280
16920764727
16920772478
16920781328
16920787920
16920796404
16920802263
16920810503
16920816240
16920829607
16920836809
16920843950
16920847856
16920858598
16920864397
16920871294
16920881426
16920887834
16920897600
16920907610
16920914995
16920923784
16920931474
16920939775
16920947343
16920956499
16920966691
16920975419
16920983598
16920992937
16921006914
16921014055
16921024064
16921032304
16921038102
16921048723
16921055253
16921062089
16921068681
16921078141
16921085527
16921092363
16921099443
16921106279
16921116960
16921122209
16921130021
16921136369
16921145890
16921154618
16921162797
16921170060
16921180131
16921186051
16921194779
16921203080
16921211076
16921218339
16921226273
16921235490
16921243973
16921251298
16921259232
16921268326
16921276444
16921286088
16921293473
16921300187
16921308671
16921317582
16921324967
16921334244
16921343766
16921351578
16921357804
16921367936
16921375626
16921383011
16921392411
16921399674
16921406571
16921420365
16921427872
16921435501
16921444718
16921451554
16921461685
16921468216
16921478653
16921486343
16921494949
16921503555
16921510391
16921517410
16921525101
16921534195
16921541519
16921549881
16921555191
16921560074
16921566788
16921571487
16921576919
16921579788
16921590530
16921595169
16921600967
16921607498
16921613235
16921617996
16921623977
16921632217
16921637771
16921642166
16921649612
16921655471
16921661514
16921666275
16921672256
16921678665
16921684219
16921690689
16921697952
16921708572
16921716201
16921722915
16921728958
16921736709
16921741348
16921747085
16921751724
16921755996
16921760818
16921766494
16921771072
16921778091
16921783706
16921786514
16921794021
16921800063
16921805923
16921811050
16921816848
16921822524
16921827956
16921833511
16921838332
16921844741
16921851150
16921856887
16921861465
16921867080
16921874038
16921880446
16921884719
16921889052
16921896316
16921901443
16921908400
16921913588
16921917861
16921924697
16921930373
16921935927
16921941909
16921947341
16921953627
16921958510
16921965163
16921971511
16921976821
16921981581
16921987197
16921995558
16922000380
16922004592
16922012099
16922017653
16922023268
16922028029
16922034499
16922041335
16922047621
16922050734
16922058363
16922064101
16922070937
16922075697
16922080580
16922086195
16922095412
16922100295
16922106154
16922113173
16922116652
16922122633
16922130080
16922136671
16922142714
16922148695
16922154555
16922160292
16922165236
16922172743
16922176222
16922182020
16922189833
16922195082
16922200575
16922207594
16922213942
16922219435
16922227125
16922231520
16922237684
16922244459
16922251051
16922257643
16922264235
16922269606
16922276319
16922282057
16922287184
16922294020
16922306349
16922313124
16922320326
16922326612
16922332472
16922337538
16922343458
16922348646
16922356947
16922361036
16922367079
16922370313
16922378736
16922383741
16922389234
16922395521
16922401441
16922404493
16922411451
16922417554
16922422254
16922427137
16922434034
16922441114
16922446729
16922453382
16922457410
16922461988
16922469190
16922472242
16922479871
16922487623
16922492566
16922499158
16922505262
16922511182
16922518079
16922523023
16922528821
16922534253
16922540845
16922545789
16922552930
16922557874
16922564954
16922570569
16922575086
16922581006
16922589795
16922595838
16922599744
16922605725
16922611341
16922618299
16922623975
16922628430
16922633863
16922641309
16922646497
16922653333
16922659802
16922666272
16922671765
16922677258
16922684522
16922691052
16922698193
16922703076
16922710400
16922716199
16922721631
16922728467
16922734143
16922737805
16922747510
16922752026
16922760144
16922765576
16922774548
16922778332
16922789624
16922796460
16922806042
16922811963
16922821301
16922828503
16922835095
16922843335
16922850171
16922857129
16922867138
16922875256
16922881970
16922888195
16922897473
16922904919
16922911755
16922920300
16922929943
16922940380
16922948193
16922959606
16922967541
16922976940
16922984264
16922995007
16923005993
16923014111
16923023693
16923032177
16923039806
16923048168
16923055736
16923065502
16923072643
16923081554
16923086071
16923096264
16923102001
16923110363
16923116893
16923125988
16923135936
16923140514
16923149730
16923157055
16923165477
16923172008
16923180126
16923186473
16923194835
16923202281
16923210948
16923218395
16923227123
16923233531
16923241344
16923248485
16923258617
16923265392
16923274425
16923281505
16923288402
16923295238
16923303172
16923311046
16923319774
16923326060
16923333751
16923341441
16923349010
16923358104
16923364879
16923373729
16923381358
16923390208
16923398326
16923406505
16923413340
16923419871
16923429393
16923435496
16923444346
16923449778
16923461436
16923473704
16923480784
16923490489
16923502513
16923510569
16923518992
16923525706
16923533030
16923539805
16923546702
16923552744
16923558787
16923565623
16923572154
16923578806
16923584300
16923591380
16923598399
16923605479
16923612193
16923619151
16923626841
16923634104
16923641306
16923648997
16923655833
16923663828
16923670664
16923677927
16923684580
16923692515
16923699167
16923706308
16923713755
16923720041
16923726267
16923736033
16923742868
16923753611
16923760324
16923769724
16923776438
16923785715
16923791513
16923800547
16923806040
16923817087
16923824472
16923831064
16923837839
16923845346
16923850534
16923858103
16923865793
16923872324
16923879282
16923888559
16923895700
16923902658
16923911325
16923918283
16923926034
16923934946
16923940683
16923948984
16923955575
16923961923
16923969797
16923976266
16923982370
16923991830
16923998849
16924006845
16924012094
16924020883
16924027475
16924034189
16924040170
16924049752
16924056344
16924065561
16924072457
16924078805
16924085397
16924092294
16924100900
16924108041
16924114633
16924119271
16924123666
16924128732
16924134652
16924139352
16924144418
16924150643
16924155221
16924160409
16924164803
16924171151
16924175240
16924180917
16924186837
16924194405
16924199105
16924206368
16924210824
16924216866
16924220956
16924225167
16924231759
16924236153
16924242867
16924247750
16924253060
16924257638
16924263924
16924268502
16924274239
16924279122
16924286873
16924289803
16924296029
16924301888
16924307625
16924310250
16924317086
16924322945
16924327706
16924334786
16924338753
16924346077
16924352913
16924356453
16924362740
16924368111
16924373360
16924378182
16924383797
16924388985
16924396492
16924400643
16924407967
16924413826
16924420662
16924426705
16924431587
16924436531
16924440987
16924445381
16924449593
16924453194
16924460335
16924464180
16924469734
16924473579
16924477913
16924483589
16924488228
16924494148
16924500862
16924504524
16924510262
16924514778
16924520027
16924525032
16924531319
16924535896
16924542671
16924547493
16924552376
16924557014
16924561714
16924566292
16924571174
16924577400
16924582954
16924587532
16924593391
16924599190
16924605415
16924610420
16924616890
16924620857
16924629158
16924634224
16924639473
16924644294
16924649971
16924654975
16924659736
16924665657
16924672676
16924677375
16924682441
16924687995
16924693244
16924696235
16924702583
16924706855
16924716072
16924720283
16924725349
16924731513
16924736579
16924740547
16924746772
16924751411
16924756477
16924759467
16924767707
16924772102
16924777351
16924782600
16924787849
16924791938
16924797981
16924802863
16924808479
16924814094
16924819526
16924823920
16924829352
16924835212
16924840278
16924846747
16924851020
16924856940
16924861213
16924868049
16924871528
16924876655
16924882880
16924889350
16924894965
16924900458
16924905951
16924910956
16924915839
16924919989
16924925788
16924933295
16924938361
16924947211
16924952765
16924958014
16924962653
16924969245
16924973944
16924982856
16924986212
16924992987
16924998603
16925002936
16925007208
16925011725
16925016730
16925021613
16925026557
16925032843
16925037604
16925042243
16925047736
16925052374
16925056708
16925062018
16925067633
16925072333
16925077399
16925082709
16925086615
16925091681
16925097113
16925103583
16925108527
16925113898
16925117926
16925122687
16925128058
16925134039
16925137762
16925143683
16925149908
16925153631
16925158941
16925164984
16925169684
16925175360
16925179449
16925187384
16925193792
16925199041
16925208441
16925215338
16925221991
16925228338
16925235601
16925239325
16925252874
16925260870
16925268499
16925276678
16925284429
16925291387
16925298773
16925305731
16925313726
16925322637
16925328863
16925334844
16925342596
16925351263
16925359136
16925365728
16925375311
16925381963
16925389288
16925398260
16925405340
16925412603
16925420232
16925427129
16925435003
16925443670
16925453008
16925461492
16925467595
16925475042
16925482915
16925490911
16925497381
16925506658
16925513067
16925523320
16925529485
16925538701
16925544683
16925553777
16925559880
16925569707
16925576787
16925584294
16925593633
16925601872
16925609685
16925619206
16925626531
16925636907
16925645879
16925654241
16925660161
16925667912
16925676030
16925681279
16925689885
16925699162
16925705266
16925713322
16925719914
16925727666
16925733952
16925740788
16925748906
16925756413
16925765019
16925771489
16925780095
16925785710
16925793767
16925800175
16925806340
16925814824
16925821598
16925828495
16925835209
16925841435
16925850346
16925855961
16925864445
16925871403
16925880558
16925887821
16925894718
16925901432
16925909306
16925916508
16925923893
16925934269
16925942814
16925947270
16925957707
16925965519
16925972965
16925976933
16925987370
16925993473
16926004581
16926011295
16926018742
16926026615
16926031742
16926041019
16926047611
16926056583
16926063419
16926072880
16926079471
16926088444
16926094913
16926102909
16926117313
16926139225
16926151187
16926163761
16926173343
16926182254
16926189579
16926196536
16926204105
16926211551
16926220584
16926227237
16926234805
16926241702
16926248843
16926256168
16926263309
16926270511
16926278995
16926286624
16926294131
16926300967
16926306888
16926314700
16926321780
16926327273
16926338687
16926345218
16926354373
16926360782
16926370059
16926376468
16926383182
16926392276
16926402835
16926410769
16926416995
16926427371
16926436831
16926444705
16926452151
16926458560
16926467898
16926476687
16926483035
16926489688
16926497866
16926504336
16926512454
16926519473
16926528140
16926535220
16926542788
16926549319
16926556521
16926563418
16926568728
16926576846
16926582339
16926586855
16926593203
16926598635
16926604311
16926611208
16926618410
16926623598
16926629580
16926634646
16926639651
16926645205
16926650210
16926654909
16926661440
16926669069
16926674257
16926681337
16926687929
16926693178
16926699282
16926705263
16926709169
16926716066
16926720339
16926726687
16926730837
16926738039
16926743532
16926748659
16926751345
16926758852
16926765261
16926770632
16926775515
16926780764
16926786257
16926792909
16926798158
16926803469
16926808595
16926814028
16926818849
16926825441
16926830812
16926836061
16926840639
16926847353
16926852846
16926858339
16926863466
16926869020
16926874635
16926881288
16926886964
16926893800
16926898134
16926903688
16926909425
16926914918
16926921388
16926927431
16926933290
16926938844
16926944459
16926950014
16926954530
16926961793
16926964479
16926973451
16926979188
16926984681
16926991029
16926999086
16927005739
16927014283
16927024171
16927030885
16927036744
16927041932
16927047303
16927051454
16927057069
16927062196
16927067872
16927072877
16927078553
16927083192
16927088136
16927092774
16927099244
16927104737
16927110353
16927114625
16927119142
16927125794
16927130250
16927135743
16927142030
16927146485
16927151978
16927156251
16927162232
16927167542
16927175233
16927183839
16927192200
16927198304
16927206361
16927210999
16927216370
16927222352
16927227174
16927234681
16927239686
16927245362
16927250001
16927255189
16927260132
16927265809
16927270875
16927276368
16927282959
16927286866
16927294495
16927298890
16927304932
16927307984
16927317688
16927324158
16927330017
16927337464
16927343689
16927348816
16927355896
16927362366
16927368408
16927373535
16927379029
16927384339
16927391297
16927397156
16927401612
16927409119
16927413635
16927418579
16927426087
16927430786
16927438538
16927444824
16927451904
16927457459
16927463928
16927469177
16927476868
16927481384
16927489258
16927499390
16927506836
16927512756
16927518555
16927523620
16927530273
16927536133
16927543030
16927548034
16927554138
16927559082
16927565124
16927572571
16927577698
16927586914
16927595215
16927601440
16927608276
16927614685
16927621154
16927626831
16927633850
16927638488
16927643249
16927649108
16927654357
16927658996
16927665039
16927670654
16927678588
16927682617
16927687927
16927693359
16927700195
16927705932
16927712036
16927717712
16927725585
16927730102
16927740173
16927747009
16927754150
16927759948
16927768066
16927774230
16927783752
16927790160
16927798461
16927804565
16927812255
16927817931
16927825194
16927832763
16927842040
16927850524
16927859435
16927866515
16927872558
16927880797
16927888854
16927896544
16927903380
16927912169
16927920287
16927928099
16927935485
16927942137
16927948607
16927958251
16927964476
16927971068
16927980895
16927986571
16927996031
16928001525
16928009886
16928019530
16928027403
16928034422
16928042235
16928049376
16928057311
16928064940
16928072142
16928079283
16928086607
16928091002
16928101134
16928109068
16928115050
16928122923
16928130003
16928136168
16928144774
16928151610
16928157774
16928164976
16928173948
16928179686
16928186400
16928195860
16928202940
16928210691
16928217649
16928225950
16928233702
16928241880
16928249632
16928258055
16928264891
16928271055
16928277464
16928288206
16928294615
16928301084
16928310362
16928316282
16928328489
16928335081
16928348142
16928356931
16928363401
16928372495
16928378660
16928386839
16928393003
16928401792
16928408323
16928417051
16928423643
16928430662
16928439145
16928444761
16928451475
16928460081
16928467405
16928473752
16928481321
16928489194
16928495786
16928501035
16928510923
16928518064
16928525327
16928529721
16928539792
16928548459
16928554196
16928560056
16928568418
16928574643
16928584897
16928592832
16928600644
16928607724
16928612729
16928622189
16928629025
16928634763
16928642453
16928649777
16928657529
16928664548
16928672971
16928680112
16928687253
16928694516
16928701230
16928709225
16928718625
16928726620
16928733578
16928741269
16928745785
16928755795
16928762387
16928771664
16928778256
16928785885
16928795773
16928802060
16928809445
16928816769
16928824643
16928831051
16928839291
16928849667
16928857357
16928865048
16928872982
16928883724
16928892575
16928903256
16928911923
16928922360
16928931027
16928938656
16928948483
16928954525
16928962826
16928967098
16928980709
16928989132
16928997372
16929004513
16929012813
16929020504
16929029232
16929036434
16929045040
16929053829
16929062679
16929069149
16929077511
16929085506
16929093807
16929099849
16929109005
16929114925
16929120418
16929130977
16929137264
16929143917
16929151180
16929156551
16929161129
16929166622
16929174007
16929177913
16929182979
16929188960
16929193904
16929198604
16929204646
16929211055
16929215328
16929220027
16929226192
16929232173
16929236202
16929241695
16929247920
16929253291
16929258601
16929263301
16929269099
16929274348
16929278377
16929284175
16929290279
16929297114
16929302669
16929307918
16929314387
16929318904
16929325069
16929330379
16929335506
16929340510
16929346919
16929351192
16929357722
16929362361
16929369075
16929377070
16929381892
16929388789
16929394526
16929401362
16929406001
16929413691
16929419917
16929427363
16929433406
16929438960
16929445063
16929451167
16929456660
16929462214
16929469477
16929474848
16929480036
16929486384
16929490595
16929497065
16929501399
16929508112
16929516474
16929521479
16929527094
16929533747
16929540156
16929544795
16929549982
16929557490
16929563471
16929569025
16929574580
16929580927
16929586909
16929591181
16929597773
16929603205
16929610773
16929617426
16929622858
16929629206
16929635981
16929640864
16929647455
16929653986
16929659723
16929666926
16929672114
16929678461
16929683771
16929692499
16929700190
16929707941
16929713434
16929721552
16929726862
16929731928
16929738031
16929744440
16929750177
16929754572
16929760431
16929767511
16929773554
16929779535
16929784418
16929788812
16929795404
16929802179
16929806940
16929811701
16929817743
16929822870
16929828973
16929834772
16929840631
16929846185
16929850580
16929857721
16929862177
16929868097
16929874567
16929880060
16929885431
16929892145
16929897516
16929902887
16929909051
16929913873
16929920221
16929925653
16929931940
16929938409
16929941949
16929948785
16929954217
16929959100
16929965204
16929971734
16929976495
16929983331
16929990045
16929994684
16929999810
16930006341
16930012994
16930020074
16930025079
16930031671
16930036798
16930042047
16930048272
16930053399
16930060418
16930067498
16930072747
16930079705
16930084710
16930090020
16930095880
16930102654
16930108514
16930115167
16930121209
16930125482
16930132012
16930137444
16930142999
16930149468
16930154900
16930161492
16930166314
16930173333
16930178216
16930183404
16930189446
16930196526
16930201775
16930207329
16930213433
16930219781
16930227044
16930236138
16930245049
16930254632
16930264824
16930273919
16930282280
16930291497
16930300225
16930309014
16930317376
16930326836
16930333550
16930343865
16930350273
16930357537
16930366875
16930374199
16930381523
16930390251
16930398186
16930406304
16930413689
16930421257
16930429497
16930436882
16930445000
16930454216
16930462456
16930470451
16930476860
16930483208
16930493156
16930499748
16930507988
16930517876
16930524467
16930534355
16930542106
16930549553
16930556755
16930565422
16930573234
16930581474
16930591056
16930599418
16930606498
16930614738
16930624076
16930632988
16930641227
16930647514
16930656608
16930665519
16930672416
16930678642
16930688285
16930694816
16930704154
16930711601
16930719535
16930727897
16930735770
16930743827
16930752067
16930760307
16930768974
16930773490
16930784598
16930791984
16930802787
16930841117
16930851127
16930860038
16930867728
16930877494
16930884513
16930894767
16930902640
16930908500
16930916495
16930925345
16930932242
16930941275
16930947623
16930954215
16930965079
16930974295
16930980521
16930989798
16930996329
16931006217
16931012503
16931019095
16931028372
16931036063
16931045889
16931051260
16931060782
16931068533
16931076651
16931085989
16931093130
16931102225
16931112601
16931121084
16931126944
16931136831
16931142813
16931150625
16931159048
16931165518
16931174185
16931180838
16931188162
16931193106
16931201468
16931208609
16931217398
16931225576
16931234487
16931241629
16931247976
16931255606
16931262014
16931269216
16931276174
16931282461
16931291860
16931300161
16931306631
16931312612
16931319692
16931327383
16931334158
16931341421
16931348745
16931354848
16931364187
16931369863
16931377248
16931385610
16931390859
16931400014
16931408193
16931415761
16931423147
16931430837
16931437917
16931444631
16931451894
16931458181
16931467153
16931473317
16931482229
16931488027
16931497060
16931505300
16931510549
16931519399
16931529836
16931536367
16931543386
16931552602
16931560597
16931567555
16931575368
16931582875
16931590383
16931598073
16931604299
16931610097
16931615224
16931620534
16931625783
16931630360
16931635609
16931642690
16931647878
16931653127
16931658620
16931664052
16931670094
16931692250
16931699086
16931705434
16931710316
16931714406
16931720875
16931724843
16931730519
16931736683
16931742055
16931746998
16931752980
16931758412
16931764576
16931769215
16931774281
16931779347
16931785389
16931791188
16931797596
16931803090
16931809132
16931814442
16931820240
16931826771
16931832814
16931838185
16931843922
16931847462
16931853565
16931857777
16931862049
16931867604
16931873646
16931877979
16931882618
16931888783
16931894703
16931900196
16931904957
16931910023
16931914723
16931920399
16931924793
16931928455
16931934132
16931940662
16931946644
16931952869
16931958851
16931963001
16931968372
16931974110
16931979969
16931985401
16931990833
16931995228
16932002918
16932006397
16932012684
16932017994
16932023548
16932028614
16932033436
16932039295
16932046192
16932051807
16932057056
16932062244
16932067432
16932073902
16932078846
16932084217
16932089649
16932095142
16932098621
16932105152
16932110523
16932115284
16932121875
16932125904
16932131763
16932138782
16932144641
16932150073
16932154773
16932158618
16932164600
16932169849
16932175281
16932181934
16932189441
16932192554
16932200672
16932205188
16932210010
16932216235
16932220386
16932227527
16932232898
16932240283
16932245837
16932251697
16932257251
16932262073
16932267322
16932273303
16932280566
16932285693
16932291492
16932296924
16932302905
16932307422
16932313586
16932317554
16932322192
16932329883
16932334887
16932340808
16932346789
16932351916
16932363574
16932370166
16932378039
16932385363
16932389697
16932399646
16932403247
16932408496
16932411853
16932416613
16932420764
16932427172
16932430834
16932437792
16932442370
16932449938
16932456347
16932461230
16932467455
16932472460
16932476977
16932484240
16932488513
16932495593
16932503344
16932508410
16932514941
16932520190
16932526659
16932531664
16932538256
16932543383
16932549914
16932554308
16932560656
16932565234
16932570361
16932574938
16932580553
16932583666
16932593249
16932599962
16932605639
16932610461
16932615587
16932618517
16932624560
16932629809
16932636461
16932641283
16932646654
16932652758
16932659472
16932664476
16932670641
16932676622
16932682177
16932687975
16932692797
16932699877
16932705126
16932712267
16932718676
16932726244
16932736315
16932745897
16932754015
16932758715
16932769701
16932776598
16932787035
16932793749
16932803880
16932811754
16932819688
16932827623
16932835252
16932844591
16932852892
16932862169
16932869554
16932877244
16932884202
16932892992
16932899522
16932908678
16932918138
16932926195
16932933763
16932941392
16932949388
16932960313
16932967820
16932976243
16932984788
16932995530
16933002855
16933013108
16933022325
16933028733
16933036729
16933047044
16933053880
16933061448
16933071763
16933078477
16933088181
16933094773
16933106004
16933114732
16933123093
16933129746
16933137925
16933147385
16933155564
16933163560
16933171860
16933180100
16933188523
16933197800
16933206162
16933213303
16933221421
16933230637
16933238938
16933245408
16933253464
16933259873
16933269822
16933279221
16933287583
16933294053
16933303635
16933313645
16933321823
16933336228
16933345566
16933353867
16933362168
16933369431
16933379929
16933387619
16933395981
16933404099
16933412399
16933419785
16933427963
16933435837
16933444321
16933454330
16933462875
16933470261
16933478317
16933486313
16933494125
16933500229
16933512008
16933521103
16933529587
16933537826
16933546554
16933554367
16933564132
16933571029
16933581344
16933589645
16933598434
16933606430
16933612411
16933619430
16933627792
16933636398
16933645309
16933652877
16933659591
16933668991
16933674911
16933681075
16933690719
16933700546
16933706893
16933715560
16933723373
16933728072
16933736861
16933744674
16933751449
16933762984
16933769149
16933775252
16933785628
16933791488
16933801253
16933811385
16933819381
16933830855
16933839461
16933847701
16933856795
16933867171
16933874373
16933883406
16933892501
16933900374
16933908004
16933913924
16933921492
16933930464
16933938765
16933946883
16933955916
16933961714
16933969527
16933977828
16933985152
16933991072
16934000960
16934009749
16934017256
16934023604
16934033980
16934042647
16934049544
16934056868
16934066695
16934074019
16934082686
16934090681
16934096602
16934103987
16934110701
16934114973
16934121199
16934125715
16934131514
16934137983
16934144392
16934149702
16934155439
16934160933
16934166426
16934171736
16934177168
16934182539
16934187788
16934194258
16934199934
16934208235
16934213667
16934220747
16934226728
16934233076
16934239546
16934245649
16934251264
16934257063
16934264021
16934269697
16934275251
16934281355
16934287580
16934293623
16934299055
16934304060
16934309797
16934316389
16934322553
16934327131
16934333295
16934337446
16934344282
16934349714
16934357893
16934362653
16934369916
16934376142
16934381513
16934386579
16934393171
16934398786
16934403730
16934411176
16934418378
16934423932
16934428815
16934434614
16934440900
16934450483
16934461652
16934468061
16934475141
16934482160
16934491010
16934497541
16934504804
16934509626
16934515729
16934521344
16934525189
16934531354
16934535626
16934543683
16934548444
16934553266
16934558576
16934565045
16934569867
16934574140
16934579205
16934585614
16934591473
16934595502
16934601849
16934606000
16934610761
16934617108
16934622113
16934627423
16934634259
16934640424
16934645795
16934650616
16934657147
16934661298
16934669476
16934675580
16934680463
16934685284
16934690900
16934694745
16934700787
16934706891
16934712994
16934719220
16934724957
16934730938
16934735394
16934741742
16934747479
16934752057
16934761334
16934767132
16934773907
16934778119
16934784893
16934789349
16934794964
16934798199
16934806500
16934813580
16934818524
16934823468
16934829449
16934834149
16934840191
16934845684
16934851422
16934859051
16934863568
16934870037
16934876690
16934882916
16934888470
16934894268
16934902203
16934908245
16934914105
16934920025
16934925152
16934931072
16934936993
16934943584
16934952007
16934957500
16934963299
16934969097
16934975689
16934981243
16934987835
16934992840
16934999737
16935005413
16935012371
16935018108
16935026531
16935033428
16935041790
16935048748
16935058696
16935064800
16935071514
16935077251
16935082439
16935086834
16935094219
16935098552
16935104778
16935110271
16935115398
16935119853
16935126018
16935132060
16935138774
16935144451
16935149944
16935154216
16935160198
16935166118
16935170207
16935176372
16935182475
16935187175
16935193767
16935200115
16935203777
16935210124
16935215129
16935222209
16935229228
16935234416
16935240031
16935245158
16935250774
16935259380
16935266337
16935275676
16935285136
16935294292
16935304301
16935310710
16935321025
16935329753
16935337993
16935349772
16935360331
16935367717
16935376872
16935384745
16935394511
16935404216
16935411051
16935420939
16935426982
16935439494
16935447001
16935456706
16935464396
16935476725
16935485026
16935494425
16935500712
16935510355
16935519816
16935526591
16935536234
16935545328
16935555277
16935561869
16935573405
16935583842
16935591288
16935601053
16935607096
16935613444
16935623697
16935631144
16935640482
16935647806
16935653482
16935664042
16935671183
16935679178
16935689188
16935695658
16935702433
16935711344
16935717325
16935725565
16935732340
16935738993
16935746988
16935755838
16935771585
16935778665
16935786844
16935796915
16935810465
16935817239
16935825662
16935831461
16935838113
16935845071
16935852396
16935860574
16935868265
16935876199
16935884134
16935890787
16935896219
16935901956
16935910989
16935917032
16935927286
16935933511
16935941873
16935948648
16935954934
16935963601
16935969033
16935977822
16935983804
16935993020
16935999551
16936006204
16936011697
16936019448
16936026895
16936034829
16936041177
16936048806
16936055215
16936063455
16936071999
16936080850
16936087747
16936094460
16936102822
16936111489
16936116982
16936125710
16936132058
16936138467
16936144875
16936153664
16936161721
16936169472
16936175454
16936183755
16936192910
16936199990
16936207192
16936215310
16936221901
16936230019
16936234047
16936243203
16936249001
16936256508
16936263161
16936273537
16936280068
16936287209
16936296547
16936302285
16936310463
16936318764
16936325905
16936331887
16936340737
16936349526
16936357887
16936364723
16936372719
16936377358
16936385231
16936394569
16936399880
16936411903
16936420692
16936428383
16936433510
16936442787
16936449196
16936458778
16936465736
16936473244
16936483070
16936490761
16936497536
16936507850
16936514198
16936524574
16936534523
16936543678
16936552894
16936563087
16936569007
16936579017
16936585975
16936593788
16936602027
16936609535
16936615943
16936625831
16936631935
16936637916
16936644142
16936650184
16936655799
16936660011
16936664588
16936672401
16936675392
16936683509
16936688270
16936694373
16936698768
16936705360
16936709998
16936715186
16936721473
16936727393
16936731849
16936736671
16936743629
16936749305
16936754554
16936760047
16936766822
16936771705
16936777320
16936783912
16936790259
16936795447
16936801368
16936804786
16936813270
16936819129
16936825477
16936830604
16936836707
16936841346
16936848609
16936854041
16936862098
16936867163
16936872901
16936878516
16936884375
16936890601
16936894934
16936902442
16936907874
16936914466
16936919959
16936924781
16936930579
16936937171
16936942114
16936948645
16936953650
16936960547
16936966040
16936972693
16936977332
16936982764
16936990271
16936995459
16937000769
16937007544
16937013831
16937019873
16937026526
16937031897
16937038061
16937044104
16937049048
16937055212
16937062842
16937070166
16937075537
16937082373
16937087073
16937092444
16937100989
16937109717
16937115698
16937122595
16937127295
16937134314
16937141211
16937145910
16937150427
16937157263
16937165503
16937171362
16937177771
16937184607
16937192114
16937198400
16937205908
16937210974
16937221105
16937228124
16937234411
16937240026
16937245703
16937251257
16937256933
16937260229
16937267919
16937273657
16937279882
16937285680
16937289648
16937295263
16937301489
16937306432
16937313696
16937317968
16937322729
16937329687
16937334325
16937341466
16937346044
16937351842
16937358251
16937363256
16937368078
16937374303
16937378820
16937384618
16937390111
16937396520
16937402257
16937408361
16937414892
16937421544
16937425023
16937432409
16937437658
16937442357
16937449926
16937455724
16937461034
16937466039
16937473424
16937479589
16937485326
16937489782
16937495702
16937501744
16937507482
16937513097
16937519872
16937526097
16937532018
16937537999
16937543309
16937548192
16937555577
16937560643
16937569249
16937573705
16937579198
16937583592
16937590062
16937596227
16937601903
16937605992
16937611974
16937618443
16937624791
16937629979
16937636204
16937642552
16937649327
16937654637
16937660191
16937666295
16937672398
16937678013
16937683690
16937689244
16937697789
16937704381
16937708897
16937716038
16937721959
16937728978
16937734227
16937741551
16937750035
16937754612
16937761631
16937768834
16937774998
16937780674
16937788487
16937795201
16937802525
16937808506
16937814976
16937820713
16937827000
16937835728
16937841831
16937847935
16937854649
16937858616
16937866001
16937870396
16937876865
16937882359
16937887852
16937891880
16937898655
16937903233
16937908665
16937914097
16937918552
16937925083
16937929172
16937935215
16937941441
16937947666
16937952610
16937958774
16937963962
16937968052
16937972996
16937978062
16937985019
16937991306
16937999729
16938006321
16938013462
16938020420
16938025058
16938031650
16938037693
16938040744
16938047825
16938053135
16938059726
16938062839
16938071018
16938075534
16938082553
16938088230
16938095493
16938101779
16938105503
16938111911
16938117588
16938123142
16938128452
16938135593
16938141452
16938146518
16938151584
16938157138
16938161472
16938167697
16938174655
16938180148
16938184909
16938190463
16938196140
16938202243
16938208041
16938213962
16938220248
16938226535
16938231723
16938237338
16938242160
16938248813
16938253696
16938259494
16938264865
16938272067
16938277438
16938283908
16938290072
16938295382
16938300815
16938306003
16938312655
16938318393
16938325168
16938331088
16938337924
16938343844
16938349704
16938355136
16938361605
16938366854
16938373385
16938378268
16938383395
16938392367
16938397250
16938406588
16938412814
16938418856
16938425509
16938433016
16938439608
16938446810
16938452303
16938458590
16938463961
16938468478
16938473727
16938479891
16938484835
16938489657
16938494357
16938501498
16938506014
16938511263
16938516817
16938523959
16938528109
16938534945
16938539278
16938546541
16938552462
16938558321
16938561190
16938568758
16938573397
16938580660
16938584933
16938591036
16938596102
16938602327
16938608919
16938614596
16938621126
16938625521
16938632784
16938638582
16938643587
16938650057
16938655184
16938659822
16938667452
16938671785
16938677523
16938683870
16938689791
16938696688
16938701448
16938708711
16938712679
16938720125
16938726351
16938731905
16938738802
16938744478
16938749056
16938755892
16938764742
16938770540
16938775545
16938782198
16938788545
16938794649
16938799715
16938807344
16938812532
16938817598
16938824373
16938829439
16938835603
16938840486
16938846406
16938853487
16938859224
16938864900
16938871004
16938874666
16938883516
16938888582
16938894319
16938899568
16938905183
16938913484
16938917878
16938925569
16938929902
16938935945
16938942781
16938948640
16938954805
16938960420
16938967866
16938976777
16938981782
16938987702
16938993806
16939001313
16939006745
16939016328
16939023835
16939030488
16939040437
16939046052
16939055512
16939062531
16939068025
16939074616
16939079865
16939085297
16939092194
16939097627
16939103852
16939108308
16939115144
16939121796
16939128327
16939133637
16939140778
16939145234
16939152253
16939156342
16939163422
16939167695
16939175080
16939180024
16939185578
16939191376
16939196503
16939201142
16939206330
16939210541
16939218720
16939223664
16939228791
16939233918
16939239350
16939245026
16939250885
16939254120
16939263520
16939268708
16939274140
16939280182
16939285981
16939290985
16939296784
16939301850
16939309357
16939316803
16939321015
16939327789
16939332123
16939339081
16939345551
16939350922
16939355866
16939363251
16939368134
16939375031
16939379730
16939385284
16939391815
16939397797
16939400787
16939409943
16939415924
16939421478
16939426178
16939433502
16939438202
16939442963
16939449615
16939455536
16939466888
16939475921
16939483673
16939492645
16939500030
16939508697
16939519928
16939527618
16939537933
16939550384
16939559539
16939567596
16939575714
16939584686
16939593963
16939601287
16939610504
16939619781
16939628326
16939635162
16939643035
16939650543
16939658111
16939667327
16939676421
16939684905
16939692168
16939700713
16939709991
16939717986
16939725066
16939734099
16939740508
16939749114
16939756072
16939764800
16939772063
16939778899
16939786529
16939795257
16939800872
16939809234
16939816131
16939824492
16939833281
16939838958
16939846221
16939854461
16939860259
16939868438
16939874724
16939883086
16939891448
16939900176
16939907378
16939913176
16939920989
16939929411
16939936431
16939944121
16939951811
16939957610
16939970854
16939983183
16939995451
16940009306
16940022917
16940035429
16940046049
16940056608
16940067656
16940078154
16940090422
16940102690
16940114775
16940127287
16940139006
16940148344
16940159086
16940166227
16940174467
16940183561
16940189482
16940198698
16940205656
16940214384
16940222074
16940228849
16940236906
16940245817
16940253629
16940261198
16940266996
16940275358
16940283231
16940290617
16940298917
16940304472
16940314115
16940322294
16940330228
16940337553
16940347562
16940358488
16940366117
16940372465
16940379911
16940386991
16940394864
16940402005
16940410367
16940418729
16940425565
16940433316
16940440091
16940447721
16940454007
16940463529
16940473172
16940481473
16940489041
16940495023
16940504056
16940508328
16940518888
16940526456
16940537686
16940544522
16940553861
16940561185
16940570157
16940576016
16940587674
16940596341
16940602505
16940611783
16940622220
16940630765
16940637601
16940647916
16940656399
16940665494
16940672757
16940681546
16940689969
16940697964
16940706265
16940712246
16940721035
16940729886
16940738064
16940744168
16940752713
16940758694
16940770535
16940774502
16940786587
16940792752
16940802639
16940809414
16940817654
16940826992
16940834194
16940842617
16940851101
16940857510
16940866665
16940874538
16940879543
16940885159
16940889126
16940896755
16940901455
16940906704
16940912380
16940917629
16940923061
16940929348
16940935146
16940939113
16940943996
16940948940
16940953579
16940959194
16940964138
16940969265
16940974331
16940978786
16940983608
16940988735
16940992458
16940998134
16941002651
16941007656
16941012905
16941017421
16941020839
16941026210
16941031520
16941035915
16941039211
16941045986
16941050441
16941056057
16941059597
16941065212
16941070766
16941075405
16941080165
16941086879
16941090785
16941097438
16941103664
16941112148
16941118984
16941126979
16941133022
16941138698
16941143459
16941147792
16941154445
16941157131
16941164882
16941169215
16941174770
16941179103
16941184596
16941188625
16941194118
16941199977
16941203578
16941207667
16941212794
16941217250
16941220912
16941225368
16941230983
16941234889
16941240871
16941245082
16941252040
16941256190
16941263392
16941267726
16941273402
16941278285
16941283839
16941287318
16941293116
16941297145
16941304408
16941308986
16941314784
16941323085
16941329127
16941333949
16941339442
16941345179
16941350917
16941356288
16941362452
16941367884
16941373316
16941378016
16941383692
16941389735
16941394435
16941398890
16941404139
16941410731
16941415553
16941422694
16941427760
16941433131
16941439906
16941445155
16941451441
16941456324
16941464686
16941468348
16941477259
16941483057
16941489283
16941494898
16941500208
16941506861
16941513819
16941520655
16941526942
16941532374
16941537989
16941543055
16941548365
16941551295
16941559962
16941566431
16941571741
16941576746
16941582789
16941588648
16941592920
16941600611
16941605372
16941612696
16941618311
16941624170
16941629786
16941635340
16941641870
16941648584
16941656458
16941662867
16941669702
16941675745
16941681421
16941687403
16941693384
16941699488
16941704737
16941709925
16941714075
16941720789
16941725122
16941735376
16941743311
16941753442
16941761926
16941771204
16941777979
16941787195
16941796533
16941802759
16941812952
16941818750
16941827417
16941837549
16941844690
16941851037
16941858667
16941863550
16941869653
16941874292
16941878808
16941883020
16941888452
16941892297
16941897607
16941903589
16941907861
16941913415
16941917077
16941921533
16941925744
16941930078
16941935632
16941941125
16941944787
16941949121
16941953637
16941959191
16941962793
16941967919
16941971826
16941976586
16941980249
16941985375
16941989404
16941994409
16941997582
16942002404
16942009851
16942014306
16942019006
16942024194
16942029565
16942034570
16942039636
16942047143
16942052453
16942057397
16942063012
16942068627
16942074792
16942078027
16942083764
16942091882
16942097131
16942102990
16942107507
16942114526
16942119469
16942126244
16942131554
16942138329
16942144799
16942149560
16942155907
16942162011
16942167626
16942173485
16942179833
16942186242
16942191613
16942197594
16942202965
16942212914
16942217492
16942225304
16942231408
16942237633
16942243187
16942250939
16942257958
16942264672
16942269432
16942275475
16942280297
16942286156
16942289757
16942295433
16942299523
16942305016
16942309838
16942315453
16942320275
16942326317
16942332787
16942336937
16942342247
16942348900
16942354210
16942358849
16942364952
16942371910
16942377281
16942383995
16942389183
16942394005
16942398399
16942404808
16942409813
16942415489
16942420677
16942427635
16942431480
16942436546
16942440636
16942446861
16942451378
16942459007
16942463829
16942469566
16942474022
16942482078
16942486473
16942493736
16942497764
16942504173
16942508445
16942514671
16942520713
16942525657
16942532859
16942538230
16942543357
16942550499
16942557701
16942562889
16942568382
16942573570
16942579185
16942584739
16942590904
16942593833
16942605186
16942609031
16942616599
16942622032
16942626304
16942632835
16942637901
16942644431
16942651450
16942657798
16942661460
16942668357
16942674583
16942679893
16942684287
16942691367
16942695335
16942704246
16942710044
16942716148
16942723167
16942729087
16942734519
16942742271
16942748313
16942754478
16942761924
16942768882
16942774497
16942780539
16942787192
16942800315
16942806907
16942812827
16942818747
16942826438
16942831748
16942838645
16942844809
16942850669
16942854514
16942860556
16942865439
16942871360
16942875571
16942881430
16942886984
16942892478
16942897055
16942902548
16942907004
16942912436
16942916586
16942921225
16942926291
16942932395
16942937644
16942943747
16942947348
16942953574
16942959189
16942963461
16942970602
16942975119
16942980307
16942986349
16942991171
16942997519
16943001913
16943008505
16943013083
16943019186
16943024374
16943029135
16943034018
16943040549
16943044821
16943050070
16943055685
16943061361
16943066855
16943071860
16943076986
16943082480
16943087607
16943093344
16943100363
16943104330
16943110922
16943117209
16943123922
16943130148
16943133017
16943140402
16943144979
16943154135
16943159811
16943166037
16943170980
16943177267
16943181784
16943186972
16943193685
16943200765
16943207723
16943212301
16943217916
16943223959
16943230428
16943235616
16943240743
16943246359
16943254232
16943258627
16943265707
16943271139
16943275411
16943282003
16943287679
16943292257
16943300069
16943305074
16943310445
16943316122
16943320760
16943327535
16943332540
16943339132
16943344076
16943350912
16943356222
16943361410
16943367452
16943376607
16943382100
16943389119
16943396077
16943406392
16943414998
16943420369
16943425252
16943431783
16943437642
16943441793
16943448384
16943455037
16943460836
16943465535
16943470662
16943477803
16943482259
16943488118
16943493978
16943500325
16943505513
16943510945
16943515218
16943521871
16943526387
16943532613
16943537373
16943543782
16943548177
16943554646
16943559224
16943565694
16943569905
16943575703
16943583211
16943589009
16943595418
16943600972
16943603780
16943612569
16943618001
16943622639
16943630391
16943636616
16943642110
16943647725
16943652241
16943658650
16943663411
16943669392
16943676045
16943680928
16943688679
16943694844
16943699604
16943705037
16943709370
16943715718
16943720112
16943728718
16943734944
16943741963
16943746357
16943751545
16943757649
16943762837
16943767903
16943775227
16943780354
16943787617
16943792256
16943798115
16943802448
16943809284
16943815998
16943824360
16943830891
16943835407
16943841145
16943846333
16943852375
16943859577
16943865925
16943869038
16943879169
16943884052
16943890339
16943896015
16943904255
16943910725
16943916767
16943922382
16943928486
16943935016
16943940876
16943946735
16943952778
16943956684
16943968769
16943975971
16943984089
16943989521
16943995563
16944001484
16944007587
16944013874
16944020404
16944024311
16944030963
16944037067
16944042194
16944047016
16944052387
16944058124
16944065265
16944069416
16944075031
16944081562
16944087665
16944093402
16944099079
16944104755
16944110614
16944115802
16944122089
16944128375
16944133930
16944138507
16944145099
16944149493
16944156879
16944163287
16944167926
16944175311
16944179767
16944186237
16944191608
16944196796
16944203265
16944209003
16944213702
16944220965
16944226337
16944232379
16944237811
16944244037
16944251239
16944258563
16944264056
16944270404
16944276019
16944282794
16944287738
16944292621
16944300311
16944307086
16944312640
16944319354
16944327410
16944333026
16944339007
16944346270
16944351336
16944358233
16944365191
16944371112
16944377215
16944380572
16944388445
16944393450
16944400836
16944405352
16944412982
16944417925
16944424883
16944429461
16944434588
16944441729
16944446429
16944452837
16944459490
16944464983
16944470354
16944475481
16944482073
16944487566
16944490557
16944499102
16944505511
16944512408
16944518206
16944524920
16944530474
16944536700
16944542742
16944549212
16944556536
16944561663
16944567705
16944573992
16944586931
16944596148
16944602251
16944609209
16944619524
16944625811
16944631731
16944637957
16944642778
16944647234
16944655291
16944661455
16944666399
16944671770
16944677873
16944681780
16944687395
16944691850
16944698564
16944703996
16944709368
16944713579
16944719743
16944724504
16944730974
16944738786
16944745378
16944750871
16944755632
16944761003
16944766740
16944772478
16944775041
16944785356
16944790056
16944795366
16944800310
16944806779
16944811601
16944816484
16944823686
16944829240
16944834001
16944839799
16944845170
16944850725
16944857744
16944863420
16944869767
16944876725
16944883989
16944889848
16944894426
16944899186
16944905717
16944910722
16944917863
16944923783
16944930680
16944935502
16944941178
16944947526
16944954423
16944960893
16944966203
16944973893
16944979142
16944984757
16944991471
16944997025
16945002091
16945008561
16945015946
16945022111
16945028275
16945034806
16945040910
16945047501
16945051469
16945059830
16945065141
16945074540
16945078629
16945085343
16945090226
16945098588
16945101517
16945108597
16945112809
16945121598
16945128922
16945135026
16945140153
16945144913
16945149491
16945156205
16945162369
16945171891
16945178483
16945186539
16945192948
16945197831
16945204544
16945210343
16945216629
16945222184
16945227311
16945233292
16945238419
16945244156
16945247513
16945253739
16945260941
16945265518
16945272415
16945276932
16945282120
16945288040
16945293228
16945299698
16945306107
16945310562
16945315079
16945321304
16945326126
16945332779
16945337112
16945343216
16945350357
16945354752
16945359940
16945366653
16945371536
16945377212
16945383072
16945388321
16945391373
16945400833
16945405228
16945412308
16945416885
16945423111
16945429031
16945434585
16945440445
16945446304
16945453445
16945459060
16945464859
16945470535
16945476028
16945481888
16945488296
