183966901419
183966905691
183966911428
183966915334
183966919668
183966924856
183966928640
183966932546
183966936575
183966941396
183966944936
183966949270
183966954153
183966959829
183966963308
183966967275
183966971975
183966976369
183966981496
183966985036
183966990285
183966994558
183966999502
183967003652
183967007558
183967011709
183967015615
183967019887
183967023550
183967027395
183967032461
183967038137
183967043081
183967048391
183967051931
183967056325
183967060354
183967064748
183967069814
183967073354
183967078481
183967082265
183967087636
183967091115
183967097036
183967101552
183967105031
183967109914
183967113637
183967118642
183967123281
183967128774
183967133046
183967138356
183967142324
183967146474
183967150624
183967154714
183967158254
183967163625
183967168813
183967174184
183967178273
183967182851
183967188161
183967191945
183967196828
183967201222
183967206410
183967211354
183967216054
183967220571
183967224294
183967229176
183967232961
183967237843
183967241994
183967247243
183967251454
183967255483
183967258229
183967265614
183967269643
183967273854
183967278249
183967281300
183967285512
183967290211
183967294850
183967300038
183967303456
183967308217
183967311757
183967315968
183967320302
183967326710
183967329884
183967334340
183967338246
183967342396
183967346608
183967350453
183967355641
183967360890
183967365162
183967369679
183967373524
183967377430
183967381398
183967384511
183967390675
183967394948
183967399586
183967403798
183967408253
183967411610
183967416493
183967420643
183967425892
183967429737
183967433644
183967437550
183967441639
183967445546
183967450306
183967454945
183967459339
183967463978
183967468251
183967472218
183967475331
183967480397
183967487049
183967491749
183967497853
183967501698
183967505970
183967510304
183967514271
183967519581
183967524891
183967530262
183967534840
183967539662
183967544178
183967548573
183967552906
183967557362
183967563465
183967569325
183967573109
183967578663
183967582447
183967588734
183967593739
183967602894
183967607716
183967614185
183967618458
183967621754
183967626636
183967630360
183967635059
183967641773
183967646290
183967649830
183967654102
183967657947
183967662403
183967666309
183967671497
183967675647
183967679676
183967683643
183967687366
183967691578
183967696155
183967699512
183967706043
183967710743
183967715320
183967719165
183967724475
183967728504
183967733387
183967738880
183967743702
183967749012
183967752735
183967757556
183967762256
183967766040
183967770740
183967774524
183967780994
183967785449
183967790821
183967794849
183967799549
183967803455
183967808093
183967815418
183967821277
183967826038
183967830737
183967835254
183967838977
183967842822
183967848193
183967852710
183967859058
183967863940
183967868152
183967872730
183967877185
183967881030
183967886462
183967891711
183967896960
183967901599
183967906543
183967910022
183967914722
183967918628
183967924670
183967929187
183967935290
183967938708
183967943774
183967947131
183967952868
183967956103
183967962756
183967969043
183967972827
183967978442
183967982104
183967987597
183967991137
183967996753
183968001147
183968005725
183968011340
183968016040
183968021045
183968026294
183968030261
183968034838
183968039233
183968046740
183968051196
183968055835
183968060900
183968064807
183968069750
183968073962
183968079760
183968085375
183968089587
183968095507
183968100146
183968104540
183968108508
183968113696
183968118578
183968123889
183968128466
183968132372
183968136279
183968141284
183968146533
183968151537
183968156298
183968163622
183968166552
183968172655
183968177050
183968180651
183968184740
183968190356
183968195299
183968199755
183968203844
183968208117
183968212023
183968217577
183968221606
183968226488
183968232287
183968236742
183968241076
183968246630
183968251269
183968254931
183968258776
183968263781
183968269945
183968274523
183968278856
183968283251
183968287706
183968291979
183968295763
183968300585
183968304796
183968310534
183968314562
183968318834
183968322680
183968327929
183968331896
183968337328
183968343431
183968349474
183968354052
183968357653
183968361620
183968367052
183968371202
183968376268
183968382616
183968388414
183968392870
183968399095
183968404711
183968410326
183968414415
183968420030
183968426439
183968430711
183968436022
183968440172
183968443346
183968450304
183968453416
183968459642
183968465807
183968472520
183968476488
183968482164
183968487352
183968493516
183968497118
183968503221
183968508897
183968512987
183968517564
183968521898
183968526109
183968531419
183968536912
183968541307
183968546922
183968551561
183968557054
183968561754
183968564927
183968571153
183968575792
183968581102
183968585801
183968589891
183968595018
183968599168
183968603196
183968608506
183968612962
183968617967
183968623033
183968629258
183968633775
183968638169
183968646470
183968654649
183968662461
183968670579
183968678330
183968689256
183968697862
183968703904
183968710923
183968720200
183968726731
183968733140
183968741502
183968748216
183968755235
183968762009
183968767503
183968780564
183968787949
183968799180
183968807969
183968816148
183968823350
183968830247
183968838975
183968848313
183968854966
183968862290
183968869553
183968874314
183968879624
183968883530
183968889084
183968892441
183968897446
183968902329
183968907151
183968912095
183968915879
183968921555
183968925644
183968930466
183968934739
183968939743
183968942307
183968947861
183968952927
183968956528
183968961350
183968965744
183968970139
183968973435
183968978256
183968982529
183968987412
183968990952
183968995407
183969000473
183969004807
183969008530
183969013413
183969016647
183969021103
183969025803
183969029465
183969032883
183969037399
183969040878
183969044846
183969048996
183969054489
183969058762
183969062607
183969066574
183969071152
183969073654
183969078476
183969081039
183969086655
183969090378
183969095138
183969098251
183969103622
183969106857
183969112289
183969115768
183969120163
183969125534
183969129379
183969134140
183969139267
183969144699
183969148849
183969153549
183969157333
183969163620
183969169479
183969172592
183969179001
183969183639
183969188217
183969192367
183969197372
183969201584
183969207321
183969212021
183969215622
183969220993
183969225082
183969228805
183969234542
183969239852
183969245224
183969250228
183969255111
183969258773
183969263900
183969267807
183969270736
183969278915
183969282272
183969287094
183969292343
183969297042
183969301803
183969305343
183969309554
183969315353
183969318771
183969324630
183969330184
183969334029
183969338241
183969343612
183969347640
183969352523
183969356918
183969361373
183969366500
183969372787
183969376083
183969382308
183969385726
183969391341
183969396957
183969401412
183969406173
183969410750
183969416244
183969421676
183969427596
183969431808
183969438643
183969442916
183969447371
183969451827
183969457320
183969461532
183969465804
183969472091
183969476302
183969482161
183969487044
183969491317
183969496810
183969502242
183969505355
183969511519
183969517012
183969524337
183969530135
183969534285
183969540267
183969544539
183969548629
183969555281
183969560713
183969565962
183969570967
183969575057
183969580916
183969584944
183969592635
183969597884
183969602095
183969608260
183969612471
183969617903
183969623213
183969628401
183969633528
183969639327
183969643172
183969649764
183969654402
183969658980
183969664595
183969668990
183969674483
183969679854
183969685164
183969689802
183969696272
183969700056
183969705916
183969711653
183969715376
183969722029
183969725996
183969732039
183969738386
183969743269
183969746443
183969753157
183969757185
183969762800
183969767622
183969773115
183969777693
183969783125
183969788435
183969794111
183969799299
183969803633
183969809797
183969814863
183969819319
183969825483
183969830427
183969834944
183969839399
183969844892
183969850447
183969855513
183969861250
183969867109
183969872358
183969877729
183969882917
183969887434
183969892805
183969898908
183969904463
183969908430
183969914350
183969919782
183969924360
183969930036
183969935835
183969941450
183969945722
183969951765
183969955732
183969961713
183969965437
183969973676
183969977583
183969983991
183969989545
183969994001
183969999433
183970002729
183970010358
183970015241
183970019819
183970025434
183970031232
183970035627
183970040143
183970046003
183970050580
183970057355
183970061689
183970066572
183970072065
183970076581
183970081891
183970086286
183970092939
183970098310
183970102399
183970108014
183970113507
183970119428
183970123639
183970129987
183970135175
183970141095
183970145734
183970151715
183970154889
183970161664
183970166608
183970171735
183970176679
183970180646
183970185773
183970191510
183970196149
183970202558
183970208112
183970213483
183970218793
183970222028
183970228558
183970233868
183970240521
183970246014
183970250836
183970255658
183970261029
183970266278
183970272076
183970276166
183970281049
183970286847
183970293195
183970297650
183970303509
183970308392
183970312665
183970318768
183970324689
183970329816
183970334332
183970340252
183970344891
183970351239
183970357525
183970363690
183970368329
183970374371
183970379132
183970383709
183970389080
183970394513
183970399579
183970405255
183970410687
183970416119
183970420636
183970425763
183970430645
183970436138
183970439984
183970445355
183970451519
183970456768
183970461651
183970467449
183970472271
183970477886
183970482891
183970488445
183970492779
183970497112
183970501446
183970506939
183970512554
183970518170
183970522747
183970529034
183970533489
183970538738
183970543682
183970548748
183970553814
183970560833
183970565472
183970571392
183970577373
183970581341
183970586773
183970592266
183970598003
183970603130
183970607952
183970613140
183970617962
183970623455
183970628033
183970632061
183970637310
183970644390
183970648723
183970654217
183970659343
183970665081
183970671062
183970675823
183970680340
183970686443
183970691509
183970696819
183970700115
183970707622
183970713604
183970718120
183970723796
183970728313
183970733745
183970738628
183970743816
183970749492
183970753765
183970759807
183970766582
183970775005
183970782146
183970791911
183970797893
183970810466
183970818096
183970828410
183970839702
183970845561
183970855388
183970860698
183970869975
183970878886
183970886760
183970894816
183970903239
183970909343
183970915385
183970919902
183970924357
183970928386
183970933085
183970937114
183970942180
183970946879
183970951640
183970955119
183970959636
183970964091
183970967204
183970972392
183970978129
183970982890
183970987590
183970991069
183970995951
183971000163
183971005046
183971009074
183971014201
183971018657
183971022502
183971026652
183971031962
183971037150
183971041606
183971046366
183971052714
183971058207
183971063273
183971067607
183971072734
183971076396
183971082926
183971088358
183971093913
183971097880
183971103434
183971108683
183971113871
183971117533
183971123332
183971128764
183971133036
183971137919
183971142619
183971147379
183971152628
183971157450
183971162211
183971167521
183971172526
183971176798
183971182474
183971186869
183971192850
183971197672
183971202372
183971207560
183971212015
183971216471
183971221659
183971227213
183971232584
183971236979
183971241068
183971247599
183971252665
183971258341
183971260355
183971267740
183971272440
183971276346
183971279886
183971287272
183971293253
183971297525
183971302897
183971308084
183971311930
183971318094
183971323465
183971327311
183971333719
183971339212
183971344095
183971348001
183971353189
183971358255
183971361917
183971368204
183971373270
183971378824
183971382547
183971387735
183971392862
183971397684
183971402567
183971408243
183971413980
183971419290
183971422830
183971428873
183971432108
183971437479
183971442300
183971448099
183971452676
183971458475
183971462747
183971468851
183971473795
183971478250
183971482706
183971488077
183971492776
183971497720
183971503396
183971508279
183971513101
183971519082
183971523477
183971529336
183971534158
183971539224
183971543985
183971549783
183971554056
183971558816
183971564431
183971568948
183971573221
183971579690
183971584207
183971589517
183971593301
183971598428
183971603616
183971608987
183971613443
183971620462
183971624734
183971630105
183971634072
183971639321
183971644509
183971649758
183971653848
183971659707
183971665139
183971669045
183971674783
183971680093
183971684060
183971689004
183971694070
183971700295
183971706277
183971710000
183971716164
183971719155
183971725015
183971729470
183971734963
183971740640
183971746316
183971751138
183971755654
183971760659
183971764748
183971769265
183971775674
183971781899
183971786477
183971790871
183971796059
183971800332
183971806313
183971810647
183971816201
183971821023
183971827248
183971831765
183971837014
183971841286
183971846291
183971850258
183971856057
183971860451
183971866982
183971871315
183971876503
183971880288
183971885781
183971889748
183971895119
183971900734
183971905800
183971911110
183971914589
183971919899
183971924843
183971929421
183971934304
183971939675
183971944618
183971949013
183971953408
183971959145
183971963906
183971968544
183971973000
183971978554
183971983681
183971988503
183971992287
183971997536
183972002663
183972008278
183972012184
183972018105
183972022255
183972027443
183972032692
183972037819
183972041908
183972048073
183972052040
183972057289
183972061439
183972067360
183972073097
183972076881
183972082680
183972087440
183972092262
183972097145
183972101173
183972106117
183972111366
183972115700
183972122169
183972126503
183972131202
183972135109
183972141029
183972145363
183972152137
183972157203
183972162452
183972166664
183972171913
183972177528
183972181190
183972187294
183972192848
183972196998
183972203224
183972207069
183972210792
183972217384
183972221107
183972227333
183972233802
183972237953
183972241554
183972248085
183972253395
183972258766
183972263160
183972268653
183972273902
183972278175
183972283302
183972288490
183972292274
183972298499
183972302162
183972306739
183972312171
183972318336
183972321998
183972327674
183972332618
183972338233
183972343055
183972347205
183972352882
183972358985
183972363929
183972369178
183972372352
183972378211
183972382545
183972387855
183972392860
183972398963
183972403297
183972409888
183972412940
183972419349
183972424293
183972428626
183972434241
183972440101
183972444556
183972450721
183972455115
183972459693
183972465308
183972470008
183972474341
183972480750
183972484839
183972490455
183972494422
183972499854
183972505042
183972509558
183972515052
183972520789
183972525183
183972530616
183972535865
183972540747
183972545874
183972549719
183972555762
183972561133
183972568091
183972574378
183972578223
183972583411
183972588538
183972592200
183972598364
183972602149
183972608374
183972613928
183972617957
183972622778
183972628516
183972631628
183972637854
183972643530
183972648901
183972653723
183972658911
183972665930
183972676306
183972678747
183972688940
183972695166
183972699499
183972705542
183972709509
183972715307
183972720862
183972725378
183972732153
183972737951
183972742407
183972747534
183972751867
183972757971
183972762182
183972767126
183972772558
183972779638
183972783300
183972788855
183972793432
183972798498
183972802465
183972807775
183972813757
183972818701
183972822912
183972827917
183972831884
183972837438
183972841406
183972846350
183972851293
183972857397
183972860632
183972865209
183972869482
183972874975
183972878881
183972883886
183972889562
183972897009
183972900488
183972906652
183972911169
183972915380
183972919775
183972924719
183972931982
183972942663
183972947607
183972957922
183972963659
183972974828
183972982091
183972988500
183972996313
183973002355
183973012426
183973019262
183973026830
183973034154
183973044408
183973051977
183973059972
183973065221
183973069799
183973072912
183973078405
183973081701
183973087011
183973090795
183973095739
183973099157
183973103978
183973107885
183973112523
183973117711
183973122045
183973126744
183973129796
183973134313
183973138585
183973142491
183973145848
183973150792
183973156285
183973160131
183973163426
183973167760
183973171056
183973175755
183973181371
183973186925
183973189916
183973194615
183973198888
183973203099
183973206395
183973211827
183973215855
183973220372
183973224400
183973227696
183973232579
183973235997
183973241063
183973245457
183973249852
183973252965
183973257909
183973262730
183973267247
183973271397
183973278050
183973283116
183973288426
183973292699
183973295994
183973301243
183973304845
183973309483
183973314305
183973319981
183973324254
183973329869
183973333775
183973338231
183973343541
183973347325
183973354039
183973359410
183973363133
183973368443
183973372654
183973376255
183973380284
183973385289
183973390232
183973395420
183973398960
183973404576
183973407444
183973413304
183973418064
183973422276
183973427159
183973433018
183973436619
183973441929
183973446446
183973450718
183973455174
183973461216
183973464878
183973470432
183973475926
183973480564
183973484898
183973489597
183973492954
183973497532
183973503819
183973510105
183973511875
183973518162
183973523350
183973528111
183973532261
183973535923
183973542271
183973546909
183973552219
183973555759
183973560581
183973565830
183973570408
183973574253
183973580051
183973585606
183973589512
183973593174
183973598850
183973602512
183973608372
183973612888
183973618564
183973623813
183973629001
183973632725
183973637119
183973640781
183973645908
183973650181
183973654819
183973660434
183973664890
183973668857
183973674228
183973678012
183973682895
183973687961
183973693210
183973697971
183973702671
183973707126
183973711338
183973715549
183973721103
183973725986
183973730808
183973736301
183973740024
183973743198
183973749179
183973752536
183973758151
183973762973
183973768039
183973771945
183973776828
183973781223
183973784763
183973789829
183973793979
183973800266
183973804599
183973809421
183973814487
183973818759
183973823276
183973826450
183973831516
183973835971
183973842197
183973846286
183973850131
183973854953
183973858554
183973863803
183973870151
183973875583
183973879001
183973884433
183973888705
183973893405
183973896945
183973902804
183973906772
183973912326
183973917087
183973920749
183973926425
183973930087
183973935946
183973939975
183973946750
183973950412
183973956088
183973959384
183973964511
183973968112
183973972873
183973977084
183973981906
183973987765
183973992160
183973995700
183974000827
183974004916
183974009921
183974016207
183974021273
183974025729
183974029330
183974033419
183974038424
183974043185
183974046542
183974052218
183974056796
183974061068
183974065524
183974069552
183974074374
183974079196
183974083102
183974088839
183974093234
183974099276
183974102694
183974107577
183974112338
183974116610
183974120638
183974125399
183974131014
183974135653
183974140353
183974144747
183974148409
183974153048
183974157198
183974162569
183974166781
183974171969
183974176424
183974181063
183974185396
183974190523
183974197664
183974202975
183974206637
183974211458
183974216036
183974221285
183974224642
183974230990
183974236056
183974240633
183974245699
183974250460
183974254366
183974259249
183974264620
183974269259
183974274691
183974278475
183974284273
183974287935
183974293062
183974296785
183974302095
183974305941
183974311739
183974315767
183974321627
183974325350
183974330233
183974335054
183974339815
183974343721
183974349459
183974352999
183974358736
183974362276
183974367830
183974371614
183974376863
183974380769
183974386385
183974390657
183974395967
183974399934
183974404634
183974409639
183974412874
183974418123
183974423372
183974427705
183974433260
183974437532
183974442110
183974446077
183974450044
183974454683
183974460908
183974465547
183974470552
183974475191
183974478792
183974482698
183974488191
183974493135
183974499177
183974502717
183974508088
183974511506
183974517244
183974520723
183974525728
183974532808
183974538484
183974543855
183974547517
183974552644
183974557222
183974560701
183974566499
183974571992
183974577424
183974581269
183974586030
183974590852
183974595613
183974598970
183974604585
183974609101
183974614839
183974619660
183974624360
183974628755
183974633454
183974638093
183974642365
183974649934
183974653840
183974659333
183974664399
183974668488
183974672090
183974677339
183974681306
183974687776
183974692048
183974697053
183974700715
183974705659
183974710603
183974714692
183974718659
183974724152
183974728303
183974733918
183974736604
183974742219
183974746247
183974751740
183974756867
183974762116
183974766755
183974771455
183974775849
183974779999
183974783784
183974788727
183974794099
183974799897
183974804474
183974809235
183974813691
183974817658
183974821930
183974828400
183974831513
183974838593
183974842133
183974848481
183974853302
183974857453
183974861725
183974867157
183974874543
183974880280
183974885468
183974890900
183974899018
183974907074
183974913178
183974922699
183974930268
183974943085
183974952545
183974958771
183974968842
183974977387
183974987030
183974995941
183975004547
183975012299
183975025726
183975033356
183975042450
183975048798
183975054596
183975059784
183975063812
183975069183
183975073273
183975077057
183975080780
183975086151
183975090851
183975096100
183975100799
183975104950
183975107940
183975112762
183975116852
183975122101
183975127044
183975132538
183975136932
183975141205
183975145355
183975149688
183975152862
183975158355
183975163421
183975168304
183975172027
183975176849
183975180633
183975185150
183975189300
183975193145
183975199310
183975203216
183975207855
183975211517
183975217193
183975221282
183975226593
183975232391
183975236968
183975242706
183975246734
183975250701
183975256194
183975261260
183975264922
183975270416
183975276458
183975281890
183975285247
183975290191
183975295074
183975299285
183975303680
183975308868
183975316558
183975320831
183975325164
183975330657
183975334991
183975340362
183975344268
183975349273
183975353423
183975362395
183975366607
183975372161
183975375945
183975381072
183975386016
183975389800
183975396270
183975402923
183975408477
183975412139
183975417815
183975422759
183975426604
183975430877
183975436248
183975442168
183975447417
183975451751
183975457488
183975462005
183975467070
183975471160
183975475615
183975480010
183975486419
183975492400
183975496367
183975501555
183975505828
183975510955
183975516448
183975522002
183975526457
183975532195
183975535796
183975541655
183975544768
183975551299
183975556365
183975561003
183975564726
183975571257
183975576201
183975581633
183975584746
183975590605
183975594878
183975599883
183975604826
183975611052
183975615508
183975620573
183975624907
183975629362
183975633330
183975638579
183975644133
183975651457
183975655608
183975659575
183975666411
183975671538
183975675444
183975680388
183975684599
183975691679
183975697600
183975702482
183975706755
183975711027
183975717131
183975720244
183975726347
183975731352
183975736479
183975740690
183975745817
183975751616
183975756254
183975760222
183975765409
183975770292
183975776762
183975782316
183975786406
183975791532
183975795256
183975801359
183975806425
183975811796
183975815336
183975821501
183975826200
183975831388
183975834440
183975840666
183975845487
183975850187
183975855497
183975860197
183975864530
183975870146
183975874540
183975879362
183975885404
183975890470
183975894987
183975900663
183975905302
183975910978
183975914396
183975921354
183975925260
183975929044
183975934415
183975940763
183975946256
183975950040
183975955228
183975960050
183975964628
183975969755
183975975004
183975980619
183975985197
183975990629
183975995634
183976000516
183976005399
183976009672
183976013761
183976019498
183976024869
183976029691
183976035001
183976038846
183976044339
183976048246
183976054654
183976059476
183976065580
183976069791
183976075589
183976079618
183976082608
183976089688
183976094876
183976099027
183976104642
183976109159
183976115445
183976120389
183976125333
183976130399
183976135343
183976140225
183976147244
183976151639
183976156278
183976162686
183976167020
183976171903
183976175809
183976182095
183976186246
183976192471
183976196866
183976202481
183976206448
183976212918
183976217068
183976222134
183976226468
183976232632
183976236905
183976242398
183976246487
183976251492
183976256497
183976261380
183976266019
183976271268
183976277188
183976282132
183976285794
183976289944
183976296292
183976300809
183976306729
183976312771
183976317166
183976321255
183976327054
183976331387
183976336331
183976340237
183976343899
183976351345
183976356411
183976360806
183976366543
183976370694
183976374173
183976380703
183976386258
183976390530
183976395596
183976400906
183976404507
183976410549
183976413906
183976419277
183976423428
183976428982
183976435086
183976440335
183976444729
183976450466
183976454800
183976459805
183976465420
183976469937
183976474514
183976481289
183976485806
183976491360
183976495815
183976500149
183976505764
183976509670
183976517483
183976522671
183976527798
183976533596
183976537441
183976542995
183976548122
183976552334
183976557705
183976561428
183976567959
183976571499
183976577297
183976582302
183976587490
183976591091
183976596706
183976602382
183976606350
183976611355
183976616176
183976620571
183976625820
183976630092
183976636135
183976641628
183976646450
183976650600
183976655605
183976660061
183976666286
183976670681
183976675136
183976679592
183976685573
183976689724
183976695522
183976699489
183976705165
183976709072
183976714443
183976718837
183976725490
183976729640
183976733180
183976739223
183976743007
183976749355
183976754115
183976758083
183976765163
183976769191
183976774135
183976778896
183976783778
183976788234
183976792506
183976798366
183976805019
183976809291
183976813441
183976819179
183976823512
183976827907
183976833522
183976838710
183976842189
183976848537
183976852626
183976858119
183976861964
183976867580
183976872645
183976877406
183976881801
183976888759
183976894374
183976898158
183976904262
183976907863
183976913844
183976917079
183976922633
183976927882
183976933619
183976938319
183976943324
183976946437
183976952906
183976957240
183976961634
183976966517
183976972804
183976977381
183976982203
183976985987
183976991236
183976997096
183977001673
183977005824
183977011988
183977016261
183977021571
183977025416
183977030909
183977036036
183977041041
183977045130
183977050685
183977056361
183977062281
183977066554
183977070216
183977076502
183977079981
183977090662
183977097620
183977108179
183977115321
183977124171
183977135096
183977141566
183977152369
183977164332
183977171778
183977179896
183977186487
183977195582
183977200770
183977212183
183977220972
183977230005
183977237940
183977243433
183977247461
183977252466
183977256556
183977261744
183977267786
183977273462
183977277185
183977282373
183977287928
183977291590
183977297327
183977301111
183977306909
183977311182
183977316126
183977319910
183977325464
183977330103
183977334802
183977340906
183977345911
183977350733
183977355676
183977358789
183977364832
183977369653
183977374841
183977380518
183977386194
183977390344
183977395776
183977399927
183977405969
183977410608
183977415430
183977421350
183977426172
183977431604
183977437891
183977443994
183977449304
183977453454
183977458765
183977466089
183977471582
183977476221
183977481653
183977485925
183977490747
183977496728
183977503198
183977509485
183977514734
183977520044
183977525354
183977530603
183977535974
183977540857
183977546045
183977551110
183977555810
183977562524
183977567407
183977572534
183977576867
183977582544
183977587243
183977595300
183977599816
183977606225
183977611657
183977615869
183977621301
183977625390
183977630578
183977638757
183977643579
183977648889
183977653527
183977658349
183977663903
183977668786
183977675317
183977680627
183977686181
183977691125
183977697289
183977701684
183977707970
183977712182
183977718285
183977723229
183977729882
183977734338
183977740746
183977744958
183977750390
183977756066
183977761254
183977766198
183977772179
183977777550
183977782860
183977787499
183977792260
183977798852
183977803612
183977808739
183977814110
183977820275
183977825402
183977830163
183977836449
183977841271
183977845604
183977851464
183977856041
183977859337
183977867333
183977873131
183977877343
183977882714
183977887474
183977892296
183977897789
183977903954
183977911278
183977914696
183977921227
183977926110
183977931420
183977935753
183977941246
183977947533
183977953575
183977957909
183977963097
183977968895
183977974266
183977978417
183977984154
183977990074
183977996117
183978003197
183978007103
183978013390
183978018700
183978022728
183978027550
183978034203
183978040794
183978046043
183978050865
183978056602
183978061485
183978067222
183978071983
183978076988
183978081566
183978087913
183978094200
183978099388
183978103721
183978106956
183978114341
183978117882
183978125511
183978133079
183978139061
183978143333
183978149009
183978154319
183978159324
183978164024
183978169639
183978174766
183978180931
183978185508
183978191185
183978195457
183978201194
183978205467
183978211875
183978216575
183978223289
183978227867
183978234275
183978238609
183978244773
183978249473
183978254844
183978260581
183978267722
183978273155
183978277305
183978283164
183978287742
183978293540
183978298362
183978303184
183978309531
183978314597
183978321250
183978326011
183978330283
183978336692
183978341086
183978346702
183978351279
183978358359
183978362998
183978366233
183978373923
183978377402
183978383933
183978388511
183978394370
183978400718
183978406943
183978411948
183978417930
183978422507
183978427756
183978433677
183978438376
183978443625
183978451011
183978456076
183978460715
183978464988
183978471762
183978476157
183978482016
183978486838
183978491049
183978498557
183978502585
183978509482
183978513571
183978519370
183978524680
183978529196
183978536032
183978541648
183978546469
183978552329
183978557334
183978561972
183978568320
183978572714
183978577414
183978584433
183978588950
183978595541
183978599692
183978605551
183978609702
183978615134
183978621176
183978626059
183978632834
183978636252
183978643393
183978648825
183978652853
183978657614
183978663962
183978669272
183978676047
183978681601
183978686850
183978691672
183978696798
183978701559
183978706503
183978711020
183978718405
183978723715
183978729025
183978733175
183978738852
183978744406
183978748434
183978755087
183978759298
183978766195
183978770407
183978776937
183978781027
183978787130
183978792379
183978797079
183978804281
183978808859
183978814535
183978820028
183978824667
183978830160
183978834860
183978840292
183978845358
183978852499
183978857504
183978862325
183978868551
183978873861
183978878194
183978884054
183978888693
183978894430
183978900594
183978905904
183978910238
183978915914
183978920675
183978925252
183978931478
183978938497
183978944906
183978950155
183978954549
183978959310
183978964376
183978970418
183978975667
183978980794
183978986104
183978992452
183978997335
183979001729
183979007772
183979012166
183979017476
183979023397
183979029805
183979034444
183979038656
183979045614
183979048848
183979056417
183979061849
183979066243
183979071981
183979077901
183979083333
183979087911
183979092671
183979097859
183979102193
183979107869
183979114339
183979121053
183979126302
183979131429
183979135579
183979141622
183979145833
183979151631
183979156087
183979162434
183979168538
183979172688
183979178792
183979184102
183979188435
183979193196
183979198445
183979205891
183979210957
183979216328
183979220906
183979225728
183979231282
183979237324
183979241109
183979248128
183979253010
183979259480
183979263753
183979269368
183979274861
183979279378
183979284688
183979289082
183979296773
183979301411
183979306782
183979312459
183979317708
183979322041
183979326863
183979332295
183979341328
183979346272
183979351155
183979356282
183979360676
183979366536
183979371174
183979377522
183979382099
183979388691
183979393086
183979397785
183979404438
183979408650
183979414692
183979420185
183979424519
183979430500
183979436665
183979442646
183979449421
183979456379
183979465595
183979472859
183979481831
183979495625
