17457656663
17457662339
17457666611
17457673325
17457679307
17457684495
17457690537
17457696580
17457702378
17457707627
17457714341
17457720444
17457727891
17457733933
17457741135
17457746750
17457754746
17457760605
17457768235
17457774216
17457783005
17457789536
17457795029
17457803940
17457811020
17457818711
17457823838
17457831406
17457835373
17457844712
17457854477
17457858994
17457867417
17457875351
17457882920
17457891281
17457899033
17457907395
17457916977
17457924667
17457933701
17457940292
17457950729
17457958237
17457967026
17457973251
17457978500
17457987350
17457994797
17458001449
17458009384
17458017929
17458024216
17458029831
17458038437
17458042160
17458052902
17458060898
17458068649
17458075119
17458080490
17458089462
17458098129
17458104538
17458111312
17458119918
17458126937
17458132736
17458140487
17458146163
17458153488
17458159286
17458171981
17458179367
17458186141
17458193160
17458198287
17458206832
17458211959
17458221359
17458229232
17458237777
17458246139
17458253707
17458261764
17458269027
17458280502
17458290145
17458297225
17458305953
17458314132
17458321761
17458328170
17458338119
17458346297
17458353866
17458361861
17458368880
17458377059
17458384627
17458391951
17458399764
17458405867
17458414168
17458421187
17458431441
17458438948
17458449568
17458457747
17458463668
17458470748
17458477889
17458485335
17458492232
17458499678
17458508162
17458515791
17458522749
17458526839
17458537276
17458542830
17458553572
17458565108
17458577559
17458584700
17458598982
17458606184
17458616133
17458624983
17458633772
17458640730
17458649580
17458657820
17458665388
17458673323
17458679426
17458688643
17458696821
17458703169
17458709394
17458719465
17458730940
17458737593
17458745832
17458753157
17458760847
17458766096
17458775068
17458779096
17458790266
17458796919
17458803999
17458810774
17458816267
17458826460
17458834211
17458841169
17458850263
17458855634
17458863996
17458871015
17458877241
17458887067
17458892988
17458903181
17458911176
17458919416
17458929792
17458939557
17458947492
17458955976
17458963666
17458971051
17458977521
17458987531
17458995893
17459004499
17459012189
17459017926
17459026227
17459035138
17459041974
17459052106
17459058454
17459067243
17459075971
17459083112
17459092084
17459097455
17459106793
17459115155
17459122296
17459129926
17459136273
17459144879
17459150922
17459164899
17459173993
17459180890
17459187970
17459193341
17459202252
17459211102
17459218243
17459226117
17459233441
17459242291
17459249554
17459256634
17459267132
17459274823
17459286541
17459296795
17459306012
17459313275
17459324261
17459331646
17459338299
17459346661
17459353741
17459360333
17459365826
17459376202
17459385174
17459390118
17459398968
17459406414
17459413189
17459422161
17459431255
17459437420
17459445171
17459450481
17459460186
17459467693
17459474346
17459484051
17459490765
17459497051
17459504436
17459512859
17459521770
17459530376
17459535747
17459544964
17459551311
17459558086
17459568706
17459577922
17459583660
17459591228
17459598735
17459604656
17459614910
17459623210
17459629924
17459637798
17459644207
17459652873
17459662700
17459669353
17459681011
17459688274
17459695903
17459704387
17459713054
17459723064
17459733318
17459741130
17459747173
17459755290
17459761211
17459769389
17459777446
17459786906
17459793986
17459800883
17459807475
17459815227
17459823405
17459831645
17459838542
17459845073
17459852519
17459859416
17459870585
17459882975
17459892436
17459900309
17459910197
17459919169
17459927348
17459935404
17459942362
17459950175
17459957804
17459964640
17459971598
17459979533
17459987284
17459993693
17460002421
17460010844
17460017069
17460025370
17460031962
17460040263
17460046610
17460054667
17460058939
17460068522
17460072733
17460082621
17460090861
17460098490
17460105631
17460111796
17460120585
17460124796
17460134623
17460144632
17460154398
17460161600
17460168192
17460177103
17460183756
17460190409
17460196695
17460202372
17460209391
17460214884
17460222757
17460226175
17460237833
17460243814
17460248758
17460255899
17460263101
17460268289
17460276102
17460281412
17460288370
17460294779
17460300821
17460306864
17460313394
17460321817
17460325662
17460334085
17460340006
17460346780
17460352884
17460358194
17460368570
17460375406
17460380960
17460386758
17460393045
17460398843
17460404947
17460411783
17460417886
17460423135
17460428262
17460433450
17460439920
17460445901
17460451577
17460456643
17460464456
17460469583
17460476175
17460483499
17460489480
17460496133
17460507058
17460513589
17460520059
17460525491
17460532022
17460536965
17460544168
17460550454
17460555886
17460561685
17460567300
17460573953
17460580361
17460586770
17460592690
17460599282
17460604409
17460610085
17460614663
17460621865
17460627541
17460632912
17460639382
17460644936
17460650307
17460656289
17460662575
17460668618
17460676186
17460680947
17460687234
17460692361
17460699074
17460703591
17460710244
17460717629
17460723122
17460729836
17460734047
17460740639
17460746682
17460752053
17460757058
17460765542
17460772011
17460777321
17460782814
17460788796
17460797341
17460803933
17460809914
17460817116
17460822121
17460828347
17460833168
17460841164
17460847084
17460852455
17460857765
17460863381
17460870644
17460875282
17460882240
17460888161
17460894936
17460899696
17460906288
17460910988
17460918312
17460921486
17460929115
17460935219
17460940895
17460946144
17460952126
17460959145
17460963234
17460970375
17460975075
17460981361
17460987465
17460994301
17460999245
17461005592
17461011452
17461016945
17461023414
17461029213
17461036476
17461041054
17461048744
17461055031
17461061378
17461066993
17461075660
17461081764
17461087196
17461092689
17461098243
17461103736
17461109352
17461115150
17461121192
17461126930
17461132606
17461139198
17461145423
17461150978
17461155677
17461162757
17461167518
17461175269
17461181373
17461187171
17461192359
17461197791
17461203468
17461209510
17461216041
17461220435
17461226661
17461233375
17461238929
17461244544
17461250953
17461255775
17461262305
17461268348
17461273475
17461279151
17461284888
17461290992
17461295936
17461303260
17461306739
17461315772
17461321692
17461327857
17461334632
17461337989
17461346290
17461349708
17461356849
17461362891
17461368506
17461376136
17461380713
17461387000
17461392798
17461397925
17461403846
17461410132
17461414954
17461421790
17461427283
17461433448
17461439429
17461444922
17461450415
17461455847
17461463233
17461467810
17461473853
17461478247
17461484839
17461490576
17461496192
17461501807
17461508521
17461513464
17461518652
17461524390
17461530005
17461535803
17461540198
17461547949
17461552832
17461559180
17461563574
17461570959
17461574499
17461584204
17461590124
17461596655
17461602820
17461609411
17461615027
17461619726
17461627539
17461633459
17461638891
17461645544
17461649389
17461654883
17461660009
17461666418
17461671972
17461678015
17461683081
17461689245
17461695105
17461700659
17461706884
17461712011
17461718420
17461724584
17461730383
17461735998
17461741430
17461746069
17461752111
17461756689
17461764807
17461768102
17461776891
17461782812
17461787817
17461793554
17461797643
17461805151
17461809789
17461816747
17461819921
17461826574
17461832128
17461837682
17461845617
17461851659
17461856664
17461862340
17461867284
17461871618
17461878149
17461882543
17461891210
17461895910
17461901281
17461906408
17461911596
17461917821
17461923375
17461930150
17461934911
17461941747
17461944921
17461953038
17461956212
17461963659
17461969152
17461974523
17461980809
17461986425
17461992223
17461998082
17462003087
17462009374
17462016210
17462019628
17462027806
17462033055
17462038060
17462043248
17462048314
17462053868
17462061070
17462065648
17462071080
17462077245
17462081273
17462087193
17462091527
17462099889
17462103429
17462111913
17462118077
17462124242
17462131200
17462136327
17462144810
17462151524
17462157262
17462163121
17462168004
17462173192
17462178258
17462185887
17462190831
17462197972
17462201024
17462207310
17462211705
17462218541
17462225316
17462230931
17462236790
17462242527
17462247471
17462253392
17462259312
17462263646
17462271153
17462277989
17462283177
17462288243
17462293248
17462299168
17462303135
17462310948
17462316197
17462324009
17462329624
17462334568
17462340061
17462345127
17462350743
17462356236
17462362889
17462367222
17462372593
17462378025
17462383335
17462387669
17462395542
17462400303
17462405491
17462411533
17462417027
17462423252
17462427341
17462435398
17462441807
17462451633
17462457920
17462466831
17462474949
17462483982
17462492771
17462500461
17462508823
17462519809
17462530063
17462537815
17462546665
17462555210
17462562961
17462571750
17462580112
17462592990
17462600620
17462608860
17462617710
17462626255
17462635044
17462643711
17462652866
17462662570
17462673740
17462681979
17462691135
17462699619
17462708774
17462717929
17462729037
17462739597
17462750949
17462757053
17462770419
17462780551
17462789096
17462797030
17462807040
17462815341
17462823581
17462832797
17462840915
17462851352
17462859774
17462868441
17462876925
17462887118
17462894137
17462904940
17462909091
17462924227
17462934420
17462939364
17462951998
17462960421
17462969332
17462979098
17462985934
17462995760
17463005526
17463014010
17463022982
17463031832
17463040499
17463047457
17463059481
17463067843
17463076754
17463084566
17463093661
17463103914
17463111910
17463120333
17463128634
17463136751
17463146395
17463157198
17463165743
17463175020
17463183199
17463191683
17463200594
17463210176
17463218294
17463228121
17463236482
17463244356
17463254976
17463262361
17463271394
17463281587
17463292085
17463300142
17463308077
17463316194
17463324922
17463333467
17463341890
17463350740
17463360506
17463369356
17463377107
17463385652
17463393587
17463403169
17463411104
17463420808
17463429170
17463436982
17463446077
17463455293
17463460847
17463471894
17463481477
17463490327
17463501069
17463510347
17463520906
17463531404
17463540010
17463551179
17463559358
17463568574
17463576692
17463584687
17463595185
17463603608
17463611604
17463618928
17463629060
17463636079
17463647553
17463656281
17463665070
17463672883
17463681000
17463689301
17463697541
17463708344
17463715241
17463726716
17463734894
17463743195
17463752106
17463760041
17463769928
17463778962
17463788178
17463795136
17463806916
17463813996
17463824066
17463833100
17463840790
17463849945
17463854584
17463860199
17463865692
17463871185
17463875885
17463883026
17463888825
17463893890
17463899567
17463904633
17463910431
17463916595
17463922028
17463925873
17463932465
17463938080
17463943573
17463947845
17463954132
17463958404
17463966400
17463972015
17463977447
17463982635
17463988251
17463994842
17464000335
17464004547
17464009979
17464017303
17464023102
17464028717
17464034149
17464039215
17464044525
17464050018
17464057464
17464061615
17464068756
17464074493
17464079010
17464084381
17464090423
17464094940
17464101165
17464105865
17464113250
17464116302
17464125396
17464130767
17464137176
17464145355
17464151214
17464158111
17464163787
17464170928
17464177947
17464184173
17464191558
17464198638
17464205230
17464208709
17464216277
17464222259
17464228118
17464234344
17464243011
17464248809
17464254424
17464260100
17464266875
17464272491
17464278594
17464282989
17464289886
17464295440
17464301116
17464306487
17464312774
17464320403
17464325347
17464331633
17464337371
17464343291
17464346526
17464354522
17464361663
17464367400
17464372832
17464377776
17464384673
17464390471
17464396880
17464402739
17464408599
17464415862
17464422209
17464427092
17464433501
17464440032
17464445952
17464452178
17464458037
17464465361
17464470671
17464476042
17464482451
17464486723
17464493926
17464498381
17464505583
17464511809
17464516936
17464521574
17464529021
17464535246
17464540739
17464546233
17464551848
17464557890
17464564665
17464570585
17464576506
17464582426
17464587919
17464594145
17464600126
17464605009
17464611235
17464617949
17464622954
17464630156
17464634977
17464641325
17464647368
17464652861
17464658293
17464665190
17464670622
17464677214
17464685759
17464693022
17464699675
17464705961
17464712736
17464720182
17464725004
17464733122
17464738920
17464744840
17464751005
17464756498
17464762724
17464768339
17464773893
17464779691
17464786405
17464792387
17464797453
17464803495
17464810087
17464815580
17464821134
17464830045
17464835905
17464842985
17464848905
17464856351
17464861600
17464866971
17464872587
17464879423
17464884855
17464890836
17464897550
17464903715
17464909391
17464915433
17464921415
17464926420
17464933378
17464938443
17464946622
17464952848
17464958768
17464963712
17464969022
17464975064
17464980985
17464987577
17464992154
17464999234
17465005094
17465011075
17465017301
17465022977
17465028470
17465034451
17465041043
17465046903
17465052091
17465058011
17465063016
17465069302
17465074796
17465079129
17465085782
17465091702
17465097745
17465103848
17465109769
17465116299
17465121548
17465126126
17465131741
17465136868
17465142483
17465147916
17465152554
17465159451
17465164395
17465171109
17465175381
17465181485
17465187649
17465193631
17465199368
17465205288
17465210171
17465215481
17465220913
17465228543
17465236050
17465243863
17465251675
17465261197
17465271023
17465276699
17465284817
17465290249
17465295620
17465301052
17465306240
17465311917
17465317471
17465324063
17465329617
17465335659
17465339077
17465346523
17465351833
17465356838
17465362820
17465368008
17465374233
17465378689
17465385037
17465388393
17465395412
17465401516
17465406277
17465411465
17465416836
17465423305
17465427944
17465434475
17465440761
17465446011
17465451443
17465457912
17465463955
17465468471
17465474880
17465480495
17465485378
17465491787
17465497341
17465503078
17465508205
17465513393
17465519863
17465523891
17465531032
17465536709
17465541958
17465547451
17465553310
17465559047
17465564724
17465571376
17465576320
17465581996
17465585292
17465593898
17465601100
17465605800
17465613307
17465618801
17465623683
17465630153
17465635280
17465641200
17465647182
17465652858
17465658229
17465664150
17465670253
17465674953
17465681850
17465686672
17465693446
17465699184
17465705226
17465710841
17465716273
17465723476
17465732875
17465739589
17465746974
17465754848
17465762721
17465769557
17465775783
17465782130
17465786464
17465794215
17465800807
17465806300
17465811671
17465816127
17465822841
17465829066
17465834071
17465841029
17465845668
17465853175
17465857447
17465863612
17465869899
17465874781
17465882106
17465886744
17465894007
17465899501
17465904505
17465910060
17465915797
17465921778
17465926112
17465933375
17465938380
17465945338
17465950465
17465955531
17465961817
17465966761
17465973231
17465978907
17465984400
17465989222
17465996241
17466004481
17466008875
17466016444
17466020106
17466030665
17466038904
17466045557
17466054285
17466060450
17466066675
17466072596
17466080103
17466085535
17466092066
17466099268
17466105616
17466112085
17466115198
17466123804
17466130762
17466134913
17466141687
17466146387
17466152552
17466158960
17466164026
17466169825
17466176844
17466182093
17466187708
17466193140
17466199060
17466203577
17466209070
17466215662
17466222315
17466227808
17466233118
17466238184
17466245020
17466252222
17466261072
17466264856
17466276819
17466282556
17466289697
17466294702
17466302087
17466307092
17466313501
17466318445
17466325586
17466329004
17466337244
17466342859
17466349084
17466355554
17466360742
17466367395
17466373132
17466379419
17466385095
17466391199
17466397180
17466402124
17466408471
17466413598
17466419824
17466426843
17466432519
17466437463
17466443139
17466449121
17466455163
17466461755
17466465173
17466473352
17466480127
17466486413
17466492334
17466497583
17466504052
17466507592
17466516076
17466522485
17466528649
17466534142
17466540063
17466545922
17466550744
17466558373
17466562890
17466569726
17466575829
17466581506
17466586816
17466592614
17466598351
17466603783
17466610314
17466616662
17466622094
17466628197
17466633324
17466639306
17466645165
17466649804
17466656945
17466660302
17466669274
17466674950
17466680443
17466685998
17466691674
17466698082
17466703515
17466709496
17466713768
17466720726
17466725304
17466732567
17466738610
17466743676
17466748314
17466754540
17466761132
17466766808
17466773095
17466779015
17466784935
17466790795
17466797814
17466804528
17466810692
17466815697
17466823387
17466828148
17466836815
17466840782
17466848717
17466855187
17466860558
17466867088
17466872704
17466878807
17466883324
17466891075
17466897240
17466902245
17466907066
17466913780
17466918541
17466925438
17466932457
17466938133
17466943993
17466949547
17466956627
17466962974
17466968529
17466973167
17466979393
17466986534
17466992332
17466995689
17467004478
17467007896
17467015159
17467022484
17467028099
17467032432
17467037925
17467044700
17467051536
17467060264
17467065940
17467075279
17467083213
17467090293
17467096519
17467102256
17467108604
17467114646
17467121177
17467126853
17467133018
17467137840
17467144676
17467150108
17467156699
17467162620
17467168357
17467174094
17467179649
17467185386
17467191001
17467197715
17467204002
17467209434
17467215781
17467221580
17467227866
17467233054
17467237815
17467257102
17467263450
17467269370
17467276267
17467281760
17467287070
17467292869
17467299827
17467304282
17467310935
17467316794
17467324057
17467329367
17467334617
17467340842
17467346335
17467352927
17467359580
17467367942
17467377097
17467382468
17467391745
17467398154
17467404074
17467409934
17467415854
17467421774
17467427634
17467433676
17467439719
17467445761
17467452475
17467458823
17467464377
17467469016
17467475424
17467480002
17467487692
17467493002
17467498679
17467505148
17467509665
17467516074
17467519369
17467526694
17467532187
17467537680
17467544150
17467548483
17467555258
17467560690
17467565939
17467571921
17467577841
17467583578
17467589193
17467595175
17467600302
17467605795
17467612021
17467617270
17467623739
17467628439
17467634420
17467638876
17467646017
17467652426
17467659750
17467664877
17467670675
17467676229
17467680929
17467687277
17467693624
17467699240
17467706259
17467713156
17467718954
17467725851
17467731954
17467737509
17467744344
17467749838
17467755697
17467763448
17467768575
17467777731
17467785116
17467790975
17467796407
17467801412
17467808492
17467815206
17467820943
17467826376
17467831930
17467838094
17467843160
17467848409
17467853963
17467860006
17467867940
17467873739
17467883504
17467889364
17467895772
17467901815
17467909383
17467918233
17467925008
17467931112
17467936422
17467941365
17467950154
17467955831
17467961141
17467967488
17467973348
17467979024
17467983846
17467990560
17467996602
17468002034
17468007894
17468013448
17468018392
17468024068
17468031514
17468037373
17468042867
17468048482
17468054280
17468058858
17468064473
17468071858
17468078084
17468083455
17468089192
17468093404
17468099934
17468104573
17468113423
17468118794
17468123799
17468129353
17468134541
17468141987
17468146504
17468155171
17468160359
17468165852
17468171223
17468176716
17468183552
17468188069
17468196064
17468201130
17468206501
17468212666
17468217183
17468224019
17468230183
17468235676
17468241719
17468247395
17468252644
17468258320
17468265034
17468270405
17468276875
17468282612
17468288227
17468293598
17468298054
17468305866
17468313191
17468319538
17468324665
17468329426
17468336018
17468342182
17468348591
17468355854
17468360676
17468367451
17468373676
17468379108
17468385212
17468391010
17468401386
17468408405
17468416401
17468423420
17468430317
17468438923
17468444599
17468451008
17468455646
17468461872
17468466511
17468472736
17468479206
17468484882
17468491474
17468496479
17468503071
17468508625
17468513996
17468521686
17468527851
17468533649
17468539325
17468544696
17468547626
17468554401
17468562336
17468568134
17468573749
17468578144
17468584552
17468590229
17468596271
17468603168
17468609088
17468614948
17468619464
17468626788
17468631549
17468638385
17468644122
17468649921
17468655109
17468659808
17468665790
17468671954
17468677020
17468683429
17468689288
17468695453
17468699847
17468706683
17468712054
17468717975
17468723590
17468730426
17468735919
17468740192
17468747088
17468752582
17468758197
17468766498
17468771441
17468777423
17468782977
17468788409
17468791278
17468799518
17468806353
17468811297
17468817706
17468823260
17468828570
17468834002
17468839434
17468847796
17468852679
17468858966
17468862139
17468870196
17468874713
17468880145
17468888140
17468893145
17468900836
17468907611
17468914324
17468921893
17468930499
17468936846
17468945391
17468951983
17468957232
17468965167
17468970721
17468977129
17468983050
17468989336
17468996111
17469002032
17469009234
17469014239
17469020891
17469026934
17469032549
17469039263
17469043841
17469052386
17469058672
17469065081
17469070696
17469076006
17469085161
17469091936
17469097918
17469103533
17469110735
17469115557
17469122393
17469130083
17469135759
17469141802
17469147539
17469152971
17469157122
17469164202
17469171221
17469178362
17469183306
17469189714
17469194719
17469200945
17469205889
17469213396
17469219255
17469225054
17469229509
17469235918
17469241411
17469247087
17469255022
17469259660
17469265886
17469271562
17469276811
17469282365
17469289079
17469294694
17469300798
17469305864
17469311296
17469316606
17469323198
17469328020
17469335100
17469341691
17469347185
17469352739
17469357866
17469363969
17469369707
17469376909
17469382585
17469387834
17469393388
17469399492
17469407365
17469416337
17469422990
17469430070
17469444047
17469451249
17469457475
17469465409
17469471940
17469478166
17469484941
17469490312
17469497819
17469501237
17469509965
17469515641
17469521562
17469526627
17469532121
17469538834
17469545365
17469551774
17469556413
17469563371
17469568131
17469575822
17469579179
17469587174
17469592728
17469598588
17469605119
17469610612
17469615494
17469620805
17469626542
17469631119
17469638932
17469644242
17469650712
17469655472
17469660966
17469667496
17469671464
17469679825
17469684525
17469690262
17469696732
17469702347
17469707657
17469712784
17469718522
17469725907
17469731217
17469736893
17469742264
17469748062
17469752945
17469759293
17469766312
17469771866
17469776993
17469782181
17469787918
17469794266
17469798172
17469805741
17469810196
17469817276
17469822891
17469830216
17469836258
17469842362
17469850174
17469854935
17469861282
17469867813
17469873367
17469878433
17469883560
17469890274
17469896500
17469901566
17469907547
17469913345
17469919937
17469925125
17469932022
17469937881
17469944168
17469950516
17469959305
17469967361
17469972549
17469983108
17469990799
17469997513
17470003250
17470010147
17470014907
17470022415
17470027847
17470032974
17470038711
17470043777
17470049942
17470055435
17470060195
17470067153
17470072402
17470077163
17470083389
17470087783
17470094131
17470100112
17470105544
17470112380
17470116287
17470123123
17470127090
17470133315
17470139236
17470146072
17470151748
17470157668
17470165542
17470170852
17470176833
17470181777
17470190505
17470195083
17470201491
17470208694
17470214431
17470222610
17470230971
17470239638
17470247085
17470253798
17470260573
17470269118
17470275466
17470282485
17470290053
17470295424
17470302016
17470307631
17470313491
17470317885
17470326308
17470331984
17470337600
17470346205
17470352614
17470358779
17470364028
17470370681
17470376662
17470381911
17470385512
17470393630
17470396865
17470403639
17470410475
17470416030
17470421340
17470426589
17470432387
17470436659
17470442702
17470449477
17470455580
17470460463
17470465590
17470470168
17470476454
17470484633
17470488417
17470497328
17470504774
17470512465
17470523756
17470533339
17470539259
17470544630
17470549879
17470555189
17470560499
17470564955
17470570387
17470577711
17470581556
17470587904
17470593947
17470601027
17470605909
17470611342
17470615858
17470622999
17470629225
17470635328
17470641859
17470648085
17470653212
17470658522
17470664442
17470670912
17470676649
17470680799
17470687086
17470691786
17470698988
17470702894
17470710523
17470716566
17470722120
17470727247
17470733167
17470739759
17470745741
17470751783
17470755750
17470761182
17470766981
17470771864
17470777601
17470783460
17470787977
17470795057
17470801405
17470807325
17470810804
17470817152
17470822217
17470827589
17470833509
17470839734
17470845960
17470852308
17470857374
17470861524
17470867750
17470873243
17470878736
17470883741
17470889722
17470894361
17470900159
17470904798
17470911573
17470918531
17470924573
17470930188
17470935437
17470940625
17470945996
17470951368
17470955823
17470965345
17470969983
17470975293
17470979810
17470985669
17470990979
17470996289
17471002271
17471008191
17471015820
17471025403
17471034497
17471039868
17471046826
17471057507
17471065015
17471070264
17471076733
17471081433
17471088269
17471093396
17471100293
17471105908
17471111096
17471116223
17471120373
17471127392
17471132275
17471138745
17471144299
17471149792
17471156079
17471162182
17471167309
17471172680
17471177136
17471183606
17471188183
17471193921
17471198864
17471205456
17471212231
17471217541
17471223156
17471228466
17471233654
17471239209
17471244274
17471249646
17471255566
17471262219
17471267773
17471272595
17471278576
17471283093
17471289196
17471294811
17471301098
17471307385
17471313549
17471319348
17471324902
17471329846
17471335156
17471340344
17471345898
17471350597
17471356274
17471361584
17471366222
17471371593
17471376537
17471384533
17471389416
17471396557
17471404186
17471409191
17471416149
17471423412
17471429516
17471435680
17471440929
17471447216
17471453502
17471459240
17471467052
17471472912
17471479564
17471485729
17471490856
17471497387
17471502758
17471509472
17471515453
17471520824
17471526073
17471532665
17471539379
17471546642
17471556468
17471560924
17471569469
17471577159
17471583324
17471590404
17471595775
17471601634
17471607555
17471613170
17471619274
17471625499
17471631786
17471637645
17471644542
17471650157
17471654979
17471661327
17471664806
17471673534
17471678844
17471685374
17471690440
17471695567
17471702403
17471708629
17471714610
17471720958
17471727366
17471733104
17471738353
17471744212
17471751353
17471756480
17471761607
17471767894
17471773509
17471777842
17471784800
17471790782
17471796458
17471802623
17471808116
17471815257
17471819896
17471826426
17471833995
17471839366
17471844859
17471851634
17471857066
17471863230
17471869151
17471875437
17471882212
17471887766
17471894358
17471898875
17471906016
17471912547
17471918650
17471930247
17471934031
17471942637
17471948924
17471954173
17471960276
17471965586
17471972544
17471977061
17471982310
17471990305
17471996287
17472001719
17472006174
17472013499
17472018809
17472023630
17472030649
17472035593
17472044199
17472052012
17472058664
17472068125
17472077402
17472083140
17472091929
17472096018
17472100657
17472108286
17472114756
17472119150
17472125376
17472131113
17472137155
17472142588
17472148508
17472154001
17472159311
17472164926
17472170053
17472175974
17472182443
17472188425
17472194101
17472198618
17472205087
17472212656
17472218210
17472224008
17472228769
17472236581
17472241403
17472246408
17472252267
17472257578
17472264352
17472267953
17472275644
17472280954
17472286325
17472293344
17472299264
17472304513
17472309640
17472316171
17472322641
17472328439
17472335092
17472340402
17472345468
17472350351
17472357492
17472364328
17472369150
17472376230
17472380563
17472387765
17472393380
17472399057
17472404733
17472412240
17472416879
17472421640
17472428476
17472434945
17472440683
17472445687
17472450082
17472456613
17472462167
17472469247
17472472970
17472479684
17472483285
17472492074
17472496224
17472502023
17472508553
17472514230
17472521920
17472527413
17472533212
17472539986
17472548226
17472554635
17472561227
17472568978
17472578988
17472585824
17472591500
17472597054
17472600411
17472607979
17472613534
17472618966
17472625130
17472630501
17472638253
17472643319
17472648141
17472654305
17472659249
17472668526
17472673470
17472679757
17472686226
17472689522
17472697640
17472703377
17472709237
17472715096
17472719918
17472726509
17472730782
17472738411
17472744576
17472750557
17472756539
17472760201
17472767586
17472774605
17472778572
17472785469
17472790413
17472797249
17472802498
17472808479
17472813606
17472820137
17472826485
17472831734
17472837654
17472843025
17472848396
17472855782
17472860603
17472866463
17472870857
17472877571
17472884407
17472890205
17472894295
17472900520
17472905952
17472910957
17472918098
17472923775
17472928535
17472936043
17472940498
17472948311
17472953865
17472959480
17472965034
17472970161
17472975654
17472982429
17472989448
17472995552
17473001167
17473007454
17473011482
17473017341
17473022285
17473030098
17473036323
17473044075
17473052742
17473060737
17473068550
17473074653
17473081001
17473085822
17473094001
17473099738
17473104743
17473112617
17473117744
17473124946
17473131477
17473135932
17473141975
17473148200
17473155769
17473161079
17473167548
17473172126
17473178840
17473183967
17473189460
17473195319
17473201423
17473207648
17473211982
17473218635
17473222602
17473228461
17473232673
17473239509
17473248237
17473253547
17473258124
17473263495
17473269050
17473275336
17473281318
17473286139
17473292426
17473295722
17473302314
17473306891
17473313971
17473320624
17473326300
17473330756
17473336982
17473343512
17473349311
17473354376
17473359931
17473365607
17473369757
17473376349
17473381415
17473388739
17473392279
17473399848
17473405585
17473412116
17473417182
17473424323
17473428778
17473434943
17473440741
17473446539
17473453436
17473457892
17473463385
17473468024
17473475348
17473480536
17473486761
17473491583
17473499396
17473506171
17473512396
17473517950
17473524176
17473529059
17473534369
17473542120
17473548102
17473553412
17473556769
17473564459
17473570623
17473577704
17473585455
17473592108
17473598150
17473603521
17473610418
17473616949
17473623846
17473629522
17473633184
17473641119
17473647772
17473652349
17473659246
17473663580
17473671758
17473675176
17473681768
17473687994
17473693792
17473699468
17473705633
17473712286
17473717962
17473723272
17473728582
17473734136
17473740484
17473745733
17473749090
17473756963
17473760381
17473768133
17473773809
17473779058
17473780950
17473788641
17473794683
17473800909
17473807134
17473813299
17473817937
17473824285
17473830144
17473835454
17473843694
17473852300
17473858037
17473863530
17473868718
17473874090
17473878301
17473885747
17473890691
17473895940
17473900579
17473907781
17473913762
17473918889
17473925359
17473931707
17473940190
17473946660
17473952397
17473958562
17473964665
17473970647
17473974675
17473980657
17473986455
17473992070
17473997319
17474003484
17474010991
17474015569
17474020268
17474026372
17474029607
17474036504
17474041753
17474047185
17474054082
17474058659
17474064702
17474070256
17474076176
17474080449
17474087224
17474092656
17474099492
17474104436
17474113286
17474118657
17474124821
17474132329
17474138310
17474148320
17474156987
17474165043
17474171269
17474177250
17474183171
17474189030
17474195500
17474201237
17474206303
17474212407
17474218876
17474223698
17474231999
17474237370
17474244450
17474248051
17474254948
17474259465
17474266178
17474272526
17474278446
17474283573
17474289799
17474296391
17474301029
17474307011
17474312992
17474320255
17474324955
17474331364
17474336918
17474341862
17474346500
17474352604
17474357548
17474363712
17474368839
17474374210
17474379642
17474385502
17474390629
17474396305
17474402103
17474408085
17474413456
17474420231
17474425846
17474430240
17474436710
17474442447
17474447757
17474451053
17474457889
17474464054
17474469547
17474474430
17474480655
17474487369
17474493229
17474499332
17474504154
17474510440
17474513736
17474519901
17474524540
17474532474
17474538578
17474544315
17474548954
17474554203
17474559696
17474565189
17474571720
17474576663
17474582767
17474588748
17474594791
17474600223
17474607181
17474612491
17474620120
17474623904
17474631412
17474638004
17474642032
17474647403
17474654239
17474662784
17474669070
17474675357
17474682193
17474687564
17474694339
17474700015
17474711246
17474717105
17474722781
17474728518
17474734866
17474740664
17474745791
17474754580
17474760745
17474765506
17474771914
17474776614
17474783145
17474789065
17474795657
17474801089
17474805972
17474816958
17474820620
17474828006
17474835208
17474841555
17474847537
17474851748
17474859500
17474865176
17474870364
17474876956
17474882876
17474889590
17474896121
17474901125
17474907351
17474911990
17474919985
17474927432
17474933108
17474939639
17474944888
17474951418
17474959292
17474965212
17474971011
17474976748
17474982851
17474989443
17474996767
17475002505
17475008974
17475013369
17475019961
17475026247
17475032229
17475039614
17475045229
17475050966
17475056643
17475062258
17475070742
17475075686
17475081972
17475089296
17475095644
17475101137
17475106386
17475113161
17475117739
17475123232
17475130678
17475135317
17475142092
17475147829
17475152956
17475157717
17475164064
17475168520
17475175661
17475182680
17475188051
17475195925
17475202333
17475208070
17475214845
17475219789
17475227358
17475232484
17475239137
17475244386
17475249574
17475256166
17475262086
17475267519
17475272584
17475278322
17475283876
17475290102
17475294557
17475301515
17475304750
17475313478
17475318849
17475324403
17475329408
17475335023
17475341188
17475344484
17475352723
17475358156
17475363038
17475368165
17475373231
17475380372
17475386232
17475391420
17475395814
17475402467
17475407960
17475413087
17475419435
17475424928
17475430726
17475435182
17475441957
17475445130
17475451722
17475457398
17475463990
17475470094
17475475587
17475480653
17475484742
17475491578
17475496949
17475503541
17475508851
17475514588
17475519471
17475525025
17475530396
17475534608
17475541932
17475547242
17475552430
17475558533
17475563966
17475568482
17475574097
17475580567
17475587037
17475592164
17475597901
17475602906
17475608155
17475613343
17475620240
17475624695
17475630127
17475637757
17475642090
17475648865
17475655884
17475662049
17475670289
17475675354
17475681214
17475686341
17475692261
17475702942
17475710389
17475716797
17475723633
17475730042
17475737122
17475746704
17475752686
17475759766
17475765076
17475771546
17475776428
17475783936
17475791443
17475796692
17475802490
17475809082
17475813171
17475820923
17475826172
17475832031
17475838135
17475844604
17475850342
17475856506
17475862732
17475867493
17475872620
17475878113
17475884827
17475890198
17475895752
17475901306
17475907715
17475913208
17475917785
17475923401
17475929870
17475936950
17475942383
17475948059
17475951233
17475959167
17475963928
17475969055
17475976318
17475981506
17475987365
17475994201
17476000671
17476006530
17476013244
17476017944
17476023010
17476030334
17476034912
17476041625
17476048095
17476054382
17476059326
17476065795
17476072204
17476078246
17476084106
17476092101
17476098510
17476104797
17476110229
17476116637
17476122436
17476128539
17476133666
17476140075
17476145934
17476151488
17476157775
17476162719
17476169189
17476177489
17476180480
17476190917
17476197204
17476206420
17476213256
17476222594
17476228515
17476234618
17476240233
17476246825
17476252501
17476258544
17476264098
17476268676
17476276976
17476280272
17476289733
17476295653
17476300048
17476306456
17476312133
17476317992
17476324706
17476329894
17476335631
17476340941
17476348082
17476357665
17476361876
17476368712
17476372008
17476379637
17476385314
17476390257
17476397154
17476403136
17476408812
17476414244
17476419493
17476424681
17476434386
17476442686
17476448912
17476454893
17476460875
17476466246
17476472838
17476477354
17476484190
17476490843
17476499205
17476504820
17476512694
17476518065
17476525084
17476530272
17476535582
17476542235
17476547361
17476553038
17476557982
17476564329
17476570433
17476575926
17476581480
17476587156
17476593626
17476598326
17476604429
17476610655
17476615843
17476621031
17476627012
17476631590
17476639646
17476645628
17476651121
17476657286
17476662351
17476667478
17476675291
17476680784
17476688169
17476693052
17476702024
17476707945
17476713316
17476720518
17476726987
17476731931
17476737486
17476743772
17476749998
17476754880
17476760496
17476766599
17476772947
17476777341
17476783933
17476788633
17476794675
17476801633
17476807371
17476812192
17476818235
17476823545
17476829465
17476834104
17476840207
17476845701
17476851804
17476857785
17476862363
17476867917
17476873349
17476878598
17476885251
17476890073
17476894712
17476901303
17476906125
17476910764
17476916867
17476922483
17476929380
17476933896
17476938901
17476941831
17476949399
17476955014
17476960813
17476966611
17476970517
17476976621
17476981870
17476987119
17476993283
17476999387
17477005429
17477010739
17477016293
17477020261
17477025998
17477031918
17477037167
17477043942
17477048154
17477055539
17477060727
17477066159
17477072507
17477078793
17477083798
17477089841
17477093991
17477100766
17477103390
17477109677
17477114499
17477117062
17477121884
17477126401
17477130307
17477135067
17477138058
17477143246
17477148617
17477153256
17477160397
17477166989
17477174252
17477179257
17477185788
17477189206
17477194699
17477200131
17477203915
17477208432
17477213375
17477218685
17477222775
17477228329
17477233395
17477237484
17477243649
17477247311
17477252865
17477258908
17477263058
17477268856
17477275387
17477279843
17477284908
17477289974
17477295529
17477299618
17477306515
17477309689
17477315426
17477320004
17477324764
17477328548
17477334042
17477338497
17477343929
17477348873
17477353573
17477357723
17477362179
17477367611
17477370602
17477377437
17477380123
17477387447
17477391903
17477396969
17477401913
17477407772
17477412472
17477415584
17477420955
17477425594
17477430355
17477435177
17477439510
17477445186
17477450374
17477456234
17477459469
17477466549
17477469051
17477476009
17477481929
17477486812
17477492611
17477495967
17477501888
17477508235
17477512447
17477517635
17477521968
17477527095
17477531673
17477536495
17477539607
17477545284
17477551082
17477555416
17477562618
17477565364
17477570735
17477573665
17477580135
17477587581
17477594966
17477602168
17477606075
17477614864
17477619075
17477624812
17477632137
17477637691
17477642268
17477647823
17477653377
17477658626
17477662776
17477668513
17477674312
17477679561
17477684260
17477688533
17477693355
17477697871
17477702815
17477708064
17477711726
17477717891
17477722346
17477727412
17477733210
17477738887
17477744014
17477748408
17477751948
17477758540
17477763606
17477767695
17477773799
17477777827
17477781367
17477788264
17477793879
17477798518
17477804072
17477808528
17477812007
17477820979
17477827204
17477832820
17477838618
17477844111
17477848445
17477856318
17477860102
17477865717
17477870661
17477877314
17477882319
17477889338
17477893794
17477900935
17477907526
17477914240
17477919306
17477926447
17477932856
17477938227
17477943842
17477949824
17477956049
17477960078
17477969599
17477973322
17477981867
17477985712
17477992548
17477998591
17478007624
17478013605
17478021113
17478026178
17478033259
17478038630
17478047113
17478053644
17478060602
17478066950
17478073236
17478078180
17478084650
17478089716
17478095148
17478100519
17478106867
17478111811
17478120111
17478123957
17478130792
17478137018
17478143183
17478149164
17478156854
17478162653
17478170770
17478177545
17478183954
17478190485
17478197565
17478203912
17478209345
17478215326
17478220636
17478226495
17478232416
17478237970
17478243341
17478249933
17478255853
17478264581
17478268854
17478275995
17478280023
17478288263
17478293268
17478298700
17478304193
17478311883
17478318109
17478323236
17478327752
17478334344
17478339532
17478346612
17478351373
17478358880
17478363702
17478371576
17478376092
17478381402
17478387384
17478392511
17478396966
17478403924
17478411431
17478416741
17478422723
17478426446
17478432611
17478438531
17478444512
17478449517
17478456170
17478461175
17478466790
17478472772
17478477837
17478484734
17478488824
17478495171
17478499871
17478505608
17478511346
17478517999
17478525201
17478530877
17478534844
17478542168
17478546319
17478553643
17478559624
17478566582
17478573357
17478579156
17478584649
17478590081
17478594903
17478602349
17478606072
17478611992
17478617180
17478623223
17478628411
17478634331
17478639458
17478646538
17478652031
17478657647
17478662835
17478669548
17478675042
17478681267
17478686516
17478695488
17478699028
17478707939
17478713005
17478718804
17478725273
17478730339
17478736992
17478745171
17478753533
17478759331
17478767265
17478773735
17478779411
17478784844
17478794670
17478803276
17478808708
17478814384
17478818840
17478824638
17478830193
17478838249
17478842888
17478847526
17478853508
17478858818
17478865166
17478869865
17478873711
17478881401
17478887138
17478893303
17478897514
17478904045
17478908317
17478914421
17478920341
17478922355
17478933281
17478938835
17478943718
17478949699
17478954155
17478957451
17478965629
17478968986
17478977653
17478981498
17478989860
17478993156
17479000602
17479005363
17479011650
17479017082
17479023918
17479029411
17479035758
17479041007
17479047294
17479051811
17479059074
17479064323
17479070731
17479076957
17479084647
17479089958
17479096183
17479101005
17479107658
17479114188
17479117973
17479126395
17479130607
17479139640
17479144584
17479150748
17479155814
17479163566
17479168326
17479176261
17479181144
17479188102
17479194144
17479199637
17479206473
17479208487
17479217460
17479221183
17479228507
17479235770
17479244681
17479248343
17479255423
17479260489
17479267386
17479272879
17479281852
17479287223
17479292472
17479299124
17479305045
17479309806
17479315604
17479322013
17479328299
17479334525
17479341422
17479346732
17479353201
17479358145
17479362479
17479374869
17479381278
17479387076
17479394034
17479400015
17479406546
17479411490
17479419180
17479423880
17479429922
17479436331
17479441885
17479446158
17479453360
17479458121
17479463492
17479469168
17479475271
17479482168
17479489187
17479493643
17479499624
17479503958
17479507498
17479515432
17479518850
17479528433
17479532278
17479539358
17479542837
17479549734
17479555227
17479561148
17479565786
17479574942
17479578726
17479586050
17479590750
17479597097
17479603567
17479608877
17479613638
17479621389
17479626150
17479632803
17479637808
17479644338
17479648550
17479654775
17479659109
17479666433
17479670767
17479676199
17479682058
17479688039
17479692739
17479699819
17479704824
17479710744
17479716116
17479723806
17479729543
17479737356
17479743154
17479750356
17479755483
17479761526
17479767385
17479774770
17479779958
17479783742
17479792226
17479796316
17479803640
17479809743
17479816762
17479822194
17479828725
17479836477
17479843068
17479848500
17479855458
17479862050
17479866811
17479875905
17479880849
17479891164
17479898305
17479907888
17479915639
17479925405
17479932790
17479939198
17479949819
17479957387
17479964955
17479974477
17479981740
17479988454
17479998219
17480006215
17480014088
17480024220
17480032216
17480039174
17480052846
17480062245
17480071339
17480082875
17480090748
17480097035
17480110463
17480116810
17480126820
17480134205
17480139943
17480147023
17480152638
17480157948
17480168446
17480174061
17480178883
17480183827
17480189930
17480195607
17480201100
17480207142
17480208973
17480218678
17480226734
17480231495
17480234852
17480243153
17480250050
17480254627
17480261830
17480268604
17480275257
17480279896
17480285633
17480289967
17480293324
17480301991
17480305347
17480313221
17480319691
17480323963
17480328785
17480334461
17480341358
17480345997
17480352222
17480359363
17480364612
17480369861
17480376514
17480381885
17480386341
17480392628
17480397266
17480403553
17480409595
17480415210
17480421070
17480426441
17480432666
17480437915
17480444446
17480448108
17480457874
17480462268
17480470996
17480474720
17480481922
17480487964
17480494312
17480499683
17480505847
17480512500
17480517322
17480521900
17480529529
17480535327
17480542774
17480548267
17480556140
17480563098
17480569263
17480573840
17480581287
17480586536
17480594104
17480599597
17480608325
17480613879
17480621020
17480626636
17480634997
17480641467
17480648059
17480653308
17480659045
17480663623
17480670886
17480675525
17480682055
17480689075
17480694507
17480701770
17480710132
17480715259
17480722217
17480726794
17480734424
17480742785
17480748950
17480754687
17480761767
17480767810
17480773547
17480779711
17480785510
17480789721
17480795581
17480800891
17480806872
17480811633
17480818347
17480824267
17480830554
17480834887
17480840685
17480846362
17480852831
17480859301
17480864794
17480869860
17480875842
17480881640
17480885119
17480892077
17480897326
17480904711
17480908678
17480915270
17480920580
17480926195
17480932238
17480936877
17480941820
17480950793
17480955370
17480962816
17480971606
17480976244
17480982409
17480989550
17480995470
17481002123
17481007372
17481012865
17481018908
17481023546
17481028734
17481035936
17481041857
17481047838
17481053514
17481058458
17481062731
17481069078
17481074022
17481080675
17481085436
17481092394
17481096971
17481100572
17481108873
17481112657
17481121019
17481125597
17481132799
17481138048
17481143907
17481148790
17481154527
17481159593
17481166246
17481170885
17481176622
17481183214
17481189562
17481194322
17481197923
17481205248
17481209032
17481217516
17481221178
17481228258
17481231981
17481240037
17481243822
17481252061
17481255907
17481262559
17481267442
17481273363
17481279588
17481285692
17481292283
17481301866
17481306993
17481314683
17481318651
17481326829
17481330858
17481340440
17481344224
17481351182
17481356614
17481364671
17481369798
17481375962
17481382554
17481389939
17481395127
17481399827
17481405809
17481411119
17481416123
17481421311
17481425828
17481432725
17481437058
17481443101
17481448716
17481454514
17481458970
17481464219
17481470139
17481475388
17481482163
17481488023
17481492661
17481496262
17481504868
17481509141
17481515916
17481520982
17481526658
17481532395
17481538865
17481544114
17481548691
17481555039
17481559556
17481565659
17481572129
17481578354
17481583909
17481589158
17481595749
17481602463
17481607285
17481613205
17481619553
17481625535
17481631028
17481635849
17481642136
17481647385
17481653061
17481658738
17481663926
17481669724
17481674668
17481681259
17481686936
17481692917
17481697495
17481704026
17481709397
17481718003
17481723313
17481729660
17481736069
17481738327
17481746323
17481748154
17481758103
17481761520
17481770004
17481772202
17481781723
17481785629
17481793015
17481796494
17481802292
17481807785
17481814560
17481819992
17481824387
17481830002
17481835678
17481840195
17481845871
17481851547
17481856003
17481863266
17481867538
17481873703
17481878952
17481883468
17481890487
17481898971
17481905441
17481912033
17481917587
17481924667
17481931381
17481937362
17481942978
17481949081
17481954330
17481959213
17481965255
17481970443
17481976181
17481981674
17481988327
17481994308
17481999069
17482004928
17482011154
17482015182
17482022811
17482026534
17482033920
17482038131
17482045944
17482051864
17482057784
17482062301
17482068771
17482073959
17482080917
17482085372
17482092025
17482098495
17482104354
17482110824
17482116012
17482120406
17482124251
17482132003
17482137252
17482144210
17482149337
17482155685
17482161300
17482166488
17482173324
17482178267
17482183883
17482189193
17482195968
17482201278
17482207992
17482213241
17482217818
17482224044
17482229171
17482236190
17482241195
17482244857
17482252364
17482256331
17482263655
17482268843
17482274947
17482280623
17482286177
17482291182
17482298018
17482303023
17482307906
17482313094
17482319747
17482325728
17482331099
17482337630
17482343611
17482348860
17482355025
17482359480
17482363265
17482371809
17482375472
17482382369
17482387373
17482392989
17482398604
17482404402
17482411848
17482417891
17482422652
17482428999
17482434004
17482441695
17482448591
17482460860
17482466780
17482474592
17482480269
17482489424
17482497175
17482503340
17482513044
17482519941
17482526289
17482535200
17482543379
17482549726
17482558332
17482565107
17482570967
17482577192
17482582991
17482587873
17482596357
17482602583
17482604719
17482613874
17482620344
17482625593
17482632063
17482636640
17482642622
17482648420
17482654951
17482659528
17482665998
17482670515
17482676374
17482680647
17482688459
17482694624
17482700056
17482704328
17482710859
17482715253
17482721296
17482727582
17482732831
17482739484
17482744428
17482749311
17482755414
17482760480
17482765912
17482772260
17482777936
17482783429
17482789289
17482794721
17482800336
17482804792
17482811567
17482816266
17482823407
17482827070
17482833722
17482837262
17482844831
17482851239
17482856000
17482860883
17482869184
17482874372
17482880170
17482886640
17482891461
17482897565
17482903546
17482907453
17482915570
17482921430
17482928327
17482931928
17482940228
17482945050
17482951581
17482957379
17482963300
17482970685
17482976483
17482981305
17482985883
17482992230
17482997784
17483003400
17483010052
17483016095
17483022748
17483027020
17483033002
17483038739
17483043561
17483049115
17483056683
17483063153
17483069745
17483074811
17483081280
17483087079
17483094098
17483100079
17483108868
17483117047
17483121685
17483128277
17483135724
17483142193
17483146588
17483152996
17483158795
17483164593
17483170330
17483173809
17483181256
17483184674
17483192364
17483196209
17483203900
17483210552
17483216595
17483219891
17483227276
17483232037
17483238079
17483243389
17483250408
17483256939
17483261211
17483266094
17483272137
17483276897
17483283062
17483289776
17483296612
17483301800
17483307781
17483313091
17483318890
17483325115
17483330303
17483334759
17483342327
17483348980
17483353496
17483359905
17483365825
17483369915
17483375713
17483381939
17483387310
17483393047
17483398723
17483404278
17483409160
17483414898
17483421734
17483426616
17483432781
17483440227
17483443889
17483452068
17483455547
17483462566
17483468547
17483473186
17483478130
17483486736
17483492046
17483499248
17483503642
17483510662
17483515544
17483521160
17483528179
17483534465
17483539165
17483544780
17483549541
17483556377
17483562541
17483566509
17483571208
17483578532
17483585613
17483590251
17483593730
17483601726
17483608134
17483612834
17483619548
17483624126
17483631267
17483637431
17483642802
17483647441
17483652812
17483659709
17483667033
17483677592
17483684794
17483689860
17483697734
17483703288
17483710978
17483717631
17483725932
17483732646
17483738688
17483745280
17483750407
17483756266
17483761149
17483769572
17483774943
17483781962
17483787272
17483792521
17483797953
17483804484
17483808940
17483816996
17483822123
17483827372
17483833598
17483839152
17483844218
17483849589
17483855204
17483861491
17483867472
17483873637
17483877909
17483884135
17483890299
17483895426
17483901652
17483907755
17483913859
17483919108
17483924845
17483931620
17483936930
17483943583
17483948466
17483952189
17483961710
17483968607
17483974589
17483978007
17483984720
17483989603
17483996378
17484002237
17484009501
17484014811
17484021097
17484026346
17484032572
17484036844
17484042887
17484048624
17484054300
17484060953
17484067606
17484072672
17484078348
17484084635
17484089701
17484095621
17484098917
17484107828
17484111795
17484118082
17484123514
17484129678
17484134439
17484140970
17484146402
17484152933
17484158304
17484164346
17484169778
17484176309
17484181009
17484187418
17484192239
17484199380
17484206033
17484210916
17484216775
17484221109
17484227151
17484233438
17484237894
17484244119
17484250040
17484256387
17484262185
17484267373
17484272439
17484279336
17484284890
17484288980
17484299966
17484304178
17484314615
17484320474
17484325052
17484332986
17484337869
17484341958
17484352395
17484356424
17484364114
17484367776
17484375039
17484380105
17484386453
17484391397
17484398232
17484403482
17484409585
17484414346
17484419656
17484426370
17484431069
17484436074
17484444863
17484449929
17484455850
17484461892
17484467385
17484471719
17484478371
17484483132
17484489602
17484495950
17484502724
17484508706
17484513528
17484517922
17484525490
17484529885
17484535683
17484542031
17484548623
17484554909
17484560097
17484565713
17484571572
17484575905
17484583718
17484589882
17484595192
17484599587
17484605446
17484611794
17484615151
17484622048
17484625405
17484635598
17484641762
17484647683
17484650978
17484657204
17484662026
17484668984
17484674355
17484681313
17484686806
17484693703
17484698525
17484703591
17484709633
17484715126
17484719582
17484729286
17484736122
17484740700
17484747048
17484754006
17484758705
17484765602
17484771034
17484774696
17484784584
17484792091
17484798073
17484803688
17484808205
17484814552
17484819374
17484826576
17484833778
17484840370
17484845619
17484849342
17484857216
17484861000
17484868324
17484874122
17484881202
17484890480
17484896095
17484905494
17484913002
17484918312
17484923500
17484932838
17484938087
17484945594
17484953285
17484957313
17484962806
17484968544
17484974830
17484984779
17484989845
17484995826
17485001075
17485006751
17485012550
17485019264
17485025245
17485031654
17485036842
17485043311
17485048438
17485054481
17485060645
17485065467
17485074073
17485079200
17485085548
17485091773
17485093787
17485104285
17485110389
17485115455
17485123878
17485128821
17485135047
17485141334
17485147193
17485151771
17485157813
17485163733
17485169776
17485174903
17485183326
17485188697
17485195289
17485201331
17485205909
17485214576
17485221534
17485229224
17485235694
17485241126
17485244727
17485253333
17485258521
17485265723
17485271765
17485276465
17485280982
17485291541
17485297766
17485303015
17485309302
17485314673
17485321204
17485328162
17485334387
17485340613
17485346594
17485351782
17485358130
17485364600
17485369605
17485375769
17485382361
17485386816
17485392615
17485399084
17485404028
17485410010
17485414099
17485421728
17485429053
17485433874
17485437781
17485446875
17485450659
17485458533
17485464392
17485471472
17485477514
17485483679
17485490210
17485498083
17485504370
17485512793
17485517736
17485527685
17485535681
17485542761
17485548437
17485555700
17485561804
17485566625
17485574560
17485580664
17485585241
17485591162
17485597326
17485601843
17485607580
17485613195
17485619787
17485624487
17485630895
17485636205
17485642431
17485648718
17485651037
17485659338
17485666601
17485671667
17485677709
17485682897
17485686437
17485695592
17485699316
17485705785
17485709447
17485718420
17485722082
17485729650
17485735509
17485742406
17485747533
17485752233
17485757360
17485764440
17485769018
17485775731
17485780309
17485786351
17485793126
17485797582
17485803502
17485807531
17485815038
17485820531
17485827123
17485832433
17485839269
17485844579
17485852147
17485858373
17485866796
17485874547
17485887242
17485893346
17485898900
17485905675
17485910924
17485918248
17485924474
17485934606
17485945104
17485952977
17485963963
17485972691
17485979283
17485990819
17486000340
17486010045
17486019139
17486029210
17486038548
17486046605
17486054112
17486061680
17486071751
17486079625
17486087315
17486097874
17486104466
17486112156
17486120274
17486127293
17486134373
17486142613
17486150608
17486158604
17486166416
17486174290
17486179844
17486190769
17486195835
17486208347
17486218784
17486229099
17486242100
17486252415
17486268894
17486277927
17486285496
17486294285
17486302952
17486310276
17486317112
17486326572
17486335972
17486343723
17486351597
17486360386
17486368564
17486375461
17486385715
17486390415
17486401035
17486409214
17486417209
17486424045
17486432041
17486439670
17486447605
17486456577
17486462741
17486472507
17486479587
17486488376
17486495151
17486503208
17486510043
17486518833
17486527194
17486535312
17486543979
17486552463
17486559909
17486568027
17486575778
17486584445
17486591586
17486600375
17486608310
17486615085
17486624179
17486632602
17486641696
17486647189
17486657504
17486666537
17486674045
17486682162
17486689303
17486697848
17486705050
17486713168
17486724154
17486732943
17486739779
17486746066
17486754489
17486762728
17486770602
17486779147
17486787325
17486795504
17486805331
17486813693
17486820529
17486828585
17486836947
17486846346
17486853243
17486861422
17486869662
17486877718
17486885165
17486892977
17486902010
17486908663
17486917086
17486924410
17486931185
17486940829
17486948031
17486958285
17486966890
17486975741
17486984591
17486993074
17487000460
17487009371
17487020601
17487027315
17487037813
17487046297
17487055269
17487061739
17487074739
17487081636
17487094393
17487103304
17487109163
17487117952
17487125581
17487133333
17487142549
17487150484
17487158785
17487167879
17487175935
17487183321
17487190767
17487199922
17487207307
17487216524
17487224092
17487231843
17487239290
17487244600
17487249421
17487254609
17487260408
17487265169
17487269441
17487274385
17487280183
17487283845
17487290071
17487294099
17487299897
17487305085
17487309419
17487314668
17487319917
17487324433
17487331819
17487334870
17487342866
17487348481
17487352876
17487355500
17487361909
17487367097
17487370698
17487375886
17487380036
17487386140
17487389924
17487398957
17487403779
17487408967
17487412995
17487419648
17487424592
17487429719
17487432465
17487439179
17487444428
17487449738
17487452668
17487461457
17487467561
17487473298
17487477937
17487483063
17487487397
17487492097
17487495148
17487502595
17487507661
17487512971
17487518098
17487522919
17487527924
17487532136
17487539582
17487545502
17487550141
17487555634
17487561982
17487566987
17487573639
17487578827
17487586396
17487592011
17487598175
17487602814
17487608918
17487615570
17487620148
17487624665
17487630341
17487635651
17487640961
17487645905
17487651520
17487659821
17487665558
17487672089
17487675629
17487682160
17487686920
17487691620
17487696991
17487701935
17487707062
17487712372
17487717865
17487721954
17487728546
17487732636
17487738373
17487744171
17487748871
17487754242
17487760895
17487765106
17487770477
17487775726
17487780975
17487786713
17487791901
17487797577
17487803497
17487810028
17487814545
17487820404
17487825653
17487832001
17487835357
17487843963
17487850677
17487855316
17487860748
17487866791
17487871429
17487878204
17487883087
17487889984
17487895233
17487901580
17487906952
17487912017
17487916412
17487923248
17487927887
17487937225
17487942596
17487947906
17487952117
17487958953
17487965057
17487970794
17487975189
17487983611
17487990020
17487995574
17487999847
17488006439
17488010772
17488016509
17488022735
17488028533
17488034881
17488040008
17488045806
17488049224
17488055022
17488059905
17488065826
17488071197
17488080169
17488084075
17488092132
17488096160
17488103728
17488108489
17488113555
17488119170
17488126372
17488132232
17488139434
17488144744
17488152434
17488157500
17488164031
17488170623
17488179168
17488184539
17488191192
17488195708
17488202483
17488206694
17488212859
17488217253
17488223601
17488230132
17488236602
17488241484
17488247893
17488253508
17488258635
17488264250
17488269866
17488275908
17488279875
17488286772
17488292815
17488297759
17488302519
17488309416
17488312895
17488320586
17488326140
17488332182
17488337431
17488344084
17488348906
17488354643
17488359282
17488367339
17488372832
17488379362
17488384245
17488390532
17488396818
17488403166
17488409758
17488417753
17488423735
17488430083
17488434660
17488439604
17488446074
17488449980
17488457914
17488464201
17488471098
17488475615
17488481657
17488485807
17488493132
17488496916
17488504240
17488510588
17488519072
17488525236
17488531156
17488536528
17488542265
17488547026
17488554289
17488559660
17488566801
17488571440
17488577055
17488582975
17488588651
17488594023
17488600919
17488606535
17488610258
17488619474
17488624235
17488628690
17488634611
17488641019
17488646268
17488652616
17488658048
17488663969
17488669218
17488675626
17488680753
17488685880
17488690458
17488697660
17488701993
17488706998
17488713407
17488719266
17488726652
17488729459
17488738309
17488740690
17488750455
17488755155
17488767484
17488773954
17488779508
17488786588
17488793119
17488799405
17488804288
17488811246
17488817166
17488824613
17488830289
17488834806
17488839200
17488845914
17488853055
17488860257
17488865018
17488871305
17488876065
17488879849
17488887906
17488891690
