17490223779
17490227624
17490231042
17490234887
17490238366
17490242212
17490245813
17490249292
17490252954
17490258813
17490263452
17490267541
17490271570
17490276025
17490280053
17490284631
17490289087
17490294213
17490299829
17490305261
17490312646
17490318200
17490324548
17490330102
17490337365
17490342492
17490347741
17490354638
17490361413
17490371057
17490379479
17490387963
17490396569
17490405663
17490416955
17490426049
17490435265
17490443078
17490451196
17490459862
17490467431
17490475243
17490483117
17490491784
17490499352
17490506310
17490515893
17490524682
17490531945
17490539879
17490548974
17490556725
17490563256
17490574303
17490582421
17490589196
17490598290
17490606591
17490613976
17490621361
17490632408
17490639672
17490646569
17490655174
17490664086
17490674034
17490681847
17490690575
17490699852
17490706505
17490713097
17490722191
17490731712
17490748192
17490758018
17490767357
17490775841
17490785057
17490791954
17490798790
17490806053
17490814415
17490824913
17490835045
17490842491
17490849632
17490857444
17490864036
17490871299
17490878807
17490885887
17490894432
17490901573
17490909385
17490917076
17490925376
17490930992
17490939964
17490951683
17490959068
17490966087
17490975242
17490981834
17490993186
17491000388
17491007102
17491014243
17491023154
17491031516
17491038963
17491045432
17491051536
17491061240
17491067893
17491075217
17491082053
17491088889
17491097312
17491105247
17491114036
17491121421
17491128135
17491135337
17491144614
17491151877
17491158286
17491168174
17491174277
17491181357
17491187278
17491195395
17491202536
17491211997
17491220908
17491229819
17491238120
17491245017
17491253317
17491263022
17491270468
17491277487
17491287985
17491296103
17491303366
17491310324
17491318198
17491325400
17491332236
17491343405
17491349142
17491356284
17491366782
17491372397
17491381247
17491389426
17491397604
17491407675
17491415671
17491424826
17491434042
17491447409
17491462973
17491473532
17491481405
17491488607
17491497824
17491505514
17491512472
17491521810
17491529257
17491538107
17491545736
17491552938
17491559957
17491566549
17491574362
17491584493
17491591268
17491597677
17491605917
17491612325
17491619650
17491628988
17491636678
17491645040
17491652303
17491659689
17491668478
17491676900
17491683675
17491694417
17491700582
17491708639
17491716146
17491723775
17491730733
17491738057
17491744832
17491755330
17491762471
17491769674
17491775838
17491783590
17491792379
17491798848
17491806844
17491817342
17491825826
17491833211
17491839131
17491847066
17491854634
17491862264
17491868733
17491876607
17491886983
17491892293
17491900044
17491907979
17491915120
17491922322
17491928975
17491938863
17491945699
17491952779
17491960652
17491967366
17491976338
17491984273
17491991475
17492000874
17492007588
17492015645
17492022603
17492030903
17492038350
17492046956
17492053792
17492064900
17492075886
17492083393
17492091938
17492098835
17492106770
17492114765
17492123127
17492131001
17492137898
17492145100
17492152607
17492158955
17492167072
17492176533
17492185505
17492202046
17492219807
17492229145
17492237141
17492244953
17492252888
17492260456
17492267292
17492274921
17492282795
17492290790
17492297260
17492304035
17492311603
17492317341
17492323993
17492330951
17492338520
17492346576
17492353656
17492360248
17492365986
17492373371
17492379474
17492387409
17492396442
17492404193
17492411335
17492416706
17492423419
17492431171
17492438190
17492446796
17492456256
17492463947
17492471027
17492478656
17492485065
17492491596
17492501178
17492509296
17492515216
17492523883
17492531451
17492537738
17492546161
17492553607
17492560992
17492568744
17492576617
17492583270
17492591937
17492599933
17492610858
17492618365
17492625567
17492631671
17492636798
17492642779
17492647845
17492653766
17492658892
17492666583
17492672137
17492678546
17492683856
17492691912
17492698199
17492703448
17492708941
17492717974
17492723468
17492727984
17492733843
17492739276
17492744891
17492751116
17492757220
17492762835
17492768755
17492774676
17492780596
17492785845
17492792864
17492798052
17492804156
17492809771
17492815691
17492821917
17492828814
17492833697
17492840655
17492846453
17492852557
17492859942
17492866045
17492871294
17492877947
17492882891
17492887347
17492891863
17492898882
17492904680
17492911150
17492916643
17492922503
17492928118
17492933977
17492940203
17492945391
17492950701
17492955828
17492961016
17492966021
17492971025
17492977068
17492984148
17492989153
17492994829
17493001604
17493006548
17493011492
17493016741
17493022722
17493028398
17493033464
17493038652
17493044267
17493050127
17493055864
17493061052
17493068010
17493072893
17493078935
17493083452
17493088762
17493093279
17493099931
17493105547
17493112505
17493117815
17493123003
17493129778
17493134843
17493140581
17493146623
17493152727
17493159563
17493164873
17493171709
17493175554
17493183305
17493189348
17493194292
17493199663
17493204240
17493210771
17493216325
17493222246
17493227800
17493234269
17493240495
17493246049
17493251298
17493256974
17493261735
17493266984
17493271806
17493278825
17493284806
17493289872
17493295549
17493300431
17493306718
17493311906
17493318498
17493325700
17493330155
17493336564
17493341813
17493347428
17493352860
17493358659
17493365312
17493370683
17493377397
17493382279
17493387101
17493392350
17493398209
17493405412
17493410539
17493416581
17493423722
17493429154
17493434830
17493441911
17493447648
17493453690
17493459000
17493464738
17493469987
17493475297
17493482011
17493487992
17493491471
17493498612
17493503861
17493510148
17493517228
17493522355
17493529801
17493534806
17493541214
17493546769
17493552384
17493559159
17493564591
17493569046
17493573624
17493579972
17493583878
17493589066
17493595475
17493601395
17493607682
17493612686
17493619217
17493623856
17493630570
17493636307
17493641495
17493647415
17493652725
17493657730
17493664810
17493668961
17493674088
17493680496
17493686783
17493693131
17493698441
17493703873
17493709732
17493715347
17493720901
17493727371
17493732742
17493737625
17493744278
17493749771
17493754044
17493760147
17493766800
17493771805
17493776565
17493782059
17493786941
17493792496
17493799148
17493803726
17493810501
17493816116
17493821060
17493827835
17493832229
17493837661
17493845047
17493850296
17493855850
17493860794
17493865249
17493871414
17493876724
17493882034
17493888015
17493893570
17493900589
17493905715
17493912002
17493917495
17493922378
17493931594
17493937576
17493942398
17493949172
17493954177
17493959365
17493965225
17493971023
17493976272
17493981826
17493988601
17493994766
17494000076
17494005874
17494010818
17494018142
17494023818
17494030105
17494035964
17494041885
17494047500
17494053298
17494058791
17494063186
17494069594
17494073745
17494079177
17494084853
17494090041
17494096145
17494102797
17494108291
17494113723
17494119460
17494125991
17494131606
17494137710
17494143447
17494147719
17494153884
17494158706
17494163955
17494169326
17494175490
17494182143
17494190017
17494196059
17494202162
17494207167
17494212111
17494218703
17494223708
17494229628
17494236464
17494242201
17494248183
17494253493
17494259413
17494264357
17494268446
17494276625
17494282301
17494287062
17494293654
17494298598
17494303786
17494309645
17494315443
17494321608
17494326186
17494330458
17494335524
17494342299
17494347426
17494352492
17494359877
17494365553
17494371107
17494376662
17494381727
17494388685
17494393629
17494399367
17494405714
17494410841
17494414992
17494421400
17494425856
17494430922
17494436354
17494441908
17494448988
17494455214
17494460341
17494466383
17494471754
17494479628
17494485670
17494490980
17494495436
17494501722
17494508192
17494513319
17494519056
17494525221
17494531202
17494537062
17494542494
17494547804
17494552992
17494557813
17494563429
17494569959
17494576368
17494581434
17494587965
17494593153
17494599012
17494605482
17494610426
17494616285
17494621839
17494627454
17494634168
17494639173
17494643690
17494651197
17494656995
17494663648
17494668897
17494673231
17494678480
17494685987
17494690870
17494696241
17494703870
17494710584
17494715467
17494721631
17494726087
17494732435
17494737989
17494742627
17494749036
17494755872
17494762281
17494767652
17494774976
17494779432
17494787061
17494793531
17494799634
17494804273
17494809827
17494816114
17494820630
17494827527
17494834302
17494838635
17494844861
17494850354
17494856885
17494861402
17494867810
17494874646
17494879651
17494885144
17494891248
17494896680
17494903027
17494909070
17494913892
17494920483
17494925610
17494931653
17494938184
17494943738
17494949109
17494955212
17494960278
17494965954
17494972180
17494977612
17494982922
17494990918
17494995984
17495003064
17495008862
17495015149
17495019787
17495026806
17495032666
17495038708
17495044018
17495049328
17495054699
17495060986
17495066540
17495072827
17495078259
17495085156
17495090771
17495095898
17495100964
17495107312
17495113232
17495119030
17495123364
17495130627
17495136059
17495141674
17495146557
17495152355
17495157971
17495164257
17495169750
17495174694
17495181347
17495186352
17495193310
17495200024
17495205944
17495211254
17495216625
17495222790
17495227673
17495233166
17495239147
17495245373
17495250622
17495255749
17495261120
17495266674
17495273083
17495277721
17495283092
17495290050
17495294872
17495300854
17495306041
17495310863
17495318004
17495324230
17495329296
17495335582
17495341015
17495347057
17495353222
17495358532
17495364330
17495369030
17495375743
17495380992
17495387096
17495391674
17495399181
17495405101
17495411205
17495416576
17495420787
17495427379
17495432689
17495438915
17495443981
17495451366
17495456798
17495461315
17495466747
17495472484
17495477367
17495483959
17495488902
17495494151
17495500255
17495507091
17495512279
17495518382
17495525890
17495530711
17495537364
17495543040
17495548228
17495553355
17495558665
17495563975
17495570506
17495575755
17495580577
17495586192
17495593028
17495597911
17495608287
17495614024
17495620799
17495625560
17495631114
17495637828
17495642772
17495648814
17495654734
17495659007
17495665904
17495672618
17495677806
17495682811
17495688182
17495694712
17495700389
17495705821
17495711131
17495716380
17495721934
17495727183
17495734324
17495739939
17495744212
17495753062
17495761729
17495766978
17495772288
17495778635
17495783091
17495788157
17495795725
17495800669
17495807688
17495812693
17495817942
17495822947
17495828989
17495834666
17495842173
17495847361
17495852854
17495858347
17495864512
17495869456
17495875742
17495881113
17495888254
17495892832
17495898997
17495903269
17495909495
17495914988
17495920542
17495927012
17495932200
17495937204
17495942087
17495947458
17495952524
17495959909
17495966501
17495971201
17495976572
17495980783
17495986765
17495991709
17495997568
17496002634
17496008615
17496014231
17496019541
17496024546
17496030161
17496035410
17496042002
17496048227
17496054147
17496061105
17496066660
17496073007
17496078317
17496083933
17496089243
17496093454
17496099802
17496104745
17496110544
17496117380
17496123117
17496127695
17496133310
17496140146
17496145334
17496155771
17496161447
17496167856
17496172189
17496179330
17496184579
17496191476
17496195871
17496203012
17496207956
17496213632
17496218881
17496225595
17496230722
17496236337
17496242318
17496248605
17496253793
17496258859
17496266183
17496271554
17496276742
17496281625
17496288156
17496294198
17496298654
17496306527
17496311837
17496317575
17496322396
17496326974
17496333383
17496338143
17496343575
17496351449
17496356576
17496361581
17496367806
17496372872
17496378426
17496384652
17496389474
17496394906
17496401315
17496407479
17496412606
17496417916
17496423043
17496431283
17496436532
17496442208
17496447030
17496452584
17496457467
17496464425
17496472481
17496477913
17496482430
17496488595
17496492867
17496500435
17496506234
17496512826
17496519173
17496524483
17496530709
17496536751
17496543831
17496549385
17496555184
17496561715
17496568001
17496574837
17496582039
17496587105
17496594368
17496600350
17496605904
17496612618
17496618416
17496623604
17496628853
17496635689
17496641060
17496648201
17496653816
17496659187
17496665291
17496671578
17496678474
17496684700
17496690559
17496695992
17496701485
17496706429
17496712715
17496718513
17496724190
17496730171
17496734871
17496740791
17496747139
17496753059
17496759163
17496764595
17496769661
17496775703
17496781135
17496787056
17496792976
17496797554
17496805000
17496810249
17496816475
17496823433
17496828254
17496834907
17496839424
17496846748
17496851814
17496859016
17496864204
17496870002
17496875190
17496880439
17496888496
17496893928
17496899604
17496904792
17496909736
17496916023
17496920417
17496927619
17496932990
17496939216
17496943733
17496949775
17496955451
17496961799
17496967292
17496973090
17496978889
17496985481
17496991279
17496997138
17497002265
17497006843
17497014045
17497019660
17497025642
17497030891
17497036811
17497041816
17497046699
17497054023
17497058539
17497064887
17497069465
17497075873
17497082648
17497087470
17497095710
17497101081
17497108283
17497114570
17497120917
17497126410
17497132636
17497139472
17497145697
17497151191
17497155768
17497162177
17497167365
17497173957
17497179267
17497186347
17497192328
17497197638
17497203437
17497209967
17497215460
17497219855
17497227118
17497232916
17497238654
17497243842
17497249518
17497254889
17497260016
17497266608
17497272406
17497277472
17497284003
17497289191
17497295782
17497300116
17497307074
17497312140
17497317389
17497323431
17497328436
17497334296
17497341437
17497346625
17497352911
17497359503
17497365240
17497370306
17497375555
17497381293
17497386419
17497395392
17497401739
17497407415
17497412909
17497419317
17497424566
17497430243
17497435492
17497442694
17497447454
17497453985
17497459295
17497464056
17497471197
17497476629
17497482672
17497487860
17497493414
17497498663
17497504400
17497511175
17497515814
17497522772
17497527960
17497534124
17497540167
17497544988
17497552252
17497558599
17497566595
17497571905
17497577276
17497583807
17497589605
17497595037
17497600225
17497607244
17497614019
17497619024
17497625555
17497631780
17497637273
17497643255
17497650213
17497655462
17497662359
17497667058
17497673223
17497677984
17497684270
17497691411
17497696538
17497702154
17497707891
17497713262
17497720342
17497725225
17497731389
17497738836
17497744085
17497750371
17497755742
17497760808
17497767583
17497773992
17497779607
17497784612
17497791082
17497796697
17497802983
17497808599
17497815251
17497821111
17497826604
17497831975
17497838689
17497842290
17497850285
17497856389
17497861760
17497867070
17497873784
17497878850
17497884526
17497890385
17497895818
17497902959
17497909673
17497915410
17497921269
17497926762
17497931401
17497937871
17497943486
17497950017
17497955510
17497962468
17497968571
17497973393
17497980473
17497985661
17497993351
17497998539
17498004155
17498011174
17498016423
17498021122
17498028447
17498035710
17498040959
17498047184
17498052800
17498058537
17498063603
17498069462
17498076115
17498080448
17498086186
17498091679
17498097538
17498103459
17498107975
17498114689
17498121220
17498126591
17498131962
17498138310
17498144901
17498150150
17498156803
17498164372
17498169865
17498176518
17498183231
17498189091
17498193546
17498200077
17498205387
17498211857
17498217411
17498221806
17498228336
17498234806
17498240604
17498247501
17498251530
17498258915
17498264103
17498269840
17498274784
17498281254
17498287174
17498293155
17498298160
17498303165
17498310550
17498315494
17498321842
17498329532
17498333683
17498340458
17498345890
17498351627
17498356632
17498364811
17498370121
17498374698
17498379764
17498385746
17498390933
17498395511
17498402774
17498408084
17498414127
17498420535
17498425968
17498432376
17498438236
17498443668
17498450382
17498455142
17498460574
17498464969
17498471133
17498476260
17498481876
17498487491
17498493289
17498499271
17498505923
17498511661
17498516055
17498521854
17498528384
17498534549
17498539371
17498544559
17498550601
17498555179
17498560489
17498567142
17498572024
17498578433
17498584598
17498591250
17498597232
17498602237
17498607852
17498613467
17498619754
17498625796
17498630801
17498634646
17498640872
17498645449
17498650821
17498656192
17498664492
17498669680
17498674990
17498680911
17498686709
17498692202
17498697817
17498703921
17498711062
17498717593
17498724307
17498729189
17498733828
17498739382
17498747012
17498751528
17498759219
17498764712
17498769900
17498774416
17498779238
17498786074
17498792239
17498797915
17498803591
17498809023
17498814761
17498820498
17498825747
17498831728
17498838808
17498844118
17498850161
17498855288
17498862063
17498867434
17498873171
17498876284
17498882754
17498888064
17498893862
17498899538
17498904482
17498910891
17498915224
17498921877
17498926760
17498933413
17498937807
17498943850
17498948366
17498954653
17498960085
17498966921
17498972841
17498978212
17498983889
17498988710
17498994081
17498999513
17499005617
17499012087
17499018068
17499023317
17499028993
17499034975
17499040041
17499046022
17499051088
17499057069
17499062441
17499069093
17499074770
17499080019
17499085024
17499092836
17499098451
17499104005
17499109499
17499114381
17499119081
17499124208
17499129762
17499135377
17499141054
17499146974
17499152772
17499158815
17499165834
17499171022
17499175416
17499182069
17499186525
17499191224
17499198549
17499204347
17499209413
17499215577
17499220704
17499226442
17499232118
17499237855
17499244142
17499251344
17499257630
17499263734
17499268922
17499276368
17499282655
17499288636
17499294740
17499299867
17499304688
17499310487
17499316468
17499322328
17499328675
17499334046
17499338502
17499344605
17499349000
17499354676
17499360902
17499366334
17499372804
17499378053
17499384156
17499391419
17499397156
17499402528
17499408631
17499415284
17499420960
17499426514
17499431824
17499437623
17499442444
17499447999
17499452881
17499458436
17499464905
17499470276
17499476136
17499483460
17499488587
17499493653
17499499939
17499507081
17499512513
17499518128
17499523194
17499528504
17499535096
17499540406
17499544556
17499551575
17499555664
17499563172
17499569397
17499575012
17499580017
17499585511
17499592285
17499599488
17499604614
17499609253
17499614197
17499619812
17499625427
17499631897
17499637756
17499643372
17499649048
17499654968
17499660339
17499664795
17499671265
17499676453
17499681213
17499687317
17499692749
17499697327
17499702026
17499707397
17499713379
17499718323
17499725220
17499730652
17499737121
17499744690
17499750061
17499755859
17499762878
17499769104
17499774048
17499781921
17499787048
17499793091
17499800110
17499805542
17499812133
17499817138
17499821655
17499827636
17499832153
17499840698
17499846252
17499851562
17499856628
17499861877
17499867065
17499871582
17499878662
17499882385
17499888610
17499894165
17499899536
17499904296
17499909240
17499915527
17499920715
17499926757
17499933654
17499938781
17499946594
17499952697
17499958190
17499965026
17499971862
17499976867
17499983825
17499989318
17499995299
17500000915
17500008178
17500013488
17500019652
17500024413
17500030578
17500036071
17500040893
17500047729
17500053161
17500059203
17500066222
17500071654
17500077636
17500083251
17500088744
17500094787
17500101195
17500106566
17500110961
17500116149
17500121093
17500125731
17500131347
17500138793
17500144408
17500151183
17500157225
17500162230
17500167723
17500173094
17500178893
17500185851
17500191771
17500197569
17500203185
17500208983
17500214110
17500219115
17500224181
17500229247
17500234496
17500241820
17500245787
17500253905
17500259276
17500264647
17500272154
17500277708
17500282042
17500288145
17500293028
17500298399
17500303831
17500309447
17500316527
17500322142
17500327025
17500333922
17500338988
17500344847
17500349730
17500356810
17500361937
17500366636
17500371763
17500377440
17500382506
17500387816
17500393187
17500398497
17500404295
17500411192
17500416685
17500422483
17500427549
17500434080
17500439756
17500444517
17500451414
17500456236
17500461851
17500467039
17500472898
17500478514
17500483457
17500489378
17500495603
17500501585
17500507810
17500513487
17500518369
17500523496
17500529661
17500534483
17500539060
17500546262
17500551634
17500557493
17500562009
17500568967
17500575559
17500581419
17500587034
17500593442
17500598692
17500605039
17500610471
17500617063
17500622434
17500628477
17500633787
17500638975
17500646116
17500650571
17500658323
17500664670
17500670225
17500675413
17500680478
17500685544
17500691098
17500697446
17500702939
17500707944
17500713987
17500719541
17500724241
17500729490
17500734250
17500741819
17500746884
17500752195
17500757260
17500762693
17500768308
17500774045
17500780393
17500785764
17500791501
17500797483
17500802609
17500806882
17500811948
17500817197
17500823117
17500832456
17500838742
17500844113
17500851071
17500857053
17500862729
17500869931
17500876401
17500882504
17500887875
17500894101
17500900326
17500906003
17500910886
17500918698
17500924008
17500929135
17500935727
17500940671
17500946957
17500951291
17500958432
17500963559
17500968808
17500975705
17500981320
17500985775
17500990170
17500997860
17501003415
17501008908
17501015744
17501020871
17501025509
17501031491
17501036862
17501044247
17501050289
17501055722
17501060055
17501065792
17501071896
17501076596
17501081478
17501088864
17501094052
17501098995
17501103878
17501108578
17501114803
17501120541
17501125485
17501131100
17501137936
17501143429
17501149044
17501154110
17501159969
17501165035
17501170895
17501177670
17501182369
17501188839
17501193111
17501199093
17501203304
17501211544
17501216549
17501223629
17501228756
17501233456
17501239559
17501243770
17501250423
17501256527
17501261898
17501266903
17501271847
17501277096
17501281917
17501288021
17501292965
17501299312
17501305843
17501310054
17501315426
17501322078
17501327694
17501333187
17501339717
17501344966
17501351009
17501356502
17501362850
17501367794
17501373897
17501381832
17501387508
17501393855
17501399288
17501405696
17501411434
17501416622
17501421993
17501429073
17501433894
17501440120
17501446162
17501452388
17501459163
17501464473
17501469722
17501476192
17501481624
17501486995
17501492915
17501497920
17501503352
17501508723
17501515071
17501521602
17501526790
17501533015
17501539241
17501543941
17501549129
17501555293
17501560542
17501566585
17501571467
17501577266
17501581721
17501587764
17501593806
17501599788
17501606501
17501611995
17501616633
17501623225
17501628047
17501635920
17501641108
17501647944
17501652888
17501657771
17501662593
17501668818
17501674616
17501680476
17501686518
17501692744
17501697627
17501703425
17501709956
17501715205
17501720515
17501726862
17501734004
17501737971
17501744441
17501748896
17501755488
17501760249
17501766779
17501773310
17501778559
17501783747
17501789423
17501794855
17501800410
17501807490
17501813532
17501818354
17501824213
17501830683
17501837214
17501843256
17501848810
17501856196
17501861506
17501865778
17501872004
17501876764
17501883722
17501888544
17501896601
17501901972
17501906977
17501912226
17501917780
17501924738
17501930170
17501937372
17501944818
17501951288
17501955805
17501962274
17501967584
17501974298
17501979914
17501987055
17501991937
17501996515
17502001398
17502006525
17502013117
17502017023
17502024652
17502029596
17502036188
17502040704
17502046747
17502051935
17502058221
17502063959
17502069818
17502076288
17502080011
17502086175
17502091913
17502096490
17502101434
17502108636
17502113458
17502119745
17502125787
17502131036
17502135980
17502141656
17502147210
17502153375
17502159906
17502164178
17502170648
17502174798
17502181207
17502186883
17502193048
17502199945
17502204278
17502209527
17502216241
17502221124
17502225763
17502230767
17502237603
17502242974
17502248101
17502254266
17502258172
17502264337
17502269952
17502275201
17502279840
17502286431
17502291253
17502297662
17502302178
17502308526
17502314935
17502320550
17502325921
17502332330
17502338555
17502343377
17502348199
17502354913
17502361687
17502366631
17502371270
17502377435
17502381951
17502388055
17502393365
17502399285
17502405144
17502410699
17502417290
17502422661
17502427239
17502432122
17502439690
17502446404
17502451714
17502458184
17502463433
17502468926
17502475579
17502480950
17502486687
17502491936
17502497307
17502504082
17502507378
17502514275
17502519402
17502523857
17502531670
17502536797
17502542290
17502547295
17502552788
17502557549
17502562798
17502569268
17502574761
17502580071
17502586357
17502591545
17502597710
17502602654
17502607231
17502614617
17502623528
17502628533
17502634331
17502641167
17502647026
17502652397
17502657280
17502663628
17502669304
17502674980
17502680778
17502685966
17502691765
17502697746
17502703911
17502709831
17502715446
17502721855
17502727226
17502732597
17502737968
17502745048
17502750236
17502755668
17502762443
17502768425
17502774833
17502779594
17502787590
17502792534
17502798332
17502806450
17502811393
17502818962
17502825370
17502832206
17502838432
17502844169
17502849296
17502854728
17502860527
17502866020
17502874320
17502881095
17502886955
17502893058
17502900077
17502905753
17502911308
17502918388
17502923637
17502929008
17502935416
17502940849
17502946037
17502951835
17502956901
17502963004
17502968192
17502974601
17502979362
17502986076
17502991996
17502998832
17503004813
17503010367
17503017020
17503022025
17503027152
17503033500
17503037528
17503044120
17503048758
17503055350
17503061820
17503067862
17503072928
17503077933
17503084952
17503090995
17503096915
17503103446
17503109366
17503115653
17503123465
17503129203
17503136100
17503140006
17503146170
17503152152
17503156668
17503162650
17503167288
17503174735
17503180655
17503186698
17503192435
17503198416
17503203848
17503209158
17503214652
17503220328
17503226004
17503232596
17503237296
17503242667
17503249197
17503254507
17503260550
17503267081
17503271719
17503276236
17503282706
17503287894
17503293509
17503299490
17503304861
17503310416
17503316275
17503321402
17503326468
17503333487
17503338675
17503344351
17503350760
17503355520
17503360159
17503366873
17503372000
17503378653
17503383902
17503390799
17503396048
17503400503
17503406729
17503411245
17503416433
17503422232
17503428091
17503433401
17503440847
17503445669
17503452627
17503457632
17503463064
17503468984
17503474661
17503479238
17503485220
17503489919
17503496694
17503502493
17503508779
17503514944
17503520925
17503526907
17503532461
17503539419
17503544607
17503550100
17503556570
17503564138
17503569692
17503572622
17503581655
17503587453
17503593130
17503599050
17503604848
17503610525
17503615713
17503620717
17503626211
17503632497
17503637197
17503641897
17503647146
17503653982
17503657766
17503664907
17503670583
17503675588
17503682241
17503687185
17503693959
17503699025
17503704641
17503710012
17503715871
17503720876
17503726186
17503731496
17503736257
17503741933
17503747243
17503752858
17503758840
17503764638
17503771047
17503776906
17503783498
17503788747
17503794362
17503799245
17503804189
17503810597
17503815968
17503821584
17503827260
17503833608
17503839406
17503844838
17503850392
17503856190
17503861440
17503865895
17503872304
17503876515
17503881947
17503888844
17503895497
17503900868
17503906666
17503913624
17503918812
17503924000
17503930592
17503936146
17503942006
17503947621
17503952626
17503957753
17503963124
17503968678
17503973866
17503981068
17503986073
17503991688
17503997975
17504003834
17504008778
17504014943
17504019581
17504025441
17504030567
17504036488
17504042164
17504048268
17504054127
17504059559
17504066883
17504074085
17504079884
17504086964
17504093800
17504098927
17504104725
17504111561
17504116566
17504121754
17504128285
17504133350
17504139027
17504144764
17504149769
17504155567
17504161854
17504167896
17504173267
17504179493
17504184009
17504189197
17504195484
17504200611
17504205311
17504211475
17504217029
17504223743
17504228870
17504235889
17504241382
17504246021
17504252857
17504258533
17504264393
17504269703
17504276600
17504281421
17504286914
17504293384
17504297718
17504305896
17504310169
17504317310
17504322681
17504327259
17504332386
17504338855
17504344104
17504349720
17504356006
17504361682
17504367481
17504373096
17504377979
17504384815
17504389331
17504395679
17504400745
17504409900
17504421802
17504433460
17504442249
17504448535
17504455615
17504462573
17504469958
17504477100
17504483874
17504490283
17504498096
17504504565
17504510242
17504515613
17504521411
17504526782
17504532886
17504538501
17504543628
17504549487
17504554736
17504561023
17504567004
17504572314
17504577929
17504584826
17504590319
17504595691
17504601184
17504606311
17504612414
17504618396
17504624865
17504630908
17504636218
17504643725
17504649401
17504655505
17504661303
17504668078
17504673266
17504679247
17504684558
17504689623
17504696581
17504701159
17504708483
17504713671
17504719714
17504725451
17504731371
17504737841
17504742052
17504748766
17504753832
17504760729
17504765429
17504771715
17504776720
17504782702
17504788805
17504794970
17504800280
17504805102
17504811877
17504817248
17504822619
17504829455
17504834337
17504839647
17504846117
17504851366
17504857287
17504862902
17504870287
17504876085
17504883043
17504888048
17504894762
17504899828
17504906420
17504912218
17504917772
17504924730
17504930162
17504935472
17504942675
17504947801
17504953173
17504958971
17504965257
17504970384
17504976366
17504981310
17504988268
17504993822
17504998888
17505005785
17505011156
17505016893
17505022264
17505028551
17505035020
17505039781
17505044847
17505051439
17505056749
17505061327
17505067674
17505074815
17505079881
17505086351
17505091478
17505097764
17505103380
17505108385
17505114976
17505120714
17505127611
17505132127
17505139146
17505144639
17505150926
17505156358
17505163987
17505170152
17505176500
17505182908
17505189134
17505194383
17505200792
17505207261
17505214402
17505219895
17505225206
17505231126
17505236680
17505242662
17505247422
17505253282
17505260423
17505265550
17505271775
17505277146
17505283433
17505288621
17505295091
17505300706
17505306016
17505311997
17505318040
17505324204
17505329453
17505334275
17505342332
17505346848
17505353257
17505359177
17505365891
17505371140
17505377732
17505384080
17505388230
17505394517
17505400864
17505406357
17505412339
17505417344
17505424668
17505431016
17505437180
17505443223
17505448227
17505454758
17505460068
17505464951
17505472641
17505477829
17505483139
17505489670
17505495346
17505500656
17505506516
17505511155
17505518967
17505523667
17505528855
17505535080
17505540940
17505547226
17505552658
17505558213
17505564133
17505570481
17505574997
17505581894
17505587082
17505592514
17505598007
17505604477
17505609543
17505614914
17505621201
17505626267
17505632858
17505639694
17505644821
17505649338
17505655807
17505660263
17505666611
17505671371
17505679306
17505684189
17505689499
17505696640
17505702560
17505709396
17505715256
17505722824
17505727829
17505734054
17505740646
17505745834
17505751022
17505756820
17505763046
17505769333
17505774460
17505780685
17505786544
17505791427
17505797958
17505802414
17505809005
17505814987
17505821151
17505826339
17505831344
17505837936
17505842269
17505849166
17505854659
17505860702
17505865219
17505870956
17505878097
17505883163
17505889877
17505895675
17505901046
17505906966
17505911605
17505917892
17505924728
17505929916
17505935409
17505940597
17505946578
17505951705
17505957931
17505963668
17505968673
17505975692
17505981185
17505987350
17505992599
17505998641
17506004012
17506008773
17506015975
17506021163
17506027266
17506032027
17506038375
17506043502
17506049361
17506056685
17506063033
17506069625
17506074874
17506080916
17506085311
17506091536
17506097335
17506104293
17506111251
17506116683
17506122115
17506129500
17506135298
17506140059
17506148360
17506155013
17506160201
17506166915
17506171919
17506177168
17506183760
17506188826
17506194685
17506201582
17506205977
17506212447
17506219038
17506225020
17506231184
17506238081
17506247725
17506253950
17506259566
17506264510
17506269942
17506275313
17506280684
17506286360
17506292647
17506298506
17506304060
17506310164
17506316572
17506322737
17506328474
17506334273
17506340315
17506346296
17506353010
17506358564
17506364607
17506369978
17506375776
17506380598
17506385054
17506389753
17506395735
17506402082
17506407881
17506414656
17506419722
17506425337
17506430891
17506436811
17506441816
17506446333
17506453535
17506457502
17506462812
17506470259
17506476118
17506482649
17506488630
17506493574
17506500227
17506505415
17506510969
17506516706
17506522077
17506527082
17506531538
17506537031
17506543317
17506550336
17506556196
17506562177
17506567792
17506573896
17506578657
17506585859
17506590253
17506603803
17506609235
17506615827
17506623090
17506628705
17506633527
17506638959
17506643598
17506648786
17506653547
17506659894
17506665815
17506672773
17506677655
17506684797
17506689252
17506695722
17506699933
17506706708
17506711164
17506715863
17506722028
17506727460
17506732282
17506739301
17506745648
17506750836
17506755658
17506761945
17506767560
17506773663
17506779279
17506785077
17506791547
17506798566
17506804303
17506809125
17506814862
17506821149
17506826459
17506831097
17506837750
17506844830
17506850140
17506855267
17506860516
17506865582
17506870160
17506876935
17506882184
17506888043
17506892804
17506899518
17506904095
17506909527
17506916730
17506921246
17506928204
17506934125
17506938946
17506945965
17506952008
17506958294
17506963971
17506969525
17506974957
17506981182
17506987225
17506991986
17506997723
17507004132
17507010052
17507015179
17507021893
17507027325
17507033306
17507038433
17507044903
17507049908
17507055828
17507061505
17507067669
17507073712
17507079327
17507084942
17507091107
17507097332
17507103008
17507109112
17507115704
17507119244
17507125774
17507131023
17507135601
17507141399
17507146770
17507153545
17507158794
17507165386
17507171001
17507177349
17507182720
17507189007
17507195049
17507202312
17507206219
17507213238
17507219402
17507224895
17507233074
17507238567
17507243816
17507249492
17507255169
17507261211
17507267437
17507274334
17507279644
17507286602
17507291118
17507296672
17507301616
17507307659
17507313518
17507322002
17507327617
17507333904
17507339336
17507343791
17507350322
17507354473
17507361553
17507366741
17507371440
17507377422
17507380840
17507387920
17507394817
17507399883
17507405986
17507411723
17507416789
17507422832
17507429362
17507435039
17507440776
17507446391
17507451030
17507457378
17507461528
17507468364
17507473064
17507478923
17507483745
17507488994
17507497294
17507502910
17507508647
17507514201
17507519145
17507524272
17507530009
17507536967
17507542766
17507547160
17507552226
17507557658
17507562846
17507568644
17507574321
17507581218
17507588237
17507593669
17507601115
17507606791
17507613383
17507621196
17507628092
17507633830
17507639262
17507645671
17507651774
17507657817
17507663676
17507668803
17507676981
17507682353
17507688029
17507695048
17507700602
17507706278
17507711466
17507718790
17507723978
17507729105
17507734415
17507740763
17507745341
17507751810
17507758585
17507765055
17507771342
17507778361
17507783427
17507791178
17507796244
17507802042
17507808329
17507813456
17507818400
17507824808
17507830240
17507836222
17507841532
17507846659
17507852152
17507859964
17507866007
17507870646
17507876322
17507883036
17507889627
17507894999
17507900858
17507906168
17507911905
17507916727
17507921488
17507926981
17507933878
17507939798
17507944132
17507951090
17507956034
17507960916
17507965982
17507972879
17507979532
17507984476
17507990823
17507995950
17508000467
17508006509
17508013345
17508017801
17508024149
17508028543
17508035135
17508041849
17508046426
17508053140
17508058206
17508064920
17508069498
17508075662
17508081277
17508086526
17508091287
17508099100
17508104349
17508109292
17508115701
17508121560
17508126932
17508133035
17508138101
17508144021
17508149087
17508154825
17508159463
17508166299
17508172403
17508177163
17508184060
17508190713
17508195840
17508200967
17508207009
17508211831
17508216348
17508223245
17508229470
17508234658
17508240945
17508245523
17508252175
17508257302
17508262673
17508268533
17508273721
17508278848
17508283791
17508289040
17508294289
17508300515
17508305947
17508313638
17508319314
17508324319
17508329812
17508335000
17508341225
17508346841
17508353860
17508358742
17508363869
17508370705
17508375588
17508381692
17508388405
17508395913
17508401589
17508407754
17508413796
17508420388
17508425515
17508431435
17508436196
17508442177
17508460244
17508466591
17508471047
17508478005
17508484902
17508489907
17508495034
17508499855
17508504921
17508512184
17508516640
17508524025
17508529335
17508534462
17508540627
17508545449
17508550270
17508555580
17508561928
17508566506
17508571999
17508578468
17508583473
17508589027
17508594460
17508598915
17508606850
17508612099
17508617287
17508623451
17508627724
17508633888
17508639137
17508644325
17508649391
17508655922
17508660194
17508667091
17508672157
17508676857
17508683449
17508690040
17508695167
17508701393
17508706459
17508712135
17508717689
17508723182
17508729896
17508736671
17508742347
17508747535
17508753212
17508758583
17508764076
17508769142
17508775917
17508781532
17508788490
17508793190
17508798500
17508804237
17508808570
17508815711
17508822364
17508827613
17508832984
17508838844
17508844825
17508849037
17508855567
17508861976
17508867408
17508871742
17508876258
17508882667
17508889015
17508894386
17508901344
17508906898
17508912147
17508919410
17508924781
17508931434
17508936317
17508942054
17508949195
17508954932
17508959449
17508965308
17508969886
17508976661
17508981971
17508989112
17508994300
17509000037
17509005286
17509010474
17509016578
17509021155
17509028113
17509034766
17509040992
17509046119
17509051551
17509056434
17509061255
17509066565
17509073035
17509078589
17509084693
17509089209
17509095130
17509101294
17509105689
17509112647
17509119483
17509124671
17509129492
17509134925
17509139990
17509146460
17509152503
17509159400
17509164771
17509169287
17509175818
17509180457
17509186926
17509193701
17509199377
17509204382
17509209937
17509215247
17509221228
17509226538
17509231604
17509239783
17509245398
17509250403
17509255713
17509262121
17509267859
17509273962
17509279883
17509284826
17509290259
17509295019
17509301916
17509306494
17509313330
17509317907
17509324621
17509329504
17509334814
17509339453
17509346289
17509351416
17509358068
17509363745
17509370214
17509375463
17509381689
17509387304
17509391882
17509398230
17509402441
17509409094
17509413854
17509419592
17509425329
17509431188
17509438391
17509444250
17509449133
17509456335
17509461462
17509470434
17509477270
17509483862
17509490453
17509494970
17509502844
17509508154
17509513708
17509520727
17509525610
17509532323
17509537878
17509542821
17509550329
17509555334
17509561071
17509568029
17509573278
17509578527
17509584875
17509590429
17509595373
17509602270
17509607641
17509613134
17509619420
17509625036
17509630590
17509636510
17509642370
17509647741
17509654882
17509660131
17509666173
17509671422
17509676183
17509684179
17509689733
17509695897
17509701024
17509707067
17509712377
17509718541
17509724156
17509729161
17509736363
17509746251
17509752965
17509758458
17509765233
17509770909
17509777928
17509783360
17509789769
17509794713
17509801183
17509804784
17509813268
17509820287
17509825719
17509831151
17509836522
17509843541
17509848973
17509853795
17509861241
17509865941
17509872227
17509879063
17509883824
17509890660
17509894688
17509902196
17509908543
17509912205
17509919590
17509925084
17509931675
17509937779
17509944859
17509950047
17509955540
17509961583
17509966954
17509973668
17509980137
17509985020
17509991551
17509996739
17510001866
17510007054
17510011875
17510016697
17510022312
17510030003
17510034031
17510038182
17510042149
17510046177
17510050266
17510055515
17510060887
17510065647
17510069492
17510073704
17510078281
17510083775
17510088474
17510092075
17510096958
17510102451
17510106480
17510110264
17510114292
17510119053
17510123386
17510128208
17510133823
17510138401
17510143101
17510148167
17510152012
17510156834
17510161167
17510166904
17510171299
17510174900
17510180088
17510184421
17510189853
17510194797
17510199314
17510205601
17510209507
17510215366
17510219211
17510223240
17510227634
17510233494
17510239475
17510243259
17510248813
17510252170
17510256565
17510260715
17510266819
17510271762
17510275486
17510279697
17510283359
17510288059
17510291965
17510297336
17510303073
17510306980
17510312412
17510315891
17510320102
17510325351
17510329624
17510335300
17510338718
17510342502
17510348361
17510351108
17510356845
17510363376
17510368808
17510372226
17510377353
17510380832
17510385349
17510390292
17510395053
17510400790
17510405307
17510410861
17510416537
17510421848
17510426242
17510433017
17510439914
17510444553
17510449741
17510454074
17510459933
17510463962
17510468844
17510474948
17510479404
17510483432
17510488254
17510493319
17510497714
17510502780
17510507297
17510512729
17510517123
17510522067
17510526339
17510530856
17510535067
17510539096
17510544467
17510550021
17510555636
17510559420
17510563327
17510567904
17510573825
17510578158
17510584506
17510589083
17510592135
17510598483
17510602694
17510608493
17510614779
17510619174
17510626010
17510629550
17510636080
17510641207
17510647433
17510651827
17510657076
17510661532
17510666415
17510672457
17510678072
17510682833
17510689852
17510693881
17510699801
17510705843
17510711581
17510718356
17510724398
17510729220
17510734652
17510741000
17510745028
17510751070
17510756136
17510763033
17510767794
17510773104
17510780184
17510785128
17510789950
17510796847
17510802584
17510809481
17510814974
17510821322
17510827913
17510833284
17510838289
17510843721
17510848238
17510853853
17510860689
17510866793
17510871920
17510877413
17510884188
17510889742
17510895052
17510900667
17510907320
17510913301
17510918856
17510924288
17510928987
17510933748
17510940340
17510945284
17510953523
17510960115
17510966219
17510972688
17510978487
17510983858
17510990633
17510996675
17511006197
17511011995
17511017671
17511022676
17511027193
17511031587
17511037752
17511044527
17511050813
17511056306
17511061311
17511066316
17511071504
17511077302
17511082551
17511088472
17511095003
17511100801
17511106111
17511111604
17511116304
17511121736
17511127961
17511133882
17511141450
17511147493
17511152070
17511157747
17511163728
17511169099
17511174287
17511180024
17511187471
17511191133
17511198152
17511203828
17511208222
17511213227
17511220124
17511225373
17511234223
17511238191
17511243440
17511252717
17511258759
17511265962
17511274445
17511285798
17511293305
17511298188
17511304169
17511309113
17511314179
17511321503
17511326936
17511332307
17511337922
17511344453
17511350434
17511356293
17511361787
17511368012
17511373444
17511377900
17511384553
17511390717
17511395356
17511401703
17511407380
17511412323
17511417939
17511423066
17511430268
17511434845
17511440400
17511446869
17511450287
17511456330
17511461213
17511467926
17511475373
17511480988
17511485871
17511491547
17511496430
17511502716
17511507843
17511513214
17511519928
17511525788
17511532685
17511539948
17511545380
17511551666
17511556793
17511563568
17511569794
17511579071
17511586029
17511594147
17511604889
17511614777
17511625641
17511634552
17511643158
17511653351
17511661224
17511669098
17511677704
17511688202
17511696808
17511703277
17511710235
17511718048
17511724212
17511733734
17511741607
17511750213
17511758880
17511766326
17511774078
17511780792
17511788848
17511796661
17511804962
17511813079
17511820220
17511829925
17511835174
17511846282
17511854156
17511861175
17511869170
17511877349
17511885040
17511892486
17511900542
17511909942
17511916839
17511924590
17511932586
17511939544
17511951079
17511958953
17511965179
17511972869
17511982207
17511990142
17511996184
17512006499
17512012175
17512020415
17512030364
17512035491
17512043608
17512051116
17512060759
17512068389
17512078398
17512085967
17512093779
17512100798
17512108611
17512117278
17512126372
17512135039
17512143645
17512151396
17512160185
17512167998
17512176665
17512185393
17512193571
17512204314
17512214079
17512222502
17512231840
17512240263
17512248808
17512258330
17512265532
17512275175
17512284331
17512295073
17512303373
17512310942
17512317839
17512327482
17512336515
17512344633
17512352568
17512359465
17512365751
17512373564
17512380217
17512387663
17512396818
17512405973
17512413603
17512420072
17512427641
17512436003
17512443510
17512451078
17512458830
17512467313
17512473295
17512482206
17512488554
17512498258
17512505460
17512513578
17512520841
17512528837
17512537138
17512545682
17512554227
17512562284
17512571622
17512579252
17512587919
17512594877
17512602018
17512609281
17512619596
17512627836
17512639005
17512647489
17512659513
17512668302
17512677274
17512689786
17512700528
17512710782
17512719815
17512727323
17512735074
17512743924
17512751431
17512760281
17512768826
17512776517
17512784940
17512792691
17512800748
17512808377
17512815945
17512825467
17512833157
17512841336
17512848965
17512858426
17512865018
17512874905
17512881741
17512890591
17512899197
17512904934
17512909512
17512914334
17512918850
17512923489
17512928006
17512932888
17512938809
17512943509
17512948208
17512952969
17512957486
17512964383
17512969815
17512973965
17512979580
17512984402
17512990017
17512993801
17512996609
17513003445
17513007961
17513012112
17513016873
17513020901
17513026150
17513032681
17513037258
17513042507
17513050137
17513055019
17513061733
17513067654
17513073391
17513077908
17513081875
17513088406
17513092922
17513096706
17513100857
17513105068
17513110561
17513114529
17513118862
17513126797
17513131252
17513136562
17513140468
17513145717
17513149441
17513154507
17513158352
17513165188
17513169399
17513173366
17513177578
17513182094
17513186367
17513191066
17513195461
17513201381
17513206447
17513211940
17513216945
17513221828
17513226528
17513231289
17513236965
17513242153
17513246730
17513252101
17513256740
17513262111
17513267177
17513271755
17513278286
17513282253
17513287136
17513292385
17513297512
17513303798
17513309352
17513314357
17513318691
17513324489
17513329860
17513334621
17513339870
17513345424
17513350368
17513355434
17513360866
17513367336
17513372340
17513380580
17513387965
17513392604
17513397487
17513403163
17513409206
17513414210
17513420497
17513424831
17513429957
17513436427
17513441554
17513447536
17513455592
17513461024
17513465236
17513471644
17513477504
17513482203
17513486720
17513491969
17513496913
17513503627
17513508632
17513513270
17513519801
17513526515
17513531092
17513536036
17513542079
17513549281
17513554164
17513561122
17513566188
17513573207
17513581813
17513585658
17513591700
17513604640
17513611415
17513616786
17513621913
17513626734
17513631922
17513636683
17513641749
17513648463
17513653529
17513658106
17513663172
17513668177
17513672999
17513678065
17513683314
17513688624
17513694361
17513696925
17513708521
17513715906
17513720972
17513726038
17513731959
17513735499
17513741541
17513746546
17513752283
17513758143
17513762781
17513769190
17513773524
17513779322
17513783899
17513789332
17513794703
17513799891
17513804285
17513809290
17513819239
17513824854
17513830225
17513836451
17513840662
17513846155
17513851892
17513857813
17513862146
17513867151
17513874903
17513879969
17513885279
17513890161
17513895655
17513901636
17513907434
17513911829
17513918054
17513924524
17513929956
17513934656
17513939478
17513943079
17513951441
17513955164
17513962244
17513966455
17513973535
17513979089
17513984216
17513989709
17513995386
17514001123
17514006250
17514011926
17514016931
17514022485
17514030786
17514034509
17514041101
17514046655
17514052331
17514059106
17514065027
17514069848
17514075097
17514080835
17514086145
17514092248
17514097925
17514103235
17514109033
17514114465
17514120691
17514125390
17514131555
17514138025
17514143090
17514150293
17514155908
17514164453
17514170678
17514177087
17514183251
17514189599
17514195275
17514200707
17514207177
17514212548
17514218041
17514223657
17514228478
17514234338
17514239831
17514245324
17514250207
17514255883
17514261804
17514270226
17514276452
17514280114
17514287072
17514292199
17514297753
17514303918
17514308678
17514314660
17514320641
17514326317
17514331750
17514337060
17514342919
17514347741
17514353234
17514359460
17514365014
17514371422
17514377404
17514382958
17514388146
17514395287
17514400048
17514405846
17514410241
17514416283
17514420983
17514426476
17514431847
17514437767
17514443200
17514448876
17514454430
17514457848
17514464867
17514469750
17514476036
17514480126
17514486107
17514491051
17514496788
17514501732
17514507836
17514513024
17514518517
17514524193
17514527855
17514534752
17514539757
17514546837
17514552086
17514558312
17514563683
17514568565
17514573692
17514579491
17514585350
17514591331
17514596642
17514603355
17514614464
17514620567
17514626060
17514632164
17514638145
17514642357
17514650108
17514655540
17514660240
17514665123
17514671531
17514676353
17514682274
17514687401
17514694542
17514699485
17514704368
17514709129
17514714561
17514721214
17514725547
17514731285
17514737327
17514742942
17514749595
17514755699
17514760704
17514767967
17514774314
17514778709
17514786949
17514793174
17514801292
17514807212
17514811302
17514816734
17514822471
17514827842
17514832542
17514839988
17514844261
17514849876
17514856529
17514860557
17514866416
17514872337
17514877403
17514882285
17514887778
17514893150
17514898215
17514905540
17514910728
17514915183
17514920798
17514926597
17514931296
17514936667
17514942161
17514948142
17514951926
17514958701
17514963584
17514968894
17514974509
17514980796
17514985251
17514991355
17514996665
17515002219
17515008262
17515013633
17515019553
17515024680
17515031028
17515037314
17515042990
17515048545
17515053916
17515058127
17515065390
17515071067
17515077048
17515083884
17515091086
17515096579
17515100058
17515105490
17515112631
17515116965
17515122702
17515129294
17515135825
17515141867
17515146201
17515151083
17515157004
17515162436
17515167258
17515175314
17515181418
17515187277
17515190695
17515197714
17515202353
17515207358
17515211935
17515217978
17515223898
17515230002
17515235800
17515241354
17515247214
17515252463
17515258810
17515265097
17515271444
17515278525
17515286947
17515293417
17515298544
17515306173
17515310812
17515320211
17515327475
17515335226
17515343466
17515351034
17515358480
17515363546
17515371542
17515378622
17515387655
17515395590
17515405905
17515417135
17515428304
17515437887
17515445028
17515456625
17515466268
17515472372
17515482076
17515489217
17515498006
17515505758
17515511251
17515519430
17515526632
17515535848
17515543477
17515548910
17515559408
17515567403
17515573079
17515581075
17515587179
17515595601
17515601583
17515610250
17515619283
17515628011
17515635823
17515641683
17515653707
17515659993
17515667379
17515675923
17515683248
17515689961
17515698262
17515707662
17515713033
17515720540
17515730245
17515737996
17515747517
17515750264
17515762349
17515768819
17515777669
17515785176
17515793355
17515799397
17515805379
17515816670
17515825398
17515833760
17515841389
17515849202
17515858906
17515865071
17515873738
17515881184
17515890278
17515900776
17515907368
17515917073
17515922993
17515930745
17515936726
17515946003
17515953144
17515962117
17515968403
17515979634
17515986164
17515995808
17516004475
17516014179
17516021992
17516031208
17516039082
17516045246
17516053547
17516063374
17516070942
17516079121
17516088947
17516093586
17516102070
17516110981
17516119099
17516125507
17516130085
17516141132
17516154560
17516160908
17516169147
17516179584
17516191425
17516199360
17516206073
17516210712
17516221271
17516229023
17516239154
17516248249
17516255451
17516264484
17516272113
17516279926
17516285907
17516294452
17516301288
17516311115
17516318134
17516327411
17516333148
17516341266
17516349628
17516359699
17516369098
17516379840
17516388019
17516394000
17516403949
17516411029
17516416339
17516425494
17516431171
17516439288
17516445331
17516454913
17516460467
17516467792
17516474261
17516482135
17516490374
17516496234
17516502459
17516510333
17516519183
17516524432
17516533038
17516539996
17516547015
17516553607
17516561297
17516568255
17516573199
17516582537
17516589923
17516595172
17516602435
17516610430
17516618182
17516626483
17516633318
17516638323
17516650469
17516658709
17516664263
17516672076
17516680865
17516689165
17516694903
17516701067
17516712176
17516721697
17516730974
17516740008
17516746966
17516752276
17516759600
17516766192
17516772478
17516781511
17516787188
17516794573
17516800432
17516807390
17516812639
17516818560
17516824175
17516828814
17516834856
17516841387
17516847551
17516851885
17516857500
17516862871
17516868791
17516873125
17516878130
17516885576
17516891496
17516894670
17516901567
17516906755
17516912431
17516918108
17516923479
17516929277
17516935137
17516940996
17516945818
17516951494
17516957475
17516963152
17516967790
17516972612
17516979997
17516984026
17516990739
17516995927
17517002092
17517006975
17517012590
17517018510
17517024431
17517029375
17517035295
17517041093
17517047075
17517052080
17517058366
17517064348
17517070329
17517076982
17517084123
17517090165
17517097123
17517104020
17517111345
17517118486
17517124833
17517130571
17517135636
17517140580
17517146440
17517151872
17517157304
17517162980
17517169694
17517174638
17517180619
17517186479
17517192643
17517197831
17517203385
17517206254
17517212419
17517219682
17517226945
17517231767
17517236771
17517239945
17517247331
17517250626
17517256242
17517262345
17517267533
17517272904
17517279557
17517284074
17517289262
17517294572
17517299210
17517304948
17517311173
17517317704
17517323014
17517328873
17517334000
17517339738
17517342545
17517349259
17517354630
17517361100
17517366593
17517371720
17517377518
17517382950
17517388382
17517394669
17517399430
17517405533
17517411576
17517416031
17517421402
17517426041
17517431046
17517435929
17517440628
17517448563
17517453995
17517459976
17517465042
17517469132
17517473526
17517478226
17517484696
17517490555
17517496597
17517501846
17517506973
17517512283
17517516495
17517522293
17517528641
17517533157
17517540543
17517545303
17517549515
17517555313
17517560989
17517566360
17517570938
17517576126
17517582046
17517587112
17517590652
17517597427
17517603043
17517607681
17517612808
17517617874
17517624649
17517631302
17517638504
17517643997
17517649856
17517655288
17517661514
17517668167
17517673843
17517681656
17517688980
17517694717
17517700271
17517705459
17517709854
17517716568
17517721206
17517726699
17517732437
17517736648
17517741226
17517747512
17517753494
17517756546
17517762466
17517768386
17517773269
17517779983
17517785415
17517792129
17517798477
17517804580
17517808853
17517816665
17517820876
17517826675
17517833267
17517837600
17517844619
17517850723
17517855361
17517861831
17517869094
17517875320
17517880691
17517886428
17517893264
17517897475
17517904983
17517909499
17517917678
17517921889
17517929275
17517940993
17517946853
17517951796
17517957595
17517963820
17517967910
17517974929
17517980605
17517986770
17517991896
17517996169
17518002944
17518008681
17518015639
17518026259
17518032302
17518037184
17518044265
17518050002
17518055922
17518063063
17518069045
17518075270
17518080214
17518086135
17518090102
17518098464
17518103041
17518112196
17518118971
17518126235
17518132155
17518136610
17518142531
17518150282
17518157301
17518162978
17518170119
17518174574
17518183485
17518190016
17518196913
17518202406
17518206679
17518214430
17518219679
17518227858
17518233656
17518240858
17518247816
17518253493
17518260878
17518265638
17518272474
17518280531
17518287245
17518295912
17518301344
17518309278
17518316420
17518324354
17518328688
17518337843
17518341871
17518348341
17518354444
17518360304
17518366224
17518372145
17518379896
17518387586
17518393080
17518397474
17518402845
17518409010
17518414625
17518419996
17518426099
17518432386
17518438429
17518443128
17518450208
17518454664
17518460096
17518466322
17518472059
17518478223
17518484205
17518489393
17518495069
17518500257
17518505689
17518510999
17518517530
17518523450
17518530225
17518536329
17518542432
17518547315
17518553174
17518563794
17518569043
17518576490
17518582898
17518589307
17518594617
17518601331
17518606824
17518612683
17518617505
17518623731
17518630017
17518636548
17518642102
17518648816
17518655957
17518661573
17518666455
17518672925
17518680310
17518686841
17518693433
17518699597
17518704907
17518710767
17518716687
17518722974
17518729199
17518735791
17518741711
17518747754
17518753247
17518758679
17518765088
17518770337
17518779553
17518785901
17518791577
17518797192
17518801221
17518809277
17518813183
17518820141
17518828320
17518835522
17518841809
17518846692
17518852673
17518859387
17518865735
17518870739
17518877087
17518883984
17518890698
17518895947
17518902600
17518908032
17518915661
17518922863
17518929333
17518936779
17518944592
17518950878
17518956555
17518961315
17518966870
17518971997
17518976940
17518984997
17518990978
17518995983
17519001537
17519006481
17519011547
17519018566
17519023571
17519031139
17519035107
17519040051
17519046093
17519051037
17519057873
17519064526
17519069286
17519074535
17519081066
17519087719
17519092602
17519097851
17519104198
17519109569
17519113964
17519120922
17519128368
17519134350
17519139232
17519146923
17519151684
17519157421
17519163341
17519170665
17519176403
17519182995
17519189464
17519195873
17519200878
17519206859
17519213512
17519217296
17519226696
17519233593
17519240062
17519243846
17519250072
17519255199
17519261363
17519267650
17519276012
17519281993
17519288951
17519294505
17519300548
17519307384
17519311168
17519318431
17519324535
17519330577
17519336253
17519341747
17519348949
17519354747
17519360362
17519365367
17519371532
17519377879
17519383739
17519390330
17519397288
17519404124
17519409007
17519414439
17519420848
17519427012
17519434215
17519441478
17519451243
17519456614
17519462474
17519468699
17519472239
17519479747
17519484141
17519492198
17519496043
17519503733
17519509410
17519514415
17519520884
17519526316
17519534007
17519540843
17519547435
17519554942
17519561228
17519567149
17519573924
17519579661
17519585764
17519592600
17519596507
17519603831
17519608836
17519613535
17519619151
17519624339
17519632517
17519637583
17519643626
17519650340
17519655405
17519659861
17519665354
17519670664
17519676646
17519683176
17519689524
17519696055
17519702036
17519706797
17519712229
17519717051
17519722544
17519731028
17519738169
17519743845
17519750986
17519756113
17519761911
17519767405
17519773081
17519778391
17519784372
17519788950
17519794443
17519799814
17519804880
17519809885
17519815744
17519821909
17519828989
17519834482
17519839487
17519844980
17519851084
17519855356
17519861521
17519867380
17519875742
17519882578
17519888681
17519893137
17519898508
17519904306
17519911569
17519915170
17519924509
17519930368
17519937143
17519943002
17519947702
17519953256
17519960886
17519966013
17519972971
17519979379
17519985849
17519991403
17519995676
17520002145
17520007638
17520011789
17520020700
17520025339
17520033517
17520037668
17520044565
17520050058
17520054879
17520060800
17520065194
17520070932
17520078378
17520086923
17520093087
17520098520
17520103158
17520109384
17520114816
17520120248
17520128121
17520134774
17520140878
17520148324
17520151498
17520160409
17520165170
17520172250
17520180734
17520187997
17520195504
17520201791
17520208871
17520214486
17520220406
17520225961
17520231820
17520237252
17520243111
17520248177
17520253976
17520259530
17520264901
17520269418
17520275277
17520282357
17520288766
17520293893
17520299386
17520304513
17520310860
17520316170
17520321663
17520326974
17520331856
17520337288
17520342721
17520348397
17520354683
17520360909
17520366341
17520372261
17520378853
17520384346
17520389229
17520394478
17520399849
17520406014
17520410958
17520415352
17520421883
17520428414
17520433785
17520438973
17520444405
17520449532
17520454293
17520460091
17520465035
17520472847
