17748368565
17748373387
17748379002
17748384495
17748390232
17748395298
17748401890
17748407017
17748412632
17748418003
17748423191
17748428501
17748435215
17748442295
17748448460
17748454869
17748461155
17748467930
17748474888
17748481968
17748489658
17748495945
17748501682
17748509800
17748517368
17748522800
17748528721
17748536228
17748541660
17748551060
17748557529
17748563755
17748571445
17748580112
17748587192
17748595249
17748602634
17748611851
17748619175
17748624546
17748632419
17748638828
17748646335
17748653598
17748660373
17748667026
17748674411
17748681919
17748688449
17748696079
17748702915
17748709812
17748717929
17748723911
17748731418
17748737522
17748745029
17748753513
17748760715
17748766574
17748773959
17748781162
17748788059
17748795749
17748804538
17748809970
17748817538
17748824130
17748832675
17748839633
17748847751
17748855685
17748866061
17748875339
17748882724
17748890475
17748899386
17748906589
17748915622
17748922702
17748930819
17748939059
17748945956
17748954318
17748962863
17748971835
17748980075
17748988559
17748995639
17749002841
17749009982
17749017306
17749024325
17749029757
17749037203
17749045443
17749056002
17749061251
17749069796
17749077303
17749084750
17749092989
17749098238
17749106417
17749115572
17749123934
17749132723
17749140902
17749147799
17749155001
17749163180
17749169833
17749175875
17749186800
17749193697
17749202975
17749209994
17749216829
17749222689
17749231661
17749238436
17749248934
17749255770
17749264010
17749270845
17749278536
17749286348
17749294832
17749303011
17749309175
17749318697
17749326143
17749332308
17749340792
17749347200
17749356417
17749362642
17749370821
17749376680
17749386202
17749392183
17749400362
17749408540
17749414949
17749421724
17749430574
17749438570
17749445283
17749452364
17749461397
17749469514
17749476900
17749484285
17749492464
17749499605
17749506563
17749513215
17749522676
17749529207
17749534456
17749543855
17749549775
17749558015
17749565156
17749576081
17749584260
17749594026
17749600618
17749609285
17749617768
17749623994
17749634492
17749642610
17749648408
17749658174
17749665498
17749673005
17749679109
17749690705
17749699128
17749706941
17749712434
17749720551
17749728730
17749736481
17749744660
17749751252
17749759125
17749767487
17749774140
17749779877
17749789704
17749796784
17749807770
17749814606
17749820160
17749829438
17749837555
17749845246
17749850739
17749861908
17749869477
17749875153
17749885224
17749892609
17749901947
17749916718
17749932892
17749945709
17749954865
17749964386
17749975739
17749984833
17749995209
17750006744
17750014862
17750023285
17750031280
17750038788
17750045929
17750054108
17750061188
17750067963
17750075104
17750081390
17750089264
17750095978
17750103729
17750112945
17750119659
17750126068
17750135956
17750144561
17750151947
17750158844
17750167755
17750176910
17750184051
17750190765
17750198394
17750206207
17750211212
17750219085
17750226776
17750233612
17750239105
17750247589
17750255218
17750261627
17750269439
17750277435
17750284759
17750292999
17750306670
17750316558
17750326385
17750334808
17750345367
17750352935
17750358672
17750364593
17750372222
17750378387
17750388152
17750400115
17750405608
17750414641
17750421721
17750428191
17750437041
17750446807
17750454375
17750462798
17750471404
17750479399
17750488005
17750496062
17750503569
17750511504
17750519011
17750526946
17750534697
17750542693
17750550322
17750558074
17750566802
17750572661
17750579741
17750585783
17750593474
17750599394
17750609221
17750616728
17750624113
17750632292
17750639555
17750646513
17750652373
17750662932
17750671171
17750679289
17750685881
17750693205
17750701384
17750709685
17750716032
17750722807
17750730681
17750736906
17750745146
17750751616
17750760588
17750768950
17750777311
17750782988
17750790007
17750797941
17750805021
17750811247
17750819609
17750827787
17750837553
17750844755
17750851347
17750857694
17750863798
17750869962
17750876615
17750883146
17750890409
17750896330
17750904813
17750911100
17750917142
17750923734
17750930570
17750937406
17750943327
17750950223
17750957181
17750964384
17750971281
17750976591
17750985624
17750989164
17750997587
17751000821
17751009061
17751012174
17751019803
17751026395
17751031888
17751038785
17751043973
17751049283
17751055692
17751059598
17751066190
17751073209
17751078763
17751084867
17751090299
17751095853
17751100370
17751107511
17751112393
17751119779
17751124906
17751131070
17751136868
17751141568
17751147428
17751153043
17751157742
17751163175
17751169278
17751175198
17751180692
17751186673
17751193265
17751198575
17751204007
17751208157
17751214749
17751219022
17751227322
17751233548
17751242825
17751253323
17751261075
17751270413
17751278836
17751287442
17751296353
17751305874
17751316556
17751324917
17751333340
17751341336
17751349820
17751357693
17751365506
17751375454
17751383267
17751393582
17751401150
17751408901
17751418179
17751426174
17751435330
17751443020
17751452419
17751459499
17751467983
17751475735
17751485012
17751493801
17751501919
17751510769
17751518887
17751526882
17751534939
17751543667
17751552029
17751560634
17751568203
17751577358
17751583584
17751592434
17751600979
17751610988
17751618313
17751626430
17751635891
17751645839
17751653530
17751661464
17751670864
17751678859
17751689601
17751697597
17751705532
17751713954
17751720241
17751729579
17751738979
17751748317
17751756008
17751765651
17751773341
17751782008
17751790614
17751798671
17751807216
17751815700
17751825771
17751831935
17751842006
17751848048
17751858180
17751867396
17751876613
17751885219
17751893092
17751900783
17751908717
17751917811
17751925990
17751934413
17751943507
17751950465
17751959254
17751968348
17751976527
17751985438
17751994471
17752002894
17752011195
17752019068
17752026209
17752036097
17752043116
17752051356
17752059901
17752065760
17752077296
17752086085
17752094874
17752103541
17752113734
17752124415
17752132655
17752139490
17752148768
17752156336
17752165674
17752175074
17752184290
17752193140
17752200648
17752210535
17752217188
17752226038
17752234400
17752243616
17752251490
17752260828
17752269434
17752278467
17752284204
17752294519
17752304895
17752312647
17752318750
17752329920
17752339319
17752349024
17752355371
17752364404
17752373071
17752380090
17752390710
17752399866
17752410608
17752419885
17752427820
17752438806
17752448389
17752456811
17752464441
17752475305
17752485071
17752495752
17752504846
17752515283
17752523950
17752535363
17752544885
17752551416
17752561547
17752571496
17752580041
17752589318
17752601159
17752609887
17752618798
17752628747
17752637170
17752643395
17752649316
17752655419
17752661889
17752666955
17752672021
17752678307
17752682946
17752689172
17752695397
17752700097
17752706933
17752712365
17752718896
17752724816
17752730370
17752736596
17752743920
17752749474
17752755883
17752761315
17752766259
17752771386
17752778466
17752783837
17752789574
17752793908
17752800438
17752806786
17752813622
17752821373
17752826500
17752832665
17752838341
17752843651
17752850121
17752856713
17752861290
17752866539
17752872521
17752878807
17752885216
17752890648
17752896080
17752902245
17752908654
17752914208
17752919701
17752925926
17752930992
17752938194
17752943260
17752950096
17752955589
17752961693
17752967613
17752972496
17752979759
17752986473
17752992516
17752998802
17753004417
17753009911
17753015892
17753023460
17753029076
17753034691
17753040245
17753045433
17753052269
17753057335
17753063743
17753070885
17753077598
17753086571
17753092491
17753097008
17753103782
17753110252
17753117698
17753124351
17753129844
17753135948
17753141197
17753148460
17753155601
17753161277
17753167564
17753172691
17753178672
17753184593
17753190940
17753198143
17753203514
17753209678
17753214988
17753221092
17753227378
17753232383
17753238304
17753243614
17753250450
17753254600
17753260459
17753267173
17753271568
17753279197
17753287132
17753291160
17753298728
17753302268
17753310508
17753315025
17753320701
17753327659
17753332175
17753338584
17753344321
17753350608
17753358848
17753365256
17753369529
17753375510
17753381186
17753386497
17753393516
17753399009
17753403342
17753411094
17753416404
17753422141
17753428794
17753433921
17753441672
17753448386
17753454184
17753459616
17753464072
17753470420
17753476828
17753481589
17753487265
17753494406
17753498923
17753504416
17753510947
17753518027
17753524558
17753530600
17753537314
17753543845
17753549460
17753554770
17753560690
17753567893
17753573325
17753578330
17753584616
17753589011
17753598105
17753602072
17753608420
17753615317
17753620016
17753625998
17753631613
17753636557
17753642721
17753649191
17753654684
17753661520
17753666525
17753672751
17753677633
17753684591
17753690085
17753695456
17753701071
17753705343
17753710653
17753716574
17753722982
17753727926
17753734762
17753738791
17753744894
17753749289
17753757101
17753760092
17753768331
17753775656
17753781393
17753786642
17753791952
17753796530
17753802084
17753807516
17753814047
17753820455
17753825521
17753830282
17753835287
17753841451
17753846822
17753852194
17753858236
17753864340
17753869711
17753875204
17753880819
17753886678
17753892294
17753898641
17753904928
17753910909
17753916280
17753921896
17753926534
17753931783
17753937582
17753942831
17753950704
17753956319
17753962606
17753968587
17753973897
17753980001
17753985921
17753992818
17753998250
17754003011
17754008992
17754014913
17754019002
17754025106
17754031026
17754036885
17754041829
17754049031
17754053914
17754060018
17754066548
17754071553
17754078511
17754083394
17754088887
17754095967
17754102010
17754108296
17754114583
17754120259
17754125447
17754129842
17754137227
17754142232
17754148763
17754153157
17754160420
17754166890
17754171712
17754174519
17754183003
17754187032
17754192891
17754198567
17754204610
17754210835
17754217183
17754223347
17754227681
17754234029
17754238118
17754244588
17754250935
17754259053
17754266194
17754273701
17754280415
17754287983
17754296345
17754304097
17754311604
17754319172
17754324910
17754333516
17754340535
17754348103
17754354695
17754361897
17754367756
17754372700
17754380146
17754386128
17754391865
17754398579
17754403950
17754409382
17754415058
17754421772
17754428059
17754433735
17754439961
17754445942
17754450947
17754457111
17754462483
17754467915
17754474201
17754480671
17754485432
17754491474
17754494343
17754502521
17754507832
17754513203
17754517170
17754523640
17754530353
17754536640
17754542744
17754548542
17754554340
17754558369
17754563862
17754568317
17754575886
17754581989
17754587665
17754594257
17754599567
17754605304
17754612690
17754617145
17754623798
17754629841
17754635578
17754641315
17754646198
17754651935
17754659015
17754663837
17754669879
17754675373
17754681049
17754688251
17754694904
17754700702
17754705524
17754712482
17754718524
17754724140
17754729205
17754734638
17754740497
17754745563
17754752460
17754756915
17754764850
17754769244
17754775775
17754780597
17754787738
17754792987
17754799701
17754803668
17754809528
17754816180
17754822101
17754826495
17754831988
17754837604
17754843097
17754850055
17754854816
17754861651
17754866351
17754873858
17754878497
17754884356
17754889605
17754894549
17754900165
17754906695
17754910724
17754917376
17754923114
17754929095
17754935687
17754941973
17754946795
17754952655
17754957904
17754962970
17754971148
17754977008
17754983905
17754989764
17754994708
17755000140
17755006426
17755012347
17755016680
17755022967
17755028643
17755034625
17755038653
17755044085
17755051043
17755056353
17755062579
17755068255
17755074114
17755080584
17755085284
17755091326
17755096514
17755102068
17755108111
17755114214
17755119341
17755124834
17755130144
17755136004
17755142351
17755148089
17755153338
17755159258
17755166460
17755173235
17755180010
17755186663
17755192949
17755199175
17755204851
17755209917
17755213945
17755220964
17755226458
17755233477
17755238482
17755244951
17755249285
17755255999
17755262163
17755268267
17755274370
17755280413
17755285540
17755290911
17755295976
17755301531
17755307146
17755313677
17755321123
17755323992
17755332231
17755337785
17755345293
17755350969
17755356279
17755365801
17755371416
17755376787
17755381059
17755388750
17755393694
17755401445
17755404436
17755412492
17755418352
17755424394
17755428117
17755434404
17755439897
17755445390
17755452104
17755456865
17755464494
17755470353
17755474992
17755480790
17755485856
17755491350
17755498185
17755504899
17755509965
17755515947
17755521745
17755527116
17755532487
17755539262
17755543962
17755551042
17755556535
17755563066
17755568559
17755573564
17755579057
17755585588
17755591630
17755597917
17755602433
17755608720
17755614945
17755620500
17755626054
17755630631
17755637895
17755641923
17755647965
17755654008
17755659440
17755667008
17755672623
17755678910
17755683793
17755689164
17755696061
17755702286
17755708146
17755713944
17755718705
17755726273
17755731034
17755738480
17755745194
17755750199
17755756241
17755763016
17755769425
17755774979
17755780167
17755786210
17755792374
17755798172
17755803360
17755809769
17755816605
17755821488
17755827713
17755831742
17755837784
17755845291
17755852066
17755857560
17755863053
17755869400
17755876236
17755880814
17755887223
17755892838
17755898392
17755903641
17755909867
17755915665
17755921951
17755927933
17755936112
17755941666
17755946854
17755953873
17755958878
17755965530
17755971695
17755978958
17755984756
17755990067
17755994278
17755999710
17756006851
17756012100
17756018997
17756025040
17756031753
17756037124
17756043106
17756048843
17756054275
17756058975
17756064468
17756072220
17756076553
17756082840
17756085769
17756093094
17756098221
17756104995
17756110122
17756116775
17756122818
17756128433
17756133865
17756138015
17756143631
17756150405
17756156509
17756162796
17756168167
17756174026
17756180007
17756187210
17756192886
17756198318
17756204421
17756210098
17756214614
17756221694
17756226760
17756232925
17756240310
17756246475
17756253066
17756258010
17756264053
17756269180
17756274917
17756282302
17756288528
17756295486
17756302444
17756307937
17756315566
17756321609
17756326797
17756334426
17756340468
17756345840
17756352065
17756359206
17756363662
17756371291
17756377028
17756383559
17756389113
17756394851
17756401076
17756407058
17756412368
17756418654
17756425002
17756430495
17756436599
17756442214
17756447707
17756453261
17756459426
17756466811
17756472060
17756477675
17756483779
17756489089
17756495925
17756500685
17756507155
17756510573
17756518874
17756524062
17756529921
17756536696
17756544203
17756550124
17756554457
17756561842
17756567519
17756573134
17756578993
17756584425
17756590834
17756594130
17756602431
17756607252
17756612868
17756619398
17756624769
17756630873
17756634779
17756641676
17756646986
17756653029
17756658949
17756665663
17756672011
17756677626
17756684279
17756690626
17756696669
17756702711
17756708143
17756713636
17756719984
17756726576
17756732923
17756738356
17756744520
17756750441
17756756666
17756761488
17756767042
17756772840
17756778578
17756784315
17756791456
17756797621
17756803114
17756809339
17756815748
17756821241
17756828138
17756834486
17756840345
17756846388
17756852552
17756858228
17756866773
17756871595
17756879224
17756884290
17756889722
17756896375
17756903211
17756909620
17756915845
17756920301
17756927137
17756933118
17756939222
17756943128
17756949720
17756955762
17756961988
17756967664
17756972669
17756980542
17756983533
17756991102
17756997693
17757002149
17757008252
17757014417
17757020704
17757024488
17757031629
17757037366
17757043225
17757047864
17757054029
17757060559
17757067762
17757072888
17757079663
17757085950
17757090283
17757096509
17757102185
17757107251
17757113355
17757119946
17757125623
17757130872
17757137463
17757143018
17757148206
17757155286
17757161511
17757168225
17757173108
17757179700
17757185620
17757189648
17757196545
17757204358
17757209302
17757215222
17757222241
17757226697
17757233594
17757240430
17757244092
17757252759
17757258618
17757264905
17757270276
17757275952
17757281933
17757288708
17757294262
17757299695
17757306775
17757312390
17757318982
17757326123
17757332348
17757339184
17757344616
17757350903
17757357739
17757363964
17757368664
17757374401
17757379162
17757387646
17757393322
17757398083
17757402966
17757410351
17757416210
17757422436
17757427990
17757432507
17757438854
17757445507
17757451122
17757456799
17757463085
17757468639
17757474133
17757480236
17757486584
17757491283
17757497936
17757505321
17757509594
17757515819
17757522289
17757528210
17757533214
17757538097
17757545482
17757551952
17757557506
17757563305
17757567272
17757573925
17757580883
17757587230
17757593212
17757597301
17757604198
17757609325
17757615795
17757621105
17757627330
17757631786
17757637767
17757643688
17757649547
17757655284
17757660900
17757668407
17757674144
17757680248
17757685680
17757691783
17757698314
17757703502
17757710216
17757715404
17757722057
17757728282
17757732494
17757738963
17757744884
17757751354
17757756725
17757763744
17757769664
17757775829
17757782481
17757787730
17757794139
17757800182
17757804820
17757811412
17757817576
17757823375
17757828502
17757834178
17757840770
17757846446
17757852061
17757856334
17757864879
17757870067
17757876414
17757881907
17757887034
17757893016
17757898448
17757906688
17757911631
17757917857
17757924144
17757930430
17757936106
17757940013
17757946421
17757953807
17757960093
17757965892
17757971507
17757977976
17757982188
17757989146
17757994944
17758001475
17758006053
17758011668
17758017771
17758023814
17758030344
17758036753
17758042735
17758049021
17758054636
17758061228
17758065928
17758072642
17758080332
17758085764
17758092112
17758098643
17758103525
17758109080
17758115793
17758119211
17758126658
17758131479
17758138376
17758144724
17758150095
17758155283
17758161326
17758167612
17758172617
17758179026
17758183298
17758191111
17758196421
17758201670
17758209482
17758214975
17758220896
17758227182
17758231272
17758238474
17758246103
17758252146
17758258615
17758263315
17758269235
17758276743
17758282114
17758288462
17758295419
17758299997
17758305795
17758311594
17758316782
17758323740
17758329599
17758336130
17758341928
17758348886
17758353647
17758360971
17758367014
17758375864
17758380930
17758387094
17758393075
17758399606
17758405038
17758410654
17758417734
17758424447
17758428781
17758435190
17758442209
17758446420
17758454110
17758461007
17758466989
17758473214
17758477365
17758483896
17758488534
17758496469
17758501962
17758508065
17758513803
17758519967
17758525521
17758529245
17758535836
17758542184
17758548776
17758554147
17758559884
17758566720
17758570626
17758577523
17758583322
17758590890
17758596688
17758601205
17758607797
17758613839
17758619943
17758626901
17758632638
17758637582
17758643258
17758649300
17758654794
17758663644
17758669381
17758675301
17758680794
17758686532
17758691903
17758697213
17758704171
17758710580
17758716317
17758721505
17758727303
17758733224
17758738717
17758744515
17758748787
17758755684
17758760689
17758767403
17758773263
17758778573
17758784249
17758791512
17758797127
17758802864
17758809395
17758815438
17758821236
17758828621
17758833504
17758839302
17758845040
17758849495
17758857369
17758861580
17758868965
17758875313
17758880196
17758888924
17758894295
17758900398
17758906563
17758911751
17758919380
17758923042
17758930916
17758937691
17758943184
17758949410
17758956551
17758964851
17758970039
17758975655
17758981697
17758986092
17758992927
17758999519
17759004890
17759009956
17759015877
17759022407
17759028206
17759034309
17759040596
17759046516
17759051582
17759057136
17759063423
17759069648
17759074653
17759081184
17759087715
17759092964
17759098945
17759104072
17759108162
17759115913
17759122078
17759127876
17759132453
17759139411
17759144172
17759150093
17759155708
17759163948
17759168952
17759175605
17759180793
17759186775
17759191718
17759198249
17759205268
17759211616
17759218086
17759223640
17759228278
17759232978
17759241279
17759247199
17759253486
17759258491
17759264167
17759270026
17759274604
17759281501
17759285895
17759293403
17759298896
17759304999
17759310309
17759317023
17759322822
17759327521
17759335029
17759340522
17759346625
17759351813
17759357551
17759364448
17759370063
17759376410
17759380866
17759387763
17759393805
17759400824
17759407050
17759415229
17759421454
17759427619
17759431830
17759438544
17759444037
17759451361
17759456488
17759463568
17759469123
17759474127
17759482977
17759488532
17759494452
17759500617
17759506659
17759511542
17759517584
17759523688
17759528876
17759534796
17759539984
17759545966
17759551886
17759557379
17759563910
17759569586
17759576056
17759580939
17759587347
17759593085
17759598761
17759604742
17759610785
17759616522
17759621954
17759627997
17759633368
17759641485
17759648321
17759652960
17759659979
17759666632
17759670904
17759678412
17759681524
17759689032
17759696051
17759702887
17759708563
17759712530
17759720098
17759725958
17759731512
17759737432
17759743353
17759749151
17759755072
17759761968
17759766790
17759773077
17759779363
17759786016
17759792669
17759798589
17759804632
17759811407
17759815557
17759822881
17759828069
17759834844
17759840521
17759844854
17759852239
17759858587
17759863958
17759870245
17759875066
17759880926
17759887701
17759892950
17759898687
17759905584
17759911931
17759918584
17759924322
17759931341
17759937139
17759943364
17759949224
17759954534
17759961126
17759967046
17759973272
17759979619
17759986760
17759993413
17759999273
17760004583
17760011113
17760016912
17760023259
17760029790
17760033940
17760041326
17760046514
17760053655
17760059880
17760066960
17760072270
17760078557
17760084111
17760088811
17760095098
17760100591
17760108525
17760114690
17760121037
17760126836
17760132817
17760139653
17760145268
17760150700
17760156682
17760162358
17760167668
17760174809
17760180669
17760185857
17760192876
17760199223
17760204472
17760210148
17760216862
17760223149
17760228947
17760233952
17760241154
17760246464
17760252324
17760258976
17760266911
17760272587
17760277958
17760284489
17760290471
17760296147
17760302494
17760308171
17760313603
17760319279
17760323796
17760330265
17760337101
17760343266
17760348881
17760353459
17760360295
17760365971
17760371952
17760379215
17760385685
17760391606
17760397404
17760403263
17760409367
17760413700
17760421085
17760427433
17760433170
17760438969
17760445072
17760450199
17760457279
17760462040
17760469120
17760475162
17760480534
17760487430
17760494083
17760499210
17760504886
17760510746
17760516483
17760523136
17760528568
17760534550
17760539493
17760546451
17760552616
17760556766
17760564823
17760572391
17760578190
17760584476
17760588749
17760596683
17760602604
17760607975
17760614139
17760620182
17760626102
17760630497
17760637882
17760644351
17760649906
17760658451
17760664188
17760669864
17760675907
17760681400
17760686954
17760693607
17760701602
17760708255
17760714481
17760718692
17760726688
17760732242
17760738651
17760744449
17760749942
17760755679
17760760745
17760767459
17760774295
17760780521
17760786197
17760791995
17760797000
17760804141
17760810184
17760817264
17760823611
17760829532
17760835086
17760840457
17760845645
17760851687
17760859683
17760866214
17760871768
17760875857
17760883365
17760888247
17760896243
17760902896
17760907107
17760914370
17760919863
17760926516
17760933902
17760940676
17760948367
17760953677
17760957888
17760964846
17760972170
17760977358
17760984500
17760990176
17760995974
17761002871
17761008181
17761014102
17761021914
17761027590
17761032656
17761039004
17761044619
17761051211
17761058047
17761063662
17761069643
17761075442
17761082339
17761087588
17761093813
17761099306
17761105227
17761111147
17761116945
17761123415
17761129519
17761136294
17761141726
17761148806
17761153628
17761158449
17761166506
17761171938
17761176760
17761184206
17761190432
17761195253
17761202089
17761207643
17761212648
17761218691
17761224062
17761231447
17761235964
17761241823
17761248171
17761252565
17761259767
17761265932
17761272402
17761275636
17761284426
17761290956
17761296449
17761302187
17761308290
17761313417
17761319826
17761326234
17761331911
17761338136
17761342531
17761349977
17761353395
17761362001
17761368532
17761373842
17761380312
17761384462
17761391237
17761398195
17761403200
17761408815
17761416688
17761422914
17761428956
17761435121
17761442506
17761447145
17761454103
17761459291
17761465150
17761471254
17761478029
17761483155
17761490724
17761499879
17761506898
17761514833
17761521424
17761528077
17761533998
17761541139
17761546998
17761552980
17761561219
17761567201
17761575685
17761583680
17761588929
17761597474
17761604676
17761611512
17761618653
17761624757
17761630555
17761636353
17761641846
17761650636
17761656434
17761663087
17761668824
17761674561
17761681031
17761687928
17761693116
17761700501
17761706666
17761712098
17761717469
17761725098
17761731385
17761738953
17761745423
17761752442
17761758667
17761765198
17761771546
17761777039
17761782654
17761789795
17761795472
17761802979
17761808960
17761814759
17761822022
17761829285
17761835266
17761839905
17761847107
17761853333
17761858521
17761865113
17761867859
17761876709
17761883240
17761888550
17761895081
17761902039
17761907288
17761912903
17761919312
17761925476
17761932373
17761937500
17761944702
17761950378
17761956604
17761960876
17761969055
17761975159
17761981933
17761988281
17761993896
17761999573
17762006103
17762013611
17762019592
17762025085
17762031860
17762037781
17762047119
17762053589
17762062195
17762069153
17762075439
17762081543
17762087646
17762094177
17762100769
17762106567
17762113342
17762119384
17762125854
17762131713
17762138183
17762144531
17762151123
17762157226
17762164733
17762170471
17762177368
17762183715
17762190978
17762196105
17762201598
17762210326
17762215881
17762222289
17762228881
17762234802
17762242187
17762247436
17762254821
17762261352
17762267150
17762274474
17762279601
17762285705
17762293029
17762298888
17762304687
17762309752
17762317138
17762323852
17762331359
17762336486
17762340941
17762349242
17762354064
17762361327
17762367919
17762372435
17762379699
17762385436
17762391722
17762396971
17762403014
17762409972
17762414489
17762421752
17762427184
17762433470
17762440306
17762446227
17762453551
17762459288
17762465819
17762472289
17762476744
17762485045
17762490111
17762496642
17762502745
17762509459
17762515379
17762522704
17762528990
17762535277
17762541319
17762546385
17762551756
17762557371
17762564513
17762569151
17762574766
17762581480
17762586790
17762594237
17762598570
17762605345
17762611998
17762618284
17762624144
17762629942
17762634947
17762639097
17762645689
17762650389
17762657713
17762662901
17762668821
17762672545
17762678831
17762685179
17762692137
17762697264
17762702879
17762708677
17762714964
17762721006
17762727232
17762733702
17762738645
17762744932
17762749021
17762756224
17762762266
17762768064
17762773435
17762780638
17762786070
17762791502
17762796934
17762802976
17762808592
17762813902
17762818418
17762824094
17762830869
17762835630
17762842649
17762845579
17762852903
17762858457
17762864439
17762871030
17762876279
17762882017
17762887266
17762892515
17762898069
17762904355
17762910398
17762915952
17762920652
17762927671
17762932615
17762938657
17762944150
17762948728
17762955381
17762962217
17762968320
17762974302
17762980039
17762984250
17762990415
17762996396
17763002744
17763006955
17763014035
17763018796
17763026120
17763032834
17763038022
17763044004
17763050778
17763057492
17763064328
17763069882
17763076169
17763082578
17763088193
17763093869
17763098386
17763105527
17763112790
17763117856
17763122800
17763130795
17763136105
17763142636
17763148618
17763154782
17763159665
17763166562
17763173398
17763179318
17763183652
17763189084
17763194516
17763200802
17763206723
17763213803
17763219113
17763225094
17763231869
17763238217
17763243283
17763248715
17763255124
17763260800
17763266537
17763272213
17763278317
17763284542
17763289608
17763296872
17763301632
17763307309
17763314083
17763320980
17763326718
17763332577
17763336666
17763343197
17763349484
17763356686
17763362972
17763368038
17763373898
17763379696
17763385189
17763390438
17763395687
17763401363
17763409115
17763412167
17763419430
17763423580
17763430904
17763435665
17763442318
17763447140
17763453243
17763457821
17763464718
17763471004
17763477230
17763483089
17763488949
17763494198
17763499508
17763504879
17763509273
17763516537
17763521114
17763529232
17763534603
17763540645
17763546627
17763552059
17763555660
17763561763
17763567135
17763573116
17763579708
17763585872
17763592037
17763596736
17763603633
17763608699
17763615779
17763621822
17763628231
17763634151
17763640499
17763644710
17763650630
17763656185
17763662959
17763669856
17763675777
17763682796
17763687190
17763693721
17763698787
17763705562
17763712398
17763718318
17763724178
17763728572
17763736385
17763741084
17763748225
17763755061
17763761836
17763766597
17763773433
17763779048
17763785579
17763791377
17763795833
17763801692
17763807429
17763813594
17763819819
17763826045
17763832148
17763837581
17763843806
17763849055
17763853328
17763861018
17763865901
17763871882
17763876033
17763882869
17763889460
17763894465
17763900874
17763907099
17763912654
17763917903
17763922236
17763927912
17763935664
17763939875
17763945796
17763949885
17763956599
17763962092
17763968806
17763974421
17763981257
17763987238
17763993098
17764001093
17764007563
17764014338
17764019770
17764025568
17764032893
17764037959
17764045771
17764052241
17764057490
17764064448
17764070673
17764075373
17764082758
17764088190
17764094477
17764101740
17764106074
17764114435
17764120417
17764125788
17764130060
17764138422
17764143793
17764148920
17764158136
17764161371
17764170221
17764176203
17764182123
17764187738
17764193109
17764200129
17764206293
17764211115
17764217279
17764224909
17764232782
17764236444
17764245294
17764251947
17764257440
17764263849
17764272272
17764277460
17764284479
17764290033
17764297235
17764302301
17764309625
17764315607
17764319757
17764326349
17764333429
17764339166
17764344842
17764350763
17764358209
17764361444
17764369989
17764375238
17764381158
17764388055
17764393793
17764399591
17764404107
17764411371
17764416681
17764423517
17764428888
17764436517
17764442804
17764448358
17764454767
17764460077
17764466302
17764471612
17764477227
17764483575
17764488153
17764496331
17764501214
17764507196
17764512017
17764519097
17764526910
17764532037
17764539788
17764543206
17764551385
17764557610
17764564202
17764570367
17764575860
17764582696
17764589593
17764595696
17764601739
17764607232
17764613580
17764619988
17764625848
17764631280
17764637444
17764643853
17764649590
17764656060
17764661553
17764668389
17764674370
17764679864
17764686211
17764694207
17764700982
17764705498
17764712823
17764717827
17764724419
17764731377
17764737481
17764743584
17764748833
17764756279
17764762322
17764770134
17764776970
17764783196
17764788567
17764795525
17764803154
17764808464
17764815056
17764820610
17764827812
17764834099
17764838738
17764846916
17764851677
17764859551
17764866142
17764870354
17764877495
17764883049
17764890556
17764896782
17764903923
17764909721
17764916496
17764922234
17764928886
17764935661
17764942009
17764948296
17764954765
17764960930
17764967583
17764973076
17764980217
17764986015
17764993339
17764999077
17765006462
17765012321
17765018181
17765025017
17765030693
17765037101
17765043876
17765049919
17765054374
17765061638
17765067375
17765074699
17765080497
17765087638
17765093620
17765099662
17765105949
17765112113
17765116264
17765123283
17765127799
17765135856
17765141349
17765147087
17765153434
17765158988
17765165641
17765171317
17765177299
17765184074
17765189750
17765196098
17765203300
17765210380
17765215263
17765221610
17765227836
17765234306
17765240531
17765244620
17765251151
17765257621
17765263602
17765269706
17765276420
17765280936
17765288199
17765293937
17765302115
17765309318
17765315177
17765321586
17765327140
17765332511
17765339896
17765345023
17765350943
17765357596
17765363700
17765370963
17765376822
17765383170
17765389701
17765395499
17765402579
17765408927
17765416373
17765422660
17765429251
17765435538
17765441092
17765447806
17765454215
17765459952
17765465872
17765471304
17765476676
17765482657
17765488821
17765495779
17765502188
17765507986
17765513297
17765518851
17765524100
17765529898
17765536429
17765542837
17765548514
17765555167
17765560721
17765566763
17765573050
17765578360
17765585013
17765590445
17765596548
17765602347
17765608877
17765614554
17765620352
17765626089
17765631460
17765636648
17765642996
17765646963
17765654654
17765661001
17765667166
17765672659
17765678274
17765684195
17765690237
17765696402
17765702749
17765709036
17765714712
17765719961
17765726126
17765730215
17765737722
17765744619
17765750967
17765757375
17765763357
17765770986
17765776174
17765783560
17765789724
17765795767
17765802297
17765806875
17765812978
17765820364
17765826467
17765831716
17765837698
17765844289
17765850088
17765855337
17765859487
17765866689
17765871877
17765878591
17765884878
17765889699
17765894826
17765901052
17765907461
17765915029
17765921377
17765929006
17765934194
17765940786
17765945913
17765951589
17765958120
17765964467
17765969411
17765977346
17765983266
17765988576
17765994741
17766001088
17766007131
17766013356
17766021169
17766027761
17766033986
17766041982
17766047048
17766052480
17766059804
17766066579
17766072499
17766078725
17766085683
17766091481
17766096608
17766103322
17766108205
17766113881
17766119801
17766125844
17766132130
17766137929
17766144398
17766149892
17766153981
17766161183
17766165883
17766172536
17766177907
17766184315
17766189381
17766194325
17766200917
17766206349
17766213734
17766218068
17766225270
17766230824
17766236195
17766241810
17766248951
17766255726
17766263295
17766268238
17766275074
17766280079
17766287526
17766293019
17766298939
17766304676
17766311146
17766316700
17766322071
17766329212
17766347584
17766352467
17766361378
17766366810
17766372913
17766379078
17766384998
17766390369
17766395618
17766402332
17766407825
17766413990
17766420155
17766424366
17766431690
17766437366
17766443043
17766449757
17766454639
17766461719
17766465870
17766471851
17766478504
17766484119
17766490162
17766496143
17766502857
17766507252
17766514515
17766519947
17766525928
17766531543
17766538013
17766543811
17766549366
17766556080
17766561817
17766568409
17766574451
17766579517
17766585743
17766591907
17766597156
17766602649
17766608264
17766613880
17766621387
17766627185
17766632495
17766638172
17766644031
17766649951
17766655078
17766661731
17766669238
17766675647
17766681140
17766687183
17766692249
17766698474
17766705127
17766711230
17766716785
17766722278
17766728259
17766733630
17766739612
17766746265
17766751880
17766757739
17766762378
17766770007
17766776050
17766781909
17766786853
17766793628
17766799182
17766805591
17766812121
17766816821
17766824389
17766830798
17766837573
17766843798
17766848681
17766855334
17766860705
17766867846
17766873339
17766879687
17766885852
17766891772
17766896899
17766902148
17766910388
17766916003
17766922839
17766928942
17766934191
17766939074
17766944262
17766952319
17766958422
17766962939
17766969409
17766974841
17766980334
17766985400
17766992907
17767000109
17767004076
17767010729
17767017016
17767022631
17767027148
17767033739
17767038683
17767045275
17767051012
17767056505
17767061205
17767067248
17767072619
17767079882
17767085131
17767091295
17767096911
17767102221
17767107409
17767111681
17767118273
17767124376
17767131151
17767137194
17767142504
17767147448
17767153429
17767157946
17767164232
17767170092
17767175463
17767180651
17767186022
17767190905
17767196825
17767202257
17767208849
17767214342
17767218675
17767225633
17767229784
17767235704
17767241014
17767248155
17767253343
17767258898
17767264696
17767270372
17767274950
17767280199
17767284959
17767290575
17767296251
17767300768
17767308275
17767313097
17767322435
17767328233
17767333482
17767339159
17767345140
17767350877
17767357896
17767363817
17767369493
17767375047
17767382677
17767388231
17767394761
17767401048
17767405626
17767411973
17767418992
17767426194
17767431443
17767438035
17767442796
17767449937
17767454698
17767461900
17767467942
17767474595
17767479112
17767485520
17767492234
17767497239
17767503831
17767508103
17767514146
17767519700
17767525987
17767530503
17767538682
17767544114
17767551011
17767556077
17767562608
17767566880
17767572801
17767576951
17767583176
17767589036
17767594468
17767600083
17767605637
17767611375
17767616441
17767622971
17767627732
17767634629
17767641343
17767646287
17767651902
17767656724
17767661484
17767667771
17767673936
17767679124
17767685715
17767692124
17767699021
17767703660
17767708725
17767714707
17767720627
17767724717
17767731125
17767735520
17767742234
17767747849
17767753464
17767760666
17767766159
17767772995
17767779404
17767784531
17767789963
17767795456
17767801438
17767806992
17767812302
17767817795
17767825363
17767831162
17767836655
17767843064
17767848374
17767854294
17767858994
17767866684
17767873337
17767878037
17767885971
17767892258
17767898056
17767902573
17767910812
17767915817
17767922592
17767927963
17767934128
17767939438
17767943710
17767950424
17767956711
17767962387
17767968063
17767974228
17767978317
17767984237
17767988510
17767995346
17767999008
17768006698
17768009506
17768016586
17768021896
17768028000
17768032577
17768039718
17768045211
17768050705
17768056076
17768061630
17768067306
17768073410
17768078720
17768085372
17768092147
17768096908
17768103622
17768110458
17768115707
17768121017
17768127731
17768132980
17768139694
17768145248
17768150619
17768155929
17768161056
17768165145
17768168929
17768174789
17768178817
17768183395
17768188644
17768194015
17768199081
17768204086
17768209640
17768215682
17768221236
17768226913
17768231795
17768235641
17768241561
17768246810
17768250106
17768256148
17768260299
17768265365
17768270064
17768275130
17768280501
17768284713
17768291610
17768296248
17768301253
17768303512
17768309615
17768315230
17768319259
17768324263
17768329024
17768332930
17768337813
17768342635
17768346541
17768350936
17768356002
17768361861
17768367171
17768371810
17768376998
17768384261
17768390425
17768398116
17768402571
17768407210
17768411666
17768415267
17768420272
17768425215
17768433272
17768439559
17768445174
17768450728
17768455306
17768460494
17768466719
17768470442
17768475691
17768478743
17768484114
17768488997
17768493697
17768497481
17768503401
17768508955
17768514387
17768518782
17768523665
17768528364
17768533247
17768538191
17768543074
17768548506
17768551924
17768556563
17768561018
17768567671
17768570601
17768577559
17768582014
17768588118
17768592268
17768598433
17768603682
17768607649
17768612043
17768617659
17768622664
17768627485
17768631819
17768637434
17768642317
17768646223
17768650007
17768656843
17768662031
17768666059
17768672102
17768675886
17768682905
17768685957
17768691206
17768697370
17768701155
17768706159
17768709883
17768715010
17768718855
17768724653
17768729109
17768735334
17768740827
17768745954
17768748579
17768756635
17768759992
17768766096
17768772443
17768778242
17768781904
17768788068
17768792524
17768797529
17768802106
17768806806
17768813764
17768816877
17768824262
17768829755
17768834150
17768840803
17768847944
17768857953
17768863203
17768868452
17768875043
17768880720
17768885114
17768892011
17768896650
17768903364
17768909162
17768914106
17768919172
17768925519
17768930585
17768938398
17768942609
17768948041
17768951947
17768957013
17768962079
17768966962
17768971418
17768975507
17768980390
17768985150
17768989850
17768994367
17768999250
17769007062
17769011579
17769018109
17769022382
17769028058
17769033246
17769038495
17769043866
17769050214
17769056073
17769061139
17769066937
17769071637
17769076947
17769082867
17769088055
17769094403
17769098798
17769104169
17769109967
17769115033
17769119366
17769125714
17769132245
17769137189
17769141827
17769146466
17769153424
17769158795
17769165631
17769171124
17769176617
17769182232
17769188763
17769194439
17769199627
17769205304
17769211407
17769218365
17769222027
17769228619
17769234906
17769239849
17769244976
17769251934
17769256390
17769261883
17769267132
17769272564
17769279461
17769285137
17769290264
17769296063
17769301129
17769308758
17769314556
17769319683
17769325604
17769330975
17769336407
17769342877
17769348248
17769353130
17769361187
17769365582
17769372784
17769375897
17769383831
17769389080
17769397564
17769403484
17769411114
17769415996
17769425030
17769431499
17769440227
17769445904
17769452617
17769460491
17769467327
17769473736
17769479595
17769485821
17769491497
17769497478
17769502788
17769508281
17769516582
17769523235
17769528606
17769535320
17769541668
17769547649
17769553020
17769560588
17769566326
17769572612
17769578777
17769583232
17769588909
17769594768
17769600017
17769606365
17769612895
17769618938
17769623515
17769629375
17769633891
17769639751
17769645793
17769652568
17769658489
17769664714
17769669841
17769675822
17769681560
17769687358
17769691203
17769697856
17769704875
17769709819
17769714336
17769720866
17769726543
17769732768
17769737346
17769744304
17769751323
17769756022
17769761210
17769767802
17769773051
17769779826
17769784282
17769791057
17769795390
17769801738
17769804667
17769812419
17769816874
17769823466
17769827983
17769834208
17769842082
17769847453
17769852031
17769858805
17769865519
17769870585
17769874919
17769880778
17769887675
17769895426
17769901774
17769906474
17769912455
17769917887
17769924052
17769932475
17769941020
17769947367
17769955607
17769961894
17769969828
17769977518
17769984171
17769995219
17770004862
17770013468
17770023051
17770028055
17770034830
17770042948
17770051554
17770057108
17770069071
17770076822
17770084513
17770094767
17770101664
17770106241
17770117594
17770123819
17770130594
17770137613
17770143473
17770150614
17770158121
17770165079
17770172159
17770180887
17770190042
17770194986
17770205301
17770212808
17770220804
17770227152
17770233316
17770238565
17770245767
17770250528
17770257303
17770263284
17770271036
17770275247
17770281229
17770285684
17770292032
17770298135
17770303323
17770310464
17770316385
17770322793
17770328226
17770334146
17770339700
17770344156
17770349771
17770356180
17770362283
17770368265
17770373208
17770379190
17770386758
17770392984
17770397195
17770403970
17770409463
17770416604
17770422769
17770427346
17770433999
17770439981
17770445169
17770451333
17770458047
17770463967
17770468667
17770474588
17770478921
17770485391
17770491555
17770496560
17770503091
17770510232
17770515298
17770520303
17770526956
17770532266
17770536660
17770543740
17770549050
17770556191
17770561196
17770566384
17770571755
17770579263
17770582681
17770591164
17770597878
17770606179
17770611123
17770618203
17770623574
17770630593
17770637185
17770644082
17770650674
17770658120
17770663369
17770669839
17770676247
17770682229
17770687172
17770694191
17770699440
17770707558
17770712807
17770718361
17770726540
17770734352
17770739113
17770745766
17770751503
17770760842
17770765847
17770771889
17770777687
17770781349
17770787819
17770793373
17770800392
17770806313
17770813881
17770821083
17770829079
17770834267
17770842079
17770846840
17770853920
17770860390
17770866982
17770872902
17770878822
17770882607
17770889137
17770894997
17770901161
17770906105
17770913002
17770918312
17770923561
17770930458
17770935280
17770940712
17770947609
17770955787
17770960792
17770965858
17770972572
17770976722
17770983680
17770989906
17770998329
17771004371
17771011268
17771016578
17771022071
17771028907
17771034217
17771037269
17771045204
17771052467
17771059852
17771063026
17771071815
17771074745
17771082130
17771084999
17771092079
17771098792
17771106178
17771111183
17771117835
17771122169
17771128822
17771133216
17771139503
17771144325
17771153053
17771156165
17771163734
17771168067
17771174842
17771179237
17771185218
17771189979
17771195838
17771202064
17771208411
17771214027
17771218848
17771224647
17771231177
17771235877
17771241309
17771248511
17771254798
17771259559
17771264991
17771272193
17771279822
17771285499
17771294166
17771298316
17771304603
17771308997
17771315711
17771320105
17771327124
17771335730
17771340918
17771347876
17771356116
17771362708
17771367224
17771373999
17771382117
17771388648
17771393653
17771398474
17771405799
17771413062
17771418311
17771425086
17771430762
17771437903
17771442236
17771448523
17771455237
17771461035
17771468848
17771475806
17771480383
17771487097
17771492468
17771500159
17771506567
17771515356
17771520178
17771525305
17771531958
17771537878
17771544592
17771550879
17771555823
17771560400
17771567480
17771574133
17771578894
17771584753
17771591589
17771598181
17771604040
17771611242
17771617285
17771622595
17771627172
17771632177
17771639257
17771645544
17771650488
17771655798
17771662451
17771668432
17771673132
17771679907
17771685339
17771691503
17771697241
17771700537
17771708288
17771711096
17771720556
17771724828
17771732397
17771738378
17771744177
17771747778
17771756689
17771763097
17771769018
17771772436
17771778905
17771783422
17771790441
17771795568
17771801855
17771806676
17771814428
17771819372
17771827367
17771832189
17771838170
17771842931
17771849279
17771853856
17771861974
17771866918
17771872777
17771879003
17771887426
17771892309
17771899083
17771904760
17771910314
17771917455
17771925389
17771930944
17771939428
17771946752
17771951268
17771957738
17771963109
17771971288
17771978002
17771983434
17771988927
17771995091
17772000524
17772007665
17772013097
17772019017
17772022252
17772031529
17772037084
17772043492
17772048131
17772055211
17772059666
17772067723
17772073705
17772078465
17772084264
17772089635
17772095128
17772101964
17772106114
17772112767
17772117589
17772123021
17772128758
17772136021
17772139317
17772148778
17772154515
17772159825
17772165196
17772170567
17772176671
17772181981
17772185093
17772192601
17772197422
17772206028
17772209263
17772216771
17772222447
17772229649
17772234349
17772241368
17772245945
17772251683
17772257725
17772262730
17772269749
17772275303
17772279942
17772287937
17772295017
17772300450
17772306492
17772312351
17772319859
17772325901
17772332188
17772338841
17772344090
17772352818
17772360142
17772365635
17772371128
17772376743
17772384251
17772389866
17772397800
17772402683
17772409763
17772415440
17772421543
17772427891
17772432896
17772438877
17772444431
17772447544
17772454746
17772462803
17772469089
17772474582
17772479831
17772484531
17772490635
17772495334
17772503086
17772511692
17772521396
17772527134
17772532016
17772540622
17772545322
17772552280
17772557346
17772563938
17772568393
17772576389
17772580966
17772587924
17772592502
17772598667
17772607028
17772614780
17772619052
17772625644
17772629733
17772636325
17772640292
17772647434
17772652927
17772659335
17772663486
17772670627
17772673312
17772681369
17772686801
17772691989
17772700229
17772705600
17772711703
17772717197
17772721713
17772728854
17772733737
17772738803
17772746493
17772752109
17772757602
17772762668
17772767062
17772774814
17772779330
17772784884
17772789889
17772798434
17772801425
17772808200
17772812594
17772820834
17772825534
17772831454
17772839083
17772863864
17772868197
17772877535
17772883029
17772890048
17772894686
17772901278
17772905734
17772913180
17772916232
17772925570
17772930636
17772935946
17772941378
17772947909
17772954073
17772959383
17772965365
17772970187
17772977999
17772984591
17772989291
17772996676
17773003023
17773007601
17773013888
17773021395
17773027254
17773033785
17773039522
17773044344
17773050448
17773056673
17773062655
17773069430
17773074251
17773080294
17773086214
17773093905
17773099398
17773105867
17773111727
17773118990
17773125948
17773131868
17773137484
17773144808
17773149630
17773156282
17773160433
17773167208
17773173555
17773179476
17773188265
17773195162
17773202120
17773207247
17773213045
17773219881
17773226289
17773230379
17773234956
17773241304
17773246187
17773252168
17773258089
17773262972
17773268587
17773275850
17773281282
17773287874
17773291841
17773298250
17773303560
17773310457
17773315340
17773322114
17773327669
17773332857
17773337373
17773344209
17773351045
17773356294
17773362459
17773368440
17773372835
17773380220
17773384736
17773391328
17773395845
17773402436
17773409211
17773416230
17773421663
17773427888
17773434114
17773438508
17773444795
17773451081
17773458406
17773464204
17773471772
17773478364
17773482942
17773489533
17773493867
17773500703
17773505341
17773512544
17773517487
17773524323
17773528901
17773534760
17773539277
17773546967
17773552888
17773559174
17773563874
17773571931
17773576264
17773582062
17773587983
17773591401
17773598298
17773604645
17773611970
17773616181
17773622773
17773626557
17773632905
17773637116
17773644257
17773652924
17773659394
17773664277
17773670319
17773674775
17773681366
17773686493
17773695527
17773701508
17773709076
17773716278
17773723969
17773731049
17773735993
17773743988
17773747834
17773756012
17773759247
17773767548
17773770661
17773778839
17773782074
17773789826
17773797394
17773804291
17773809540
17773816315
17773821015
17773828705
17773834198
17773840790
17773845429
17773850922
17773856476
17773862885
17773867889
17773875214
17773881561
17773887421
17773891632
17773899628
17773904632
17773912567
17773919098
17773924957
17773930511
17773936798
17773941864
17773948517
17773953094
17773959869
17773964874
17773972320
17773977569
17773986236
17773990326
17773999603
17774003143
17774010955
17774016754
17774024383
17774029510
17774035125
17774039398
17774047332
17774052032
17774058807
17774060211
17774069915
17774073577
17774082427
17774088653
17774094024
17774098724
17774105438
17774108550
17774115814
17774123260
17774129485
17774134246
17774140105
17774146270
17774151946
17774157378
17774163360
17774168853
17774174163
17774181182
17774188323
17774193938
17774200164
17774206573
17774212920
17774220061
17774225982
17774232818
17774238189
17774243377
17774249175
17774255889
17774264129
17774271148
17774276519
17774284026
17774291167
17774295501
17774304351
17774312407
17774323577
17774329436
17774335723
17774348479
17774359709
17774367217
17774373015
17774384245
17774392363
17774400603
17774408415
17774415923
17774423857
17774429839
17774438628
17774445952
17774451933
17774460905
17774466826
17774477019
17774484343
17774489409
17774498076
17774505400
17774511259
17774516997
17774522490
17774529631
17774534147
17774539458
17774546721
17774553007
17774558195
17774561613
17774569487
17774573210
17774580717
17774586943
17774591826
17774598539
17774605253
17774610929
17774615568
17774622282
17774627287
17774633512
17774639311
17774644499
17774651457
17774657682
17774664884
17774671476
17774681730
17774690092
17774699735
17774707731
17774717802
17774727567
17774736784
17774744657
17774752836
17774763090
17774771574
17774779935
17774787870
17774795499
17774803373
17774810209
17774818204
17774828214
17774836698
17774843900
17774851346
17774859952
17774866239
17774875760
17774883939
17774892667
17774901517
17774910062
17774919767
17774927213
17774935331
17774943814
17774952481
17774961331
17774968900
17774977201
17774985379
17774994473
17775000821
17775009671
17775019376
17775027432
17775035672
17775042081
17775053799
17775058621
17775069730
17775081143
17775090970
17775104581
17775111844
17775120633
17775129117
17775137906
17775146512
17775155484
17775162381
17775168423
17775179715
17775188687
17775197110
17775208035
17775214077
17775223233
17775230557
17775239895
17775246731
17775256069
17775264981
17775274868
17775281704
17775289334
17775298245
17775307339
17775315884
17775325955
17775332424
17775341457
17775348965
17775355862
17775364712
17775374294
17775382961
17775389675
17775400295
17775408840
17775419216
17775426784
17775436306
17775443508
17775450466
17775458461
17775466762
17775474209
17775483669
17775495693
17775502163
17775508998
17775515834
17775523342
17775530910
17775537868
17775546657
17775554347
17775563503
17775572109
17775580593
17775588588
17775595973
17775602931
17775613063
17775630458
17775650844
17775661098
17775667567
17775676601
17775683437
17775694057
17775699428
17775708339
17775717067
17775725245
17775741115
17775750148
17775757899
17775766627
17775772731
17775783290
17775790248
17775798182
17775805873
17775815150
17775841822
17775857875
17775866847
17775876002
17775886927
17775897303
17775904994
17775916102
17775924708
17775939906
17775946375
17775958765
17775967982
17775977137
17775985682
17775994227
17776005152
17776013941
17776022547
17776025599
17776035242
17776040613
17776049585
17776055567
17776061609
17776066370
17776071863
17776078821
17776083033
17776089808
17776094385
17776101404
17776106165
17776110132
17776114832
17776118921
17776121302
17776128809
17776134729
17776139185
17776142908
17776148889
17776153528
17776157190
17776161402
17776166773
17776170496
17776176599
17776181604
17776185205
17776190088
17776196069
17776201624
17776205896
17776210718
17776217554
17776222986
17776228235
17776234216
17776238245
17776243555
17776249963
17776256494
17776261499
17776266565
17776269861
17776276941
17776281702
17776287622
17776293054
17776298486
17776323877
17776334741
17776343652
17776352441
17776358911
17776370324
17776376733
17776384912
17776389672
17776398767
17776405358
17776413110
17776420739
17776430566
17776438134
17776449426
17776456811
17776464929
17776474633
17776482629
17776491235
17776499597
17776506127
17776515527
17776521752
17776529443
17776538171
17776547021
17776554528
17776563378
17776570458
17776576745
17776582055
17776587426
17776592614
17776598595
17776605187
17776608971
17776615929
17776621178
17776626916
17776631188
17776639855
17776644982
17776653832
17776669213
17776675621
17776684655
17776692528
17776699120
17776704918
17776713585
17776724083
17776731957
17776740074
17776746239
17776751244
17776756249
17776761681
17776766991
17776772179
17776777123
17776782494
17776786766
17776794090
17776800926
17776806358
17776811302
17776816734
17776821983
17776826988
17776830650
17776835655
17776840965
17776847740
17776853783
17776860619
17776866539
17776874290
17776881798
17776888328
17776893272
17776899315
17776906334
17776912742
17776919151
17776924339
17776933006
17776938377
17776945518
17776952415
17776959373
17776965660
17776972801
17776979210
17776985740
17776991661
17776998008
17777003746
17777010093
17777016746
17777021751
17777029380
17777035057
17777044822
17777048728
17777061363
17777070335
17777077964
17777083518
17777088706
17777095359
17777100059
17777106284
17777111167
17777117271
17777125083
17777130882
17777138084
17777144614
17777151756
17777155967
17777161521
17777167258
17777171836
17777175681
17777181174
17777187278
17777192344
17777199790
17777205100
17777211509
17777215476
17777223655
17777228232
17777234641
17777239463
17777245322
17777249961
17777256431
17777261985
17777269126
17777275290
17777281272
17777286155
17777291648
17777297873
17777304526
17777310019
17777315024
17777320883
17777326499
17777334311
17777341269
17777348960
17777355490
17777364585
17777371176
17777376364
17777384909
17777388571
17777398215
17777404807
17777411398
17777418601
17777428976
17777434836
17777442587
17777450034
17777456992
17777462424
17777467734
17777476889
17777483786
17777492392
17777496725
17777504965
17777511740
17777518332
17777525961
17777532492
17777539450
17777548239
17777555075
17777561667
17777567221
17777575033
17777580587
17777588034
17777593405
17777600241
17777604452
17777611898
17777615011
17777623556
17777628805
17777634664
17777641622
17777646932
17777651998
17777658834
17777667806
17777672994
17777676046
17777684469
17777693319
17777700826
17777707601
17777713766
17777717123
17777725546
17777729086
17777740682
17777744772
17777752950
17777758016
17777763631
17777769857
17777774129
17777782247
17777787618
17777793355
17777800435
17777806478
17777813253
17777819478
17777825155
17777831807
17777836202
17777841329
17777846212
17777852987
17777857564
17777862447
17777865316
17777874715
17777880574
17777887593
17777894674
17777899861
17777903951
17777909383
17777913228
17777919637
17777923238
17777929036
17777933309
17777939717
17777944112
17777953267
17777959432
17777966023
17777972859
17777978841
17777986043
17777991048
17777995870
17778002034
17778006856
17778012959
17778018025
17778024312
17778031941
17778036763
17778043111
17778048970
17778054280
17778058614
17778065816
17778069966
17778076314
17778081319
17778087239
17778091817
17778098897
17778103596
17778110188
17778116841
17778122029
17778127339
17778133626
17778138691
17778142964
17778149312
17778155476
17778161519
17778165852
17778171711
17778177510
17778182515
17778188191
17778194538
17778201374
17778206990
17778213703
17778219990
17778225972
17778231159
17778237446
17778244709
17778250508
17778256245
17778261128
17778265278
17778274738
17778281819
17778288349
17778295185
17778301167
17778308003
17778314777
17778320210
17778326618
17778332966
17778338215
17778345783
17778350910
17778358234
17778364033
17778372700
17778377582
17778385517
17778390217
17778396503
17778402546
17778409321
17778414142
17778420795
17778425617
17778432209
17778438740
17778444050
17778448688
17778455097
17778461567
17778467731
17778473163
17778479694
17778484211
17778489887
17778496418
17778502887
17778508503
17778515338
17778522907
17778528217
17778534748
17778541828
17778546955
17778553302
17778560077
17778565875
17778571491
17778579120
17778585712
17778591388
17778594806
17778603778
17778607318
17778616168
17778619525
17778626544
17778632953
17778639056
17778645526
17778650897
17778658343
17778663898
17778670123
17778675067
17778682880
17778688800
17778694476
17778697894
17778706317
17778712970
17778718524
17778723468
17778730426
17778736285
17778744830
17778748126
17778756976
17778762225
17778769549
17778776446
17778780902
17778790057
17778796344
17778804217
17778809710
17778817340
17778822344
17778830218
17778835955
17778842547
17778849810
17778857012
17778862567
17778867938
17778871966
17778878008
17778884173
17778889910
17778896746
17778905474
17778912310
17778917681
17778924334
17778930987
17778936114
17778943682
17778949663
17778955523
17778961077
17778965655
17778970537
17778977373
17778982134
17778988604
17778995440
17779002337
17779008867
17779014910
17779020403
17779025225
17779029986
17779036516
17779042498
17779047991
17779052263
17779057695
17779063128
17779068377
17779073076
17779079607
17779085039
17779092363
17779097002
17779103411
17779108354
17779115007
17779120928
17779125505
17779134050
17779139360
17779144304
17779150835
17779156023
17779162004
17779167742
17779173296
17779180742
17779186113
17779189287
17779196916
17779201250
17779208818
17779213335
17779218462
17779225237
17779230669
17779236833
17779242082
17779248491
17779254045
17779259782
17779264360
17779270891
17779276140
17779283159
17779288774
17779295488
17779299943
17779306596
17779309770
17779318620
17779324968
17779332292
17779337663
17779342302
17779347673
17779353227
17779359208
17779364030
17779372331
17779378251
17779383805
17779390092
17779395585
17779401567
17779406938
17779414506
17779421403
17779426225
17779432511
17779438493
17779443376
17779448319
17779457414
17779464799
17779469499
17779476579
17779481400
17779488603
17779496110
17779500810
17779508805
17779514664
17779523087
17779530167
17779536210
17779541215
17779546891
17779554154
17779558060
17779565751
17779570939
17779577408
17779582657
17779590104
17779595170
17779601578
17779607804
17779613907
17779619278
17779625321
17779629349
17779635209
17779641556
17779646561
17779653458
17779658402
17779665238
17779670975
17779677201
17779681595
17779687271
17779692154
17779700699
17779706436
17779712540
17779717667
17779722733
17779727860
17779734452
17779739151
17779745804
17779752640
17779759537
17779765091
17779770584
17779775772
17779780838
17779786697
17779793900
17779799820
17779806839
17779811173
17779818558
17779823502
17779828751
17779834488
17779838577
17779845901
17779852249
17779857254
17779861587
17779868057
17779872696
17779879776
17779884537
17779889725
17779896744
17779902115
17779908767
17779914200
17779917251
