17684285721
17684291398
17684295548
17684301041
17684306473
17684311600
17684316117
17684321488
17684326615
17684332047
17684337357
17684342179
17684347184
17684352616
17684357804
17684362442
17684366776
17684373001
17684378189
17684383927
17684389237
17684394119
17684400955
17684407669
17684414200
17684420792
17684427872
17684433670
17684441116
17684448807
17684455582
17684462601
17684470047
17684477066
17684485245
17684491165
17684498306
17684506729
17684513565
17684521316
17684528702
17684533890
17684542557
17684549026
17684557144
17684564529
17684570327
17684580337
17684588150
17684594070
17684602676
17684609207
17684616226
17684624649
17684632583
17684639480
17684646621
17684654373
17684662124
17684669204
17684676895
17684684463
17684690627
17684699294
17684707046
17684715041
17684722366
17684728835
17684737746
17684745254
17684752883
17684760818
17684768569
17684775283
17684782180
17684790053
17684798965
17684805495
17684812820
17684819900
17684827529
17684835891
17684844497
17684851211
17684858107
17684867263
17684874343
17684880813
17684887954
17684896560
17684903640
17684911940
17684919692
17684925978
17684932631
17684941603
17684948622
17684956069
17684964614
17684972060
17684978957
17684985793
17684994338
17685002150
17685012709
17685020461
17685028273
17685034682
17685042189
17685049452
17685056960
17685066481
17685073683
17685080214
17685088454
17685094374
17685103346
17685111098
17685119704
17685127455
17685134596
17685141371
17685149183
17685158095
17685165480
17685176710
17685184462
17685192030
17685200087
17685209608
17685215834
17685223768
17685231764
17685240431
17685248365
17685256727
17685264479
17685272901
17685280531
17685287855
17685297559
17685305799
17685312269
17685323194
17685330213
17685337843
17685346876
17685354322
17685361341
17685368604
17685377271
17685383802
17685392652
17685401624
17685408765
17685415601
17685423536
17685432447
17685437757
17685446180
17685453687
17685461744
17685469495
17685477369
17685484571
17685489698
17685498792
17685505262
17685514722
17685522351
17685528455
17685536206
17685542737
17685551404
17685560437
17685568067
17685574780
17685582166
17685590650
17685596997
17685604443
17685611096
17685620740
17685628552
17685636548
17685644421
17685654370
17685661450
17685670239
17685676953
17685686108
17685694897
17685700574
17685709302
17685717175
17685725537
17685734448
17685742322
17685749768
17685757702
17685764721
17685773816
17685780835
17685789990
17685797009
17685803357
17685811291
17685819226
17685827526
17685835034
17685843273
17685850659
17685857739
17685862988
17685871166
17685878918
17685886852
17685894909
17685904675
17685913708
17685920727
17685929333
17685934948
17685942883
17685949657
17685957470
17685966686
17685972851
17685981151
17685989086
17685995922
17686002148
17686011486
17686018993
17686026012
17686034374
17686041210
17686048351
17686054393
17686064098
17686073742
17686080394
17686087291
17686096202
17686102489
17686111583
17686118724
17686126598
17686135265
17686141124
17686149669
17686156078
17686164928
17686172496
17686179698
17686188732
17686195812
17686201915
17686210582
17686216380
17686225475
17686234203
17686240977
17686248119
17686256175
17686262584
17686272105
17686280101
17686289195
17686297374
17686304088
17686312327
17686319285
17686326426
17686334361
17686342845
17686350169
17686357432
17686364695
17686373301
17686380504
17686386973
17686395396
17686403514
17686409739
17686418101
17686426158
17686433970
17686441233
17686449046
17686456614
17686463511
17686470713
17686477976
17686486094
17686494822
17686502451
17686509348
17686518015
17686524363
17686533152
17686542124
17686550669
17686557017
17686565684
17686574229
17686581187
17686588267
17686596384
17686606394
17686613291
17686625864
17686634592
17686647471
17686656748
17686666880
17686674814
17686682566
17686691660
17686699961
17686707712
17686720407
17686726816
17686733286
17686738779
17686744516
17686750986
17686756906
17686763620
17686769419
17686774912
17686781320
17686788278
17686794626
17686799265
17686806528
17686812875
17686820627
17686829233
17686836069
17686841623
17686847482
17686853159
17686859140
17686866342
17686872140
17686877145
17686883615
17686888681
17686893869
17686900583
17686907663
17686912240
17686918771
17686924447
17686929696
17686933725
17686940622
17686945871
17686952585
17686958627
17686964486
17686968515
17686974618
17686980783
17686986581
17686993783
17687001229
17687007333
17687012094
17687018624
17687024850
17687030648
17687037179
17687041879
17687048776
17687054330
17687059274
17687065194
17687071298
17687077218
17687083077
17687088448
17687092782
17687098580
17687104195
17687109506
17687116708
17687122384
17687127450
17687133370
17687139840
17687145333
17687150948
17687157540
17687163949
17687168282
17687174569
17687180489
17687185616
17687192757
17687199959
17687207406
17687214364
17687221322
17687226815
17687235787
17687242135
17687247811
17687255929
17687262337
17687267098
17687273385
17687279854
17687284066
17687289986
17687294075
17687300423
17687307015
17687312691
17687318795
17687324471
17687328987
17687336006
17687341744
17687347786
17687352730
17687357613
17687362313
17687368477
17687374153
17687381172
17687386604
17687392220
17687397347
17687402718
17687407845
17687413582
17687419197
17687425850
17687431038
17687435982
17687442513
17687447823
17687453316
17687459236
17687465462
17687469429
17687475410
17687479744
17687486275
17687492012
17687499214
17687504707
17687510322
17687515693
17687520759
17687525825
17687531257
17687538643
17687544624
17687549629
17687554756
17687560798
17687565254
17687571357
17687578621
17687584602
17687589912
17687594978
17687600044
17687605781
17687611030
17687615852
17687622993
17687627204
17687633308
17687638008
17687644477
17687650581
17687655403
17687660713
17687666999
17687674629
17687679939
17687686775
17687690437
17687697151
17687702766
17687709541
17687715217
17687720222
17687729072
17687736579
17687745856
17687750556
17687758552
17687766303
17687772224
17687779731
17687786017
17687792304
17687798286
17687804572
17687810004
17687814948
17687820197
17687825812
17687832953
17687838263
17687844733
17687850287
17687856513
17687860724
17687866889
17687872809
17687877021
17687882026
17687888556
17687894294
17687901252
17687906745
17687912299
17687917792
17687922553
17687929511
17687933905
17687940619
17687945563
17687950385
17687955329
17687961554
17687967108
17687973578
17687979254
17687985175
17687990607
17687995734
17688000800
17688006781
17688012030
17688018256
17688023566
17688029608
17688034796
17688040717
17688047003
17688052252
17688057867
17688063544
17688070013
17688075751
17688081549
17688088812
17688094671
17688101019
17688106085
17688112860
17688117560
17688124457
17688129889
17688136908
17688141913
17688148077
17688153875
17688159796
17688165960
17688172186
17688178656
17688184759
17688191046
17688197271
17688202337
17688208319
17688214971
17688220953
17688227178
17688233953
17688238470
17688246710
17688255621
17688261541
17688269293
17688275762
17688282598
17688289678
17688296819
17688306524
17688312200
17688318548
17688324651
17688331243
17688337835
17688343755
17688349798
17688355657
17688362310
17688367803
17688375005
17688379949
17688386541
17688392705
17688399358
17688405034
17688410467
17688417180
17688423650
17688428777
17688435796
17688441289
17688445623
17688452581
17688459295
17688466497
17688471624
17688478765
17688483098
17688489629
17688496221
17688502019
17688509221
17688514531
17688520818
17688526555
17688533330
17688539800
17688548039
17688555486
17688562322
17688568608
17688574773
17688581181
17688586919
17688593633
17688599370
17688606389
17688611882
17688620061
17688625981
17688632207
17688637517
17688644231
17688649480
17688656926
17688662663
17688668950
17688675114
17688680852
17688686162
17688691960
17688698308
17688703129
17688709355
17688715581
17688720402
17688728093
17688733098
17688738347
17688744755
17688750004
17688755619
17688765690
17688771611
17688777775
17688785466
17688794011
17688800907
17688807499
17688814884
17688820683
17688827580
17688835148
17688841191
17688847294
17688853520
17688859379
17688864811
17688871037
17688877689
17688883366
17688888615
17688894718
17688900944
17688905521
17688911747
17688917179
17688923588
17688930546
17688936100
17688941471
17688947880
17688953251
17688959293
17688966373
17688971439
17688978275
17688984501
17688991031
17688997623
17689002140
17689008976
17689013614
17689020267
17689026371
17689031742
17689037845
17689044803
17689049259
17689056217
17689062381
17689067875
17689073307
17689079837
17689084720
17689090946
17689096805
17689102603
17689108036
17689113712
17689119388
17689125247
17689132144
17689136905
17689142276
17689148258
17689154178
17689159244
17689165958
17689172000
17689177921
17689183414
17689189273
17689195743
17689201907
17689207095
17689212650
17689217593
17689222476
17689229007
17689234073
17689240359
17689245303
17689251590
17689256961
17689261111
17689269229
17689272891
17689281375
17689286563
17689291263
17689295840
17689302249
17689308841
17689315616
17689321780
17689328555
17689336184
17689342532
17689349368
17689361453
17689367068
17689374453
17689380496
17689386538
17689393924
17689397891
17689404788
17689410952
17689417422
17689422305
17689428530
17689434634
17689438967
17689446169
17689450930
17689457949
17689464114
17689469424
17689475710
17689481143
17689486514
17689493411
17689499819
17689504946
17689511477
17689518252
17689523135
17689530093
17689536684
17689542544
17689547793
17689553713
17689560488
17689566225
17689571963
17689577883
17689583376
17689588442
17689595095
17689601626
17689606630
17689612246
17689618899
17689623476
17689629885
17689636660
17689642519
17689648989
17689653200
17689659487
17689666140
17689671572
17689677370
17689684450
17689689211
17689695986
17689700563
17689707399
17689713259
17689720156
17689727114
17689732851
17689738222
17689743288
17689750002
17689754946
17689762209
17689768190
17689774660
17689781069
17689787599
17689793214
17689799074
17689804384
17689811220
17689817506
17689824098
17689829347
17689834474
17689840089
17689847169
17689852235
17689858583
17689865053
17689870302
17689878175
17689884218
17689890382
17689900331
17689904786
17689913392
17689919618
17689925538
17689932679
17689938417
17689944948
17689950197
17689956056
17689963807
17689969300
17689975465
17689980836
17689987306
17689994264
17689999330
17690005983
17690011415
17690017640
17690022462
17690028993
17690035768
17690040040
17690045777
17690052125
17690059876
17690065064
17690070435
17690076844
17690083497
17690088258
17690095338
17690101319
17690106385
17690112855
17690117799
17690123780
17690130311
17690135499
17690141602
17690148133
17690152528
17690158875
17690166749
17690172303
17690177369
17690184083
17690189759
17690195984
17690201905
17690208985
17690214905
17690221924
17690227234
17690233155
17690238892
17690244263
17690251099
17690257691
17690263794
17690268311
17690274598
17690279908
17690286133
17690292481
17690299378
17690304749
17690310608
17690316101
17690322754
17690328491
17690334107
17690341004
17690346436
17690353028
17690357300
17690363831
17690370545
17690374878
17690381348
17690389038
17690395691
17690400940
17690406433
17690412964
17690418030
17690424988
17690430359
17690436340
17690443176
17690449097
17690456543
17690463745
17690468567
17690475647
17690483703
17690489807
17690499817
17690506347
17690511413
17690518249
17690523254
17690528381
17690536071
17690541687
17690546081
17690554504
17690560119
17690566650
17690571228
17690578064
17690583740
17690590026
17690595703
17690601379
17690605651
17690612487
17690619323
17690626892
17690635864
17690648559
17690659057
17690669433
17690677184
17690685607
17690693298
17690700744
17690711303
17690717162
17690723266
17690730834
17690736205
17690741881
17690747253
17690752929
17690758910
17690764403
17690770324
17690776610
17690782287
17690787231
17690793700
17690800719
17690805785
17690813903
17690820495
17690827025
17690830626
17690838683
17690845763
17690852172
17690857787
17690862120
17690870055
17690876891
17690881835
17690888793
17690893737
17690899535
17690906737
17690912291
17690921385
17690927794
17690938780
17690945372
17690957396
17690966612
17690975218
17690984374
17690993102
17690999815
17691005125
17691011595
17691016417
17691025084
17691037474
17691048399
17691055540
17691065001
17691070128
17691079222
17691086851
17691094359
17691100584
17691105894
17691111754
17691116453
17691122740
17691130369
17691135252
17691142088
17691147886
17691154173
17691160154
17691166075
17691171568
17691178526
17691185057
17691186460
17691196287
17691202757
17691208189
17691214292
17691221067
17691227049
17691233152
17691238523
17691245603
17691250791
17691255796
17691262510
17691268614
17691274778
17691281431
17691286131
17691293943
17691298948
17691305601
17691311094
17691317808
17691323606
17691329465
17691334653
17691340879
17691347654
17691354917
17691359800
17691365171
17691371580
17691378354
17691383237
17691389951
17691395994
17691401914
17691407590
17691413816
17691418943
17691424436
17691431394
17691436460
17691442624
17691447446
17691453428
17691459714
17691465390
17691472043
17691478269
17691484494
17691489438
17691495908
17691502927
17691507993
17691515195
17691521176
17691527036
17691531735
17691538205
17691543210
17691549985
17691555478
17691562314
17691568845
17691575253
17691585202
17691591184
17691596799
17691604550
17691614560
17691620785
17691626157
17691631345
17691637570
17691643429
17691650143
17691656613
17691663205
17691668576
17691674801
17691680050
17691685483
17691692380
17691697384
17691704464
17691709469
17691716000
17691721005
17691727170
17691732907
17691739254
17691745846
17691750058
17691757321
17691763791
17691769406
17691774777
17691781369
17691785763
17691792294
17691797177
17691804623
17691811459
17691816647
17691822262
17691828366
17691835629
17691839840
17691846493
17691853085
17691858761
17691864681
17691869930
17691876705
17691882992
17691887814
17691894344
17691900082
17691905941
17691911556
17691915890
17691923580
17691929867
17691935543
17691941463
17691946896
17691952755
17691958553
17691965267
17691971493
17691976803
17691981991
17691988766
17691994076
17691998226
17692005550
17692010799
17692017208
17692022152
17692027950
17692032833
17692038936
17692043575
17692051387
17692055538
17692060604
17692066402
17692076473
17692081478
17692086483
17692093380
17692099544
17692104732
17692112239
17692118648
17692125972
17692133418
17692140010
17692146358
17692156490
17692162227
17692169795
17692176814
17692183894
17692189327
17692195857
17692202327
17692206844
17692214290
17692220760
17692226802
17692231319
17692237544
17692243159
17692249568
17692255794
17692260921
17692267085
17692273311
17692279048
17692285457
17692291133
17692298091
17692303462
17692309565
17692314998
17692320857
17692326411
17692332637
17692340327
17692345820
17692350642
17692357478
17692363642
17692369258
17692375544
17692382075
17692387995
17692393305
17692398432
17692406306
17692411433
17692418879
17692423518
17692429682
17692435603
17692441950
17692447321
17692453364
17692458857
17692464900
17692473994
17692479060
17692485957
17692490900
17692497248
17692504450
17692509638
17692516535
17692522883
17692527766
17692533259
17692539362
17692545832
17692551447
17692556818
17692563715
17692569025
17692576410
17692582880
17692588495
17692594050
17692600886
17692606074
17692612360
17692618403
17692624872
17692633295
17692640497
17692648737
17692656610
17692663202
17692669916
17692677362
17692683649
17692689691
17692695429
17692702753
17692707636
17692714289
17692720758
17692725397
17692731134
17692735040
17692741571
17692746698
17692752191
17692758844
17692764520
17692768976
17692774225
17692780817
17692786554
17692792108
17692796930
17692802179
17692806940
17692811578
17692816644
17692822382
17692828363
17692834283
17692839471
17692844781
17692850763
17692856256
17692864068
17692872735
17692878412
17692885309
17692892267
17692898797
17692904779
17692911554
17692917352
17692922906
17692928338
17692934137
17692938775
17692946405
17692952630
17692958612
17692965081
17692971551
17692977655
17692983209
17692988763
17692995660
17693003961
17693008721
17693015130
17693021844
17693026544
17693031426
17693037225
17693043328
17693048882
17693055474
17693061700
17693068780
17693074029
17693080621
17693084527
17693090630
17693097344
17693101922
17693108331
17693119805
17693124139
17693130608
17693142144
17693147576
17693155572
17693162224
17693169060
17693175652
17693182915
17693187859
17693195305
17693200371
17693205437
17693211174
17693218132
17693223137
17693228997
17693235283
17693240960
17693246453
17693252556
17693257866
17693263726
17693270134
17693274407
17693280937
17693286187
17693292046
17693297173
17693303215
17693309624
17693315300
17693322197
17693327202
17693332939
17693339348
17693344597
17693350090
17693356804
17693362541
17693367851
17693373344
17693379997
17693386650
17693391838
17693397453
17693403740
17693408684
17693414909
17693421440
17693427421
17693432976
17693439506
17693444328
17693449760
17693455437
17693462700
17693467949
17693474846
17693479851
17693485893
17693490837
17693496208
17693503593
17693508842
17693513664
17693518425
17693525261
17693530143
17693535392
17693542411
17693548027
17693553276
17693558952
17693564628
17693571159
17693576774
17693581779
17693587577
17693594169
17693598991
17693605033
17693609916
17693616752
17693624870
17693632499
17693639701
17693645744
17693651969
17693659354
17693666557
17693674003
17693680045
17693686210
17693692313
17693698234
17693704398
17693709281
17693715202
17693721854
17693726615
17693732352
17693736991
17693743522
17693749747
17693755668
17693762198
17693767631
17693773246
17693779960
17693786185
17693793021
17693797904
17693804313
17693809317
17693815726
17693821647
17693828666
17693833426
17693838431
17693844596
17693851004
17693855216
17693861686
17693866324
17693873587
17693878348
17693885001
17693889579
17693895621
17693901969
17693907767
17693912528
17693918387
17693923758
17693929679
17693934866
17693941275
17693947806
17693952261
17693959219
17693965201
17693971182
17693976614
17693981741
17693987784
17693992789
17693999625
17694005362
17694011526
17694016653
17694023001
17694030081
17694037894
17694042471
17694050223
17694054922
17694060293
17694067373
17694073721
17694080008
17694086233
17694091421
17694098196
17694103506
17694110891
17694115591
17694121634
17694127737
17694131582
17694140554
17694146475
17694153006
17694160452
17694166983
17694174124
17694179434
17694186819
17694192129
17694200430
17694205618
17694210745
17694218191
17694224539
17694230337
17694234365
17694241018
17694246084
17694252737
17694258840
17694264333
17694269643
17694276235
17694281911
17694286733
17694291921
17694298025
17694304189
17694309255
17694314382
17694320913
17694327322
17694333791
17694339223
17694345144
17694350332
17694354604
17694360891
17694368276
17694374135
17694379262
17694385976
17694391530
17694398305
17694405019
17694410390
17694416433
17694422170
17694427907
17694433706
17694439138
17694446889
17694452138
17694456288
17694462697
17694468801
17694473989
17694479726
17694485829
17694491506
17694497670
17694501943
17694508901
17694514760
17694520009
17694525624
17694530995
17694537221
17694541676
17694548329
17694554555
17694559743
17694564931
17694572011
17694576833
17694583180
17694589162
17694593861
17694599721
17694605397
17694612904
17694619252
17694624196
17694629811
17694634572
17694641896
17694646779
17694655690
17694662587
17694670399
17694679432
17694686574
17694692677
17694700245
17694708302
17694714039
17694719838
17694726796
17694733204
17694739247
17694745289
17694751393
17694758351
17694761158
17694769337
17694774586
17694779347
17694784901
17694790272
17694797047
17694802540
17694807911
17694812855
17694820118
17694825733
17694831410
17694835255
17694842701
17694849293
17694855335
17694860523
17694866444
17694871571
17694876942
17694881519
17694889027
17694895496
17694901234
17694906422
17694911426
17694916492
17694922291
17694929188
17694933521
17694940052
17694945423
17694951465
17694957752
17694962696
17694969410
17694975330
17694981006
17694986561
17694992298
17694996631
17695004383
17695009266
17695015674
17695021900
17695027942
17695031849
17695038013
17695044849
17695051319
17695057178
17695062793
17695069324
17695075672
17695082813
17695088184
17695094593
17695100452
17695107715
17695114185
17695119983
17695125232
17695130542
17695137378
17695143726
17695149036
17695155261
17695161060
17695170154
17695177356
17695186755
17695192859
17695200061
17695208484
17695217151
17695224109
17695230151
17695235278
17695240710
17695247912
17695253528
17695260913
17695266467
17695273059
17695279345
17695283984
17695289050
17695295092
17695299670
17695307849
17695313342
17695318713
17695323718
17695330798
17695338366
17695344104
17695348803
17695355395
17695360278
17695366015
17695371264
17695377307
17695382250
17695389575
17695395068
17695400988
17695406176
17695410571
17695417162
17695422839
17695428637
17695434008
17695439929
17695444872
17695449511
17695454638
17695461047
17695465502
17695472826
17695478442
17695482470
17695488512
17695493945
17695499621
17695504992
17695511401
17695517138
17695523852
17695528307
17695534289
17695541979
17695547594
17695552660
17695558031
17695563646
17695569750
17695575670
17695582689
17695587938
17695592760
17695600267
17695605639
17695611437
17695615648
17695622728
17695628649
17695633532
17695641039
17695646593
17695651964
17695657640
17695662767
17695667711
17695674547
17695678514
17695686327
17695695543
17695702867
17695706957
17695715990
17695724413
17695732469
17695741686
17695747911
17695754503
17695759569
17695766588
17695771593
17695778307
17695782701
17695790880
17695795885
17695801378
17695807848
17695815172
17695819627
17695826463
17695831529
17695837450
17695843431
17695848070
17695854783
17695859544
17695867662
17695872423
17695877427
17695882310
17695888719
17695893297
17695901048
17695907823
17695913316
17695918138
17695924302
17695929063
17695934800
17695939866
17695945970
17695951829
17695957933
17695963914
17695970018
17695975328
17695980699
17695985826
17695990464
17695997239
17696001634
17696006272
17696012681
17696017930
17696024034
17696030869
17696036546
17696043137
17696048814
17696054917
17696060960
17696065537
17696071702
17696077439
17696084092
17696089707
17696095567
17696101792
17696107285
17696113816
17696121201
17696126084
17696132981
17696138840
17696145188
17696149827
17696156602
17696163743
17696167405
17696175156
17696180344
17696186265
17696192795
17696199448
17696204514
17696212204
17696218552
17696225388
17696233567
17696240525
17696251999
17696261399
17696269577
17696278061
17696285752
17696291489
17696297287
17696304550
17696310166
17696316208
17696323776
17696329575
17696335678
17696341293
17696347275
17696353378
17696359238
17696365280
17696371017
17696378891
17696384933
17696391830
17696396896
17696404587
17696410629
17696416611
17696421615
17696426376
17696434006
17696439621
17696445541
17696452316
17696458908
17696465683
17696472397
17696478012
17696483688
17696490829
17696495834
17696502609
17696507980
17696516159
17696522812
17696528610
17696532882
17696540206
17696544784
17696551620
17696557052
17696561874
17696568283
17696574264
17696580490
17696585922
17696591537
17696596359
17696602401
17696609115
17696614608
17696620956
17696627853
17696634322
17696639633
17696646346
17696652816
17696659591
17696664596
17696671493
17696677901
17696684676
17696690841
17696698043
17696705489
17696712447
17696721053
17696727462
17696736251
17696743636
17696749984
17696756331
17696764266
17696770797
17696777755
17696782393
17696787887
17696792891
17696798873
17696804183
17696810653
17696815352
17696820113
17696826094
17696831588
17696837142
17696842818
17696848433
17696854476
17696860091
17696864302
17696870528
17696879195
17696888899
17696896102
17696904708
17696913619
17696922286
17696929793
17696938216
17696948103
17696957015
17696966231
17696976668
17696985152
17696994002
17697002180
17697011458
17697020430
17697029097
17697036787
17697047163
17697054426
17697061690
17697070845
17697080183
17697088606
17697097639
17697106123
17697116011
17697124617
17697134565
17697144514
17697152815
17697161604
17697169660
17697178755
17697187055
17697196272
17697205061
17697213972
17697221235
17697229963
17697238142
17697247419
17697257185
17697266157
17697273969
17697283002
17697293256
17697299848
17697309125
17697316267
17697325666
17697334455
17697343915
17697352033
17697359723
17697369855
17697378522
17697390241
17697398664
17697409040
17697417585
17697427533
17697435285
17697444196
17697454206
17697463422
17697470258
17697480390
17697488263
17697499310
17697508710
17697515851
17697524213
17697533734
17697542951
17697551679
17697559796
17697568280
17697576276
17697584088
17697594220
17697601483
17697610882
17697619244
17697627789
17697635724
17697646222
17697656293
17697663739
17697672833
17697681805
17697689312
17697698285
17697706097
17697715191
17697723614
17697731610
17697743389
17697751507
17697759136
17697766583
17697774761
17697783306
17697790997
17697799664
17697808087
17697815777
17697824200
17697832317
17697839642
17697847515
17697856182
17697864849
17697873943
17697881756
17697890972
17697899212
17697907818
17697916790
17697925640
17697933330
17697943462
17697952129
17697961590
17697968609
17697978252
17697988445
17697997417
17698005474
17698013164
17698022625
17698032207
17698041606
17698050640
17698056743
17698065776
17698076457
17698084514
17698093242
17698101177
17698111064
17698118327
17698127849
17698137248
17698145122
17698152812
17698161174
17698169048
17698177898
17698185527
17698194743
17698202129
17698210002
17698218791
17698224162
17698235454
17698242595
17698251994
17698260478
17698268779
17698276469
17698284465
17698292704
17698299418
17698306315
17698311137
17698317179
17698323222
17698328898
17698335063
17698339762
17698346171
17698352458
17698357707
17698363810
17698369548
17698375102
17698380778
17698389201
17698394755
17698400004
17698405375
17698411295
17698415690
17698422160
17698427714
17698434672
17698440531
17698444376
17698450175
17698455912
17698463358
17698469584
17698475260
17698480936
17698486002
17698491679
17698496561
17698503214
17698510660
17698516703
17698524332
17698529703
17698534891
17698542399
17698548624
17698554361
17698559855
17698564615
17698570109
17698577494
17698582987
17698589029
17698595072
17698599894
17698605387
17698610758
17698617838
17698623026
17698629374
17698634500
17698639994
17698645487
17698651590
17698656290
17698662638
17698668314
17698673868
17698680033
17698685953
17698692667
17698699930
17698704935
17698711954
17698716287
17698725198
17698730509
17698735696
17698743936
17698750040
17698753885
17698760172
17698766092
17698772073
17698778238
17698784586
17698790567
17698794412
17698800333
17698805643
17698811746
17698817483
17698824563
17698831033
17698836893
17698842325
17698847329
17698853250
17698858682
17698864541
17698870950
17698876870
17698883157
17698887491
17698893106
17698899514
17698904702
17698911782
17698917886
17698922525
17698928872
17698934365
17698938516
17698945230
17698951821
17698957498
17698963479
17698968911
17698973489
17698981301
17698987283
17698993081
17698999307
17699005410
17699010720
17699015542
17699021768
17699028359
17699034341
17699039346
17699044900
17699050759
17699056008
17699063638
17699069070
17699074136
17699080239
17699084695
17699091469
17699097634
17699103982
17699110085
17699115822
17699121499
17699126931
17699133706
17699140053
17699146157
17699152810
17699157387
17699162026
17699168190
17699174599
17699184243
17699191262
17699196267
17699203530
17699209511
17699215432
17699223793
17699229287
17699237221
17699242958
17699249855
17699256325
17699262429
17699268044
17699273415
17699279396
17699284340
17699290932
17699295387
17699302773
17699309059
17699314491
17699321205
17699327919
17699334267
17699339638
17699345009
17699352516
17699358009
17699363502
17699369789
17699377113
17699381996
17699388283
17699393410
17699398720
17699406654
17699411110
17699417396
17699422829
17699429298
17699435951
17699440346
17699446937
17699452064
17699458107
17699464760
17699469703
17699474464
17699480751
17699485939
17699492347
17699496925
17699502845
17699508766
17699514320
17699520118
17699526649
17699532569
17699537574
17699543922
17699549110
17699555397
17699561805
17699567481
17699573158
17699579566
17699585060
17699590980
17699595863
17699601966
17699609168
17699614295
17699620216
17699625892
17699630409
17699636573
17699642493
17699648963
17699655250
17699660621
17699666724
17699672279
17699679481
17699689735
17699694800
17699701881
17699707740
17699714210
17699720252
17699726905
17699733253
17699739356
17699744117
17699751624
17699756324
17699762610
17699768470
17699777137
17699782996
17699789039
17699795325
17699800391
17699806678
17699812659
17699819251
17699824134
17699829200
17699835059
17699840430
17699846472
17699853553
17699858924
17699864234
17699870032
17699875830
17699883093
17699888526
17699895361
17699900061
17699907874
17699913245
17699919348
17699927039
17699932166
17699938391
17699944678
17699950354
17699956641
17699962683
17699969275
17699975012
17699981238
17699986487
17699991675
17699998877
17700004736
17700010229
17700016150
17700021765
17700026892
17700033301
17700038855
17700044165
17700051977
17700057043
17700062903
17700067602
17700073889
17700078589
17700085302
17700090918
17700097387
17700102270
17700108007
17700114111
17700118566
17700125769
17700132482
17700137182
17700142919
17700148657
17700155187
17700161840
17700166357
17700174352
17700180334
17700186437
17700193273
17700200048
17700205480
17700211828
17700217565
17700222570
17700229162
17700234960
17700240148
17700247045
17700251745
17700259069
17700263586
17700268774
17700275915
17700281225
17700286230
17700291662
17700299169
17700304052
17700311071
17700316869
17700322057
17700328405
17700333043
17700341588
17700347448
17700352758
17700357457
17700364538
17700370702
17700375890
17700382116
17700388707
17700393651
17700400731
17700406713
17700411962
17700417699
17700422704
17700428319
17700433812
17700439183
17700446080
17700452916
17700459020
17700463841
17700468785
17700474278
17700480626
17700486913
17700492040
17700497228
17700503453
17700508946
17700514806
17700522069
17700527013
17700532994
17700539342
17700543492
17700549840
17700557042
17700563512
17700568578
17700576756
17700583470
17700588780
17700595067
17700601109
17700606236
17700612767
17700617894
17700621983
17700628880
17700633946
17700640660
17700645543
17700651036
17700657078
17700664586
17700670506
17700677952
17700685460
17700692295
17700698643
17700703770
17700711460
17700717503
17700725437
17700731785
17700739048
17700744297
17700750645
17700756565
17700761143
17700768101
17700773655
17700780308
17700786106
17700792759
17700799290
17700804417
17700811680
17700816197
17700822910
17700828281
17700835850
17700841160
17700847691
17700852085
17700857456
17700864475
17700870457
17700875217
17700881748
17700887546
17700893772
17700898228
17700904880
17700909763
17700915867
17700922153
17700927646
17700933323
17700938205
17700945408
17700949863
17700957004
17700966343
17700971531
17700977756
17700984043
17700989231
17700994663
17700999546
17701006382
17701011020
17701017002
17701023288
17701028537
17701034641
17701042270
17701046604
17701051547
17701058505
17701064487
17701070041
17701075351
17701081699
17701087009
17701092441
17701098178
17701105075
17701110935
17701117038
17701123019
17701129123
17701134982
17701140842
17701145786
17701152499
17701159640
17701164828
17701171420
17701181796
17701191928
17701199130
17701206088
17701213473
17701222201
17701229709
17701235812
17701241916
17701247226
17701253024
17701258822
17701266574
17701271151
17701277743
17701282626
17701288119
17701294650
17701299166
17701305331
17701312167
17701318454
17701324008
17701330905
17701336581
17701341647
17701346591
17701352267
17701359957
17701364962
17701370700
17701376254
17701382907
17701388644
17701393588
17701398837
17701405184
17701410189
17701416842
17701422274
17701426730
17701432162
17701439181
17701445650
17701451510
17701457735
17701462923
17701469149
17701474337
17701481783
17701489840
17701496004
17701501131
17701509615
17701514864
17701521761
17701528780
17701535372
17701540743
17701546663
17701551790
17701557039
17701563326
17701570284
17701576387
17701581820
17701588350
17701592318
17701598726
17701603243
17701610079
17701616121
17701621675
17701627047
17701633272
17701638887
17701644991
17701651033
17701657198
17701662874
17701668733
17701674593
17701681246
17701687410
17701693453
17701701387
17701712801
17701717195
17701725191
17701731722
17701737581
17701744722
17701752534
17701759553
17701764436
17701770601
17701776765
17701781465
17701787935
17701794771
17701800996
17701806489
17701812776
17701818574
17701822847
17701830476
17701836152
17701841768
17701847810
17701853303
17701859041
17701866243
17701871797
17701878022
17701883332
17701889619
17701894380
17701900727
17701906892
17701912812
17701918244
17701924775
17701930513
17701935090
17701943574
17701948213
17701954865
17701959748
17701966523
17701971833
17701978425
17701984712
17701988984
17701994721
17702000886
17702006867
17702012971
17702019685
17702025544
17702031403
17702037263
17702043793
17702049226
17702056123
17702063081
17702067292
17702073823
17702079682
17702086579
17702091218
17702097993
17702103913
17702110016
17702115754
17702120087
17702126557
17702132294
17702137421
17702144745
17702150971
17702156281
17702162629
17702169220
17702175019
17702180695
17702188446
17702193634
17702200592
17702205902
17702211823
17702218232
17702225006
17702232392
17702239228
17702245026
17702252289
17702258515
17702263581
17702270233
17702276886
17702283173
17702292023
17702299652
17702304962
17702311981
17702317596
17702324249
17702331635
17702335785
17702341888
17702347870
17702354523
17702360199
17702365509
17702371307
17702378448
17702383148
17702389984
17702396332
17702401337
17702406891
17702413238
17702418365
17702424896
17702431671
17702437042
17702442474
17702446991
17702455536
17702461517
17702468170
17702473236
17702480316
17702485626
17702491668
17702497406
17702502227
17702509002
17702513336
17702520477
17702526519
17702533172
17702538116
17702543853
17702550079
17702556854
17702562896
17702569000
17702573272
17702579437
17702585906
17702592681
17702598174
17702603851
17702610259
17702615691
17702622466
17702627044
17702635955
17702641326
17702646331
17702652923
17702658233
17702664153
17702670196
17702678435
17702683806
17702689300
17702695647
17702701263
17702707549
17702713103
17702719634
17702725249
17702731780
17702737029
17702743071
17702748015
17702753692
17702760833
17702767363
17702771697
17702779754
17702784331
17702791289
17702796233
17702803252
17702810759
17702817900
17702824431
17702832366
17702838408
17702844512
17702853057
17702858794
17702865813
17702871733
17702877471
17702883574
17702889617
17702894866
17702900847
17702907561
17702912322
17702919157
17702924956
17702930876
17702937285
17702942717
17702949370
17702955595
17702961272
17702967619
17702972746
17702979033
17702984770
17702991118
17702998137
17703004179
17703009611
17703015104
17703020598
17703026518
17703033720
17703040434
17703045500
17703050993
17703057158
17703062346
17703068876
17703075529
17703081633
17703086943
17703092924
17703098417
17703105009
17703110868
17703117521
17703122892
17703129728
17703134794
17703141508
17703146879
17703153105
17703159330
17703164762
17703170988
17703176481
17703183683
17703188932
17703194608
17703199979
17703206876
17703213590
17703219633
17703225858
17703232450
17703236967
17703243742
17703249784
17703255277
17703262296
17703268522
17703274076
17703280485
17703287015
17703293302
17703300199
17703305082
17703311613
17703317777
17703322660
17703328458
17703335172
17703342252
17703348295
17703353421
17703359647
17703365018
17703369657
17703377469
17703381864
17703391324
17703398770
17703405484
17703411649
17703418607
17703423795
17703430387
17703437528
17703443631
17703450833
17703455838
17703462430
17703466763
17703473416
17703479825
17703484891
17703491483
17703497830
17703502408
17703508817
17703514249
17703520902
17703527676
17703533902
17703539639
17703545621
17703552212
17703558011
17703562955
17703568814
17703575650
17703581204
17703588650
17703593899
17703598233
17703605679
17703609952
17703616543
17703623562
17703629056
17703636258
17703642910
17703650296
17703657986
17703663723
17703667996
17703674710
17703681363
17703688565
17703693142
17703700344
17703706631
17703711819
17703719570
17703725003
17703729885
17703735440
17703740505
17703746609
17703751736
17703757473
17703764248
17703770535
17703775051
17703780056
17703785915
17703792935
17703798794
17703805203
17703811428
17703818081
17703824612
17703831326
17703836758
17703843716
17703849209
17703855495
17703860317
17703866177
17703873440
17703878628
17703882595
17703887966
17703892666
17703896572
17703901027
17703904445
17703909023
17703914211
17703920131
17703924770
17703930629
17703935268
17703941066
17703947170
17703953151
17703957607
17703962978
17703967861
17703973049
17703977871
17703982570
17703987270
17703991359
17703996303
17704002040
17704006191
17704011684
17704015224
17704020229
17704024074
17704028713
17704033351
17704037319
17704042690
17704046047
17704050441
17704054958
17704060085
17704065517
17704071437
17704075343
17704081203
17704085903
17704089565
17704095241
17704100917
17704106227
17704111598
17704116054
17704118434
17704124416
17704129543
17704135646
17704139613
17704145229
17704149928
17704153529
17704158046
17704161952
17704166835
17704171352
17704176967
17704181056
17704186793
17704191127
17704196315
17704202601
17704206691
17704211329
17704216090
17704220851
17704225429
17704229396
17704233851
17704238246
17704244105
17704248622
17704252894
17704257472
17704261866
17704266017
17704271998
17704277125
17704281947
17704286280
17704289637
17704294825
17704298304
17704303553
17704309657
17704314601
17704319300
17704323329
17704327174
17704331446
17704336207
17704340724
17704345545
17704349879
17704354762
17704358790
17704363734
17704370265
17704374598
17704380091
17704388209
17704393641
17704398036
17704402857
17704409022
17704414210
17704420008
17704424830
17704430262
17704435023
17704439722
17704445277
17704448511
17704454249
17704460718
17704467921
17704473475
17704479944
17704487879
17704493677
17704499537
17704504786
17704509607
17704514551
17704519190
17704523218
17704527430
17704531397
17704537378
17704541956
17704546656
17704551477
17704555994
17704560083
17704564539
17704569056
17704573572
17704578089
17704580835
17704587061
17704591883
17704595240
17704601526
17704605249
17704611353
17704616419
17704620691
17704624597
17704629785
17704633203
17704638574
17704644007
17704648340
17704652735
17704658106
17704661951
17704667688
17704671716
17704676050
17704681421
17704685999
17704690820
17704696924
17704702600
17704706567
17704710535
17704715540
17704722498
17704727136
17704732141
17704735803
17704740991
17704744897
17704750207
17704754663
17704760156
17704766809
17704772363
17704776330
17704780054
17704785547
17704790002
17704798364
17704803308
17704809411
17704813989
17704818933
17704824853
17704829736
17704834131
17704838830
17704845117
17704851587
17704855737
17704861963
17704867456
17704873315
17704880273
17704885400
17704893335
17704898278
17704904077
17704909631
17704914575
17704919458
17704924340
17704929162
17704934472
17704938439
17704943505
17704949853
17704954736
17704957177
17704963098
17704968713
17704973473
17704977929
17704983300
17704988122
17704994592
17704999963
17705003808
17705010827
17705016808
17705021691
17705025658
17705030175
17705036767
17705041100
17705047021
17705051659
17705058495
17705063439
17705067467
17705073632
17705079369
17705084984
17705088830
17705096459
17705102501
17705108544
17705113976
17705118737
17705123925
17705129967
17705135094
17705140282
17705145592
17705151452
17705157189
17705162682
17705167809
17705173119
17705178551
17705182396
17705190087
17705196434
17705201073
17705206261
17705210778
17705215599
17705222862
17705227013
17705232567
17705238365
17705244774
17705249657
17705255150
17705260460
17705265282
17705270470
17705275231
17705281029
17705287499
17705293053
17705298180
17705303062
17705309166
17705314110
17705319969
17705325829
17705331566
17705336876
17705342369
17705348656
17705354759
17705359032
17705364036
17705370933
17705378013
17705382835
17705387657
17705394005
17705400718
17705407860
17705412620
17705422386
17705429100
17705437828
17705443382
17705451500
17705457176
17705462974
17705470970
17705476524
17705482200
17705489219
17705493614
17705500511
17705504600
17705511009
17705516746
17705521324
17705526084
17705532371
17705536949
17705543357
17705549217
17705553977
17705559287
17705566245
17705573081
17705578636
17705585044
17705591636
17705595420
17705602561
17705610007
17705615318
17705621360
17705628562
17705634849
17705639915
17705646873
17705651694
17705657737
17705663962
17705669334
17705676414
17705680808
17705687583
17705691611
17705698203
17705702598
17705709556
17705714744
17705720725
17705725974
17705731833
17705737876
17705744040
17705748984
17705754783
17705761679
17705768393
17705774192
17705778647
17705783835
17705789572
17705795554
17705801047
17705808615
17705813559
17705821433
17705827475
17705832785
17705838095
17705843161
17705847922
17705855490
17705861899
17705868552
17705873557
17705879477
17705885458
17705891684
17705896445
17705901450
17705909201
17705913718
17705921225
17705926413
17705932150
17705938559
17705944174
17705949240
17705955588
17705960837
17705966696
17705972555
17705979330
17705984030
17705990011
17705995627
17706003073
17706008200
17706013937
17706021567
17706027609
17706034750
17706040731
17706048910
17706054281
17706060690
17706069723
17706075277
17706081015
17706085653
17706091146
17706096701
17706100729
17706108602
17706115194
17706119833
17706125143
17706131430
17706137716
17706142172
17706146261
17706153097
17706159384
17706165670
17706172079
17706177206
17706181112
17706189108
17706195394
17706202291
17706210775
17706217367
17706224386
17706231161
17706237081
17706241476
17706247152
17706253744
17706260091
17706265523
17706269613
17706278524
17706284566
17706289327
17706295736
17706300069
17706306661
17706312215
17706318502
17706323507
17706329976
17706335958
17706340535
17706345540
17706353414
17706358236
17706363607
17706369405
17706375631
17706382283
17706387715
17706391866
17706398458
17706407308
17706413411
17706416768
17706423543
17706428670
17706435567
17706441487
17706448140
17706454183
17706459310
17706464436
17706470906
17706477437
17706483540
17706488728
17706493611
17706500630
17706508321
17706513936
17706519856
17706526753
17706532246
17706537068
17706543294
17706547688
17706555623
17706559346
17706566548
17706572835
17706577962
17706586445
17706592244
17706598286
17706604329
17706610371
17706617939
17706623677
17706629536
17706634785
17706642903
17706650532
17706657978
17706662373
17706673664
17706679280
17706685932
17706693562
17706699726
17706706379
17706712422
17706717793
17706725056
17706730488
17706735432
17706740437
17706745991
17706752339
17706758076
17706763935
17706769489
17706776569
17706781025
17706785542
17706792011
17706798847
17706804523
17706810200
17706815022
17706821308
17706825947
17706832722
17706837910
17706842914
17706847736
17706853779
17706862690
17706868427
17706873127
17706878620
17706884357
17706889789
17706896259
17706901813
17706908649
17706913105
17706917499
17706924396
17706930195
17706935077
17706940937
17706946674
17706953815
17706959064
17706965961
17706970539
17706977130
17706982868
17706987873
17706992084
17706999286
17707004352
17707011127
17707016254
17707022418
17707028400
17707034564
17707041156
17707045307
17707052326
17707058124
17707063129
17707068622
17707073077
17707080646
17707085223
17707089618
17707097125
17707103656
17707108600
17707115985
17707120441
17707126910
17707132648
17707136859
17707142230
17707149432
17707154803
17707160296
17707167254
17707173175
17707178241
17707184039
17707189593
17707195758
17707201678
17707206744
17707213824
17707219745
17707225726
17707230853
17707236895
17707243853
17707251361
17707259967
17707265033
17707269183
17707277423
17707283526
17707289996
17707299456
17707303179
17707310565
17707314654
17707320086
17707327349
17707333636
17707338030
17707344439
17707348956
17707354693
17707360552
17707364947
17707371478
17707377886
17707382220
17707389117
17707393816
17707400164
17707404192
17707408953
17707414812
17707419207
17707426897
17707432391
17707439532
17707445208
17707450823
17707456682
17707462115
17707466204
17707473284
17707479204
17707484881
17707489275
17707496233
17707500139
17707507647
17707512407
17707518023
17707525225
17707531206
17707535906
17707541826
17707548174
17707553606
17707558001
17707562883
17707570208
17707576067
17707580889
17707586382
17707592607
17707598406
17707603838
17707610124
17707615557
17707621721
17707627336
17707633440
17707639116
17707643694
17707649370
17707655473
17707661516
17707667619
17707674455
17707679033
17707683977
17707689592
17707695818
17707699480
17707706682
17707710954
17707719255
17707723711
17707730485
17707736284
17707741289
17707748247
17707753801
17707761735
17707766740
17707772966
17707776323
17707784196
17707789079
17707794694
17707802385
17707809282
17707814287
17707821183
17707827897
17707831437
17707839616
17707847306
17707854325
17707862138
17707866960
17707873857
17707877702
17707886796
17707891008
17707898881
17707905351
17707913713
17707918839
17707923539
17707928422
17707934403
17707939042
17707944779
17707950944
17707956376
17707963029
17707969132
17707974015
17707981095
17707985368
17707992326
17707997392
17708003556
17708009782
17708015641
17708020463
17708026200
17708031449
17708037186
17708043046
17708049271
17708055070
17708061051
17708066361
17708071732
17708076066
17708082963
17708088883
17708096573
17708102128
17708110245
17708115616
17708122208
17708125504
17708133988
17708139298
17708146744
17708152359
17708157669
17708164139
17708170243
17708175003
17708180924
17708186844
17708190628
17708196976
17708202225
17708207901
17708213639
17708218949
17708224564
17708229447
17708233902
17708239823
17708244644
17708251541
17708256485
17708262955
17708268265
17708274002
17708279495
17708284561
17708293533
17708298111
17708302689
17708310074
17708314468
17708321182
17708326004
17708332901
17708337540
17708343155
17708349930
17708354568
17708360733
17708366775
17708371414
17708376541
17708382828
17708389114
17708393753
17708399185
17708405044
17708409012
17708415359
17708419937
17708427261
17708433487
17708440567
17708448379
17708451980
17708460464
17708466751
17708473281
17708481704
17708487075
17708491409
17708498794
17708503860
17708510452
17708516616
17708521621
17708526992
17708532852
17708537307
17708543350
17708547378
17708554397
17708558669
17708564163
17708569473
17708575332
17708582778
17708586868
17708594009
17708598647
17708604812
17708610915
17708617263
17708622390
17708628860
17708635390
17708640212
17708647170
17708651992
17708658156
17708662246
17708669875
17708673659
17708680984
17708686049
17708691970
17708697097
17708703933
17708709853
17708715712
17708721694
17708727492
17708733413
17708738295
17708743483
17708750502
17708755263
17708761550
17708766799
17708774367
17708779006
17708784194
17708790236
17708796462
17708801894
17708806594
17708812880
17708817702
17708823989
17708829543
17708835463
17708841445
17708845839
17708853407
17708857314
17708865859
17708872450
17708877272
17708882521
17708889662
17708895583
17708901076
17708905043
17708911269
17708917982
17708924086
17708929396
17708934706
17708939345
17708946425
17708951857
17708958998
17708967177
17708973280
17708976515
17708983961
17708990126
17708996412
17709001173
17709006422
17709012159
17709018812
17709024427
17709030958
17709036818
17709041456
17709048536
17709054457
17709061720
17709068190
17709075514
17709082411
17709089308
17709096144
17709102796
17709109266
17709115919
17709122572
17709128675
17709135206
17709139967
17709144605
17709152540
17709157240
17709164930
17709169996
17709175550
17709182691
17709187757
17709195448
17709201185
17709206861
17709213392
17709219129
17709225843
17709232008
17709238111
17709244215
17709247632
17709256055
17709260877
17709267164
17709274732
17709280225
17709285596
17709291883
17709299024
17709303113
17709310804
17709316297
17709322706
17709329175
17709335279
17709340467
17709347120
17709352735
17709358838
17709363782
17709369031
17709376966
17709381848
17709389112
17709393323
17709401624
17709405225
17709413037
17709418469
17709424634
17709431165
17709435681
17709440930
17709448621
17709453565
17709461011
17709466565
17709472913
17709478589
17709485425
17709490979
17709497998
17709504224
17709509290
17709517407
17709522412
17709528577
17709535718
17709542309
17709548901
17709554333
17709559582
17709567029
17709573071
17709580700
17709586316
17709592053
17709600232
17709606335
17709612744
17709619641
17709626843
17709633496
17709638440
17709649365
17709656872
17709665051
17709672497
17709679943
17709687573
17709703869
17709710827
17709719799
17709729809
17709738598
17709749767
17709756542
17709764355
17709777355
17709782604
17709794445
17709799938
17709809215
17709822155
17709828991
17709841564
17709853405
17709862133
17709869945
17709878185
17709886425
17709893017
17709899975
17709909557
17709915722
17709923168
17709929943
17709937389
17709945873
17709950512
17709961132
17709968517
17709974559
17709989269
17709995677
17710005504
17710010204
17710018443
17710022350
17710032359
17710039623
17710046336
17710055003
17710060985
17710067943
17710073497
17710079845
17710086314
17710092174
17710099071
17710105418
17710111278
17710115428
17710121837
17710127635
17710132640
17710139232
17710144786
17710151561
17710156505
17710161754
17710168529
17710173594
17710179088
17710186412
17710192393
17710198802
17710204051
17710208201
17710215037
17710220836
17710226268
17710231944
17710236155
17710242442
17710248606
17710254771
17710260997
17710266246
17710271678
17710276133
17710282542
17710288401
17710295603
17710301341
17710306956
17710313243
17710317942
17710324473
17710329905
17710336619
17710342661
17710347910
17710353831
17710360056
17710365916
17710372019
17710377940
17710385081
17710390269
17710396189
17710400950
17710406077
17710412608
17710418467
17710425120
17710431834
17710440073
17710449412
17710457346
17710466807
17710473459
17710480600
17710486216
17710495737
17710499033
17710508249
17710517038
17710523142
17710530588
17710535410
17710543467
17710551706
17710556589
17710563608
17710568979
17710576059
17710580637
17710587168
17710592661
17710597788
17710604990
17710608835
17710616220
17710622324
17710628366
17710633127
17710639291
17710645090
17710651193
17710656320
17710661569
17710667184
17710671091
17710675607
17710683847
17710689890
17710694467
17710698923
17710706125
17710710886
17710714548
17710719736
17710725717
17710731515
17710736886
17710743417
17710748056
17710753000
17710757821
17710764963
17710770028
17710775827
17710781198
17710786386
17710791757
17710797555
17710801889
17710808725
17710812448
17710818185
17710826425
17710832711
17710838266
17710842233
17710847299
17710852914
17710857675
17710863229
17710869760
17710874337
17710880380
17710886300
17710890634
17710894784
17710901498
17710905831
17710911874
17710917916
17710923348
17710927255
17710932809
17710938485
17710944405
17710949654
17710953744
17710960519
17710966439
17710971322
17710975350
17710982003
17710987252
17710992257
17711000130
17711006478
17711012215
17711018868
17711025277
17711031136
17711037728
17711043404
17711049264
17711053902
17711060921
17711065804
17711074227
17711080697
17711087655
17711094552
17711102242
17711108529
17711116707
17711123299
17711129342
17711135506
17711141426
17711147835
17711157173
17711163521
17711169686
17711175606
17711180367
17711184700
17711190621
17711194649
17711200386
17711207283
17711213265
17711218025
17711223702
17711228890
17711234383
17711239510
17711243111
17711248970
17711256050
17711260811
17711266243
17711271248
17711276558
17711281624
17711287483
17711292976
17711299202
17711304939
17711308723
17711313911
17711319405
17711325386
17711331184
17711336677
17711341804
17711349373
17711354988
17711359932
17711364082
17711369941
17711375007
17711380440
17711387459
17711392402
17711395454
17711402656
17711407051
17711411934
17711418892
17711424385
17711427681
17711434639
17711438789
17711444892
17711449714
17711455635
17711460578
17711466133
17711472358
17711478279
17711485237
17711490730
17711496223
17711501655
17711508247
17711513435
17711520088
17711524848
17711531562
17711537299
17711542548
17711547126
17711551887
17711557319
17711564765
17711572028
17711577338
17711583259
17711588447
17711593940
17711599433
17711603522
17711608894
17711614448
17711620185
17711626411
17711630866
17711635932
17711644294
17711652411
17711660285
17711667731
17711674201
17711681342
17711686774
17711694892
17711700568
17711708258
17711715339
17711721503
17711726569
17711732245
17711737616
17711743659
17711746711
17711752997
17711757758
17711763983
17711768744
17711774481
17711779181
17711784857
17711789984
17711795478
17711801276
17711808295
17711813178
17711821295
17711826972
17711832648
17711838019
17711843878
17711850165
17711856024
17711862128
17711867133
17711872748
17711876776
17711882697
17711888617
17711892218
17711899969
17711906561
17711912054
17711916205
17711920477
17711927496
17711931158
17711937689
17711942023
17711948553
17711952765
17711957586
17711961981
17711967291
17711972479
17711978460
17711985602
17711991156
17711996100
17712001837
17712007452
17712012640
17712017645
17712023748
17712029730
17712035955
17712041510
17712046881
17712051336
17712056890
17712061224
17712066717
17712071783
17712078070
17712082891
17712088140
17712095220
17712101568
17712105840
17712110418
17712116216
17712123296
17712128851
17712134771
17712141363
17712145818
17712152166
17712159307
17712165594
17712173406
17712179632
17712185430
17712191961
17712197210
17712201726
17712206731
17712213994
17712220037
17712226751
17712232366
17712239141
17712246404
17712253240
17712260320
17712267217
17712272954
17712279546
17712286199
17712294072
17712299382
17712305730
17712311895
17712316838
17712322087
17712327031
17712333013
17712336064
17712343084
17712347295
17712353398
17712358525
17712366094
17712370061
17712376775
17712380986
17712387761
17712391789
17712397283
17712404057
17712409917
17712414433
17712419682
17712425298
17712429753
17712436162
17712441594
17712447759
17712453069
17712459843
17712465092
17712470525
17712474736
17712479924
17712485051
17712491032
17712498906
17712504643
17712509526
17712515446
17712520146
17712525517
17712530278
17712535649
17712543095
17712549870
17712556645
17712562382
17712567448
17712574833
17712579899
17712586491
17712591313
17712596806
17712601506
17712607304
17712612675
17712617802
17712623234
17712627995
17712633183
17712640751
17712646611
17712651860
17712656010
17712662175
17712668400
17712672550
17712679142
17712685795
17712690983
17712695133
17712701603
17712705753
17712711003
17712717228
17712722904
17712729923
17712735294
17712739872
17712745853
17712748722
17712755070
17712761417
17712766178
17712773624
17712779911
17712784916
17712790836
17712796879
17712802311
17712809208
17712815372
17712822758
17712831119
17712839664
17712845951
17712852848
17712859562
17712866581
17712872623
17712877994
17712883854
17712889530
17712895694
17712901371
17712906681
17712913822
17712918949
17712924259
17712928897
17712935123
17712940555
17712946842
17712951969
17712958011
17712965152
17712969364
17712975345
17712980228
17712986576
17712989932
17712996158
17713000797
17713008060
17713014896
17713018253
17713025516
17713030338
17713035648
17713040714
17713045963
17713051334
17713056644
17713061954
17713066348
17713071475
17713077884
17713083438
17713087161
17713093875
17713099246
17713104861
17713110110
17713114749
17713121219
17713125186
17713129458
17713136844
17713144961
17713153628
17713159915
17713166079
17713173037
17713177798
17713183658
17713189761
17713196719
17713203494
17713208926
17713214907
17713220401
17713226382
17713231509
17713237979
17713242861
17713247927
17713253421
17713261050
17713266299
17713272647
17713278628
17713283389
17713290957
17713295474
17713302493
17713306765
17713311587
17713317019
17713323123
17713328616
17713333987
17713339236
17713345095
17713349612
17713354800
17713360476
17713364993
17713371767
17713377444
17713383486
17713391238
17713396365
17713402956
17713409914
17713419253
17713425844
17713435610
17713440249
17713447207
17713451845
17713458193
17713462404
17713469118
17713474672
17713479860
17713484560
17713490664
17713497072
17713503176
17713508120
17713514162
17713519960
17713524843
17713528994
17713534609
17713540407
17713545900
17713550173
17713557985
17713565065
17713570497
17713575136
17713579775
17713584169
17713589540
17713593874
17713602052
17713607424
17713614076
17713618837
17713624513
17713630312
17713636476
17713640688
17713646242
17713651796
17713657411
17713664064
17713669252
17713673036
17713679506
17713683595
17713688661
17713696474
17713701295
17713706056
17713712953
17713718690
17713723146
17713728883
17713733766
17713740724
17713745546
17713750551
17713754884
17713760133
17713764039
17713769288
17713776368
17713782899
17713786866
17713792848
17713799073
17713803590
17713808900
17713814637
17713821229
17713826600
17713830934
17713836183
17713841493
17713846315
17713849305
17713857423
17713865663
17713871034
17713876649
17713881776
17713886659
17713892152
17713896790
17713904420
17713908509
17713915284
17713919557
17713924500
17713930299
17713937318
17713945313
17713949586
17713955933
17713961304
17713970277
17713978455
17713984864
17713991944
17713998170
17714004945
17714009522
17714016053
17714021302
17714027283
17714033570
17714040162
17714046753
17714052735
17714058106
17714064026
17714069886
17714074830
17714079712
17714086609
17714093018
17714099610
17714104920
17714109681
17714116089
17714123719
17714128785
17714134156
17714141480
17714145996
17714151490
17714157532
17714162903
17714167237
17714173096
17714178833
17714184448
17714191956
17714198303
17714204102
17714209534
17714213745
17714219116
17714223572
17714228821
17714232910
17714240418
17714245300
17714252319
17714256653
17714260620
17714267090
17714272156
17714277649
17714283325
17714290344
17714295776
17714300598
17714305481
17714310852
17714315185
17714321045
17714328247
17714333801
17714338623
17714344238
17714349121
17714354431
17714359314
17714365417
17714372131
17714377929
17714383606
17714388000
17714394958
17714398254
17714404541
17714410522
17714415954
17714421936
17714427429
17714434875
17714440490
17714445922
17714452697
17714457519
17714463745
17714471008
17714477477
17714481201
17714487060
17714493652
17714498474
17714505126
17714510131
17714519347
17714526244
17714532287
17714539916
17714546752
17714553466
17714559997
17714566711
17714574096
17714581054
17714588378
17714594909
17714607177
17714612487
17714619140
17714625304
17714631042
17714636230
17714641479
17714647521
17714652282
17714658446
17714662536
17714666869
17714673949
17714678771
17714684691
17714688781
17714693663
17714700499
17714704894
17714710082
17714715819
17714721068
17714726561
17714731993
17714737853
17714743224
17714747618
17714752867
17714758727
17714764830
17714767516
17714775511
17714780272
17714786070
17714789244
17714796202
17714803282
17714809325
17714814513
17714819884
17714824278
17714830016
17714835021
17714840025
17714847655
17714853941
17714858519
17714864745
17714868956
17714874449
17714879576
17714885924
17714892577
17714898497
17714903929
17714909300
17714914854
17714920225
17714924925
17714929564
17714935545
17714943541
17714949217
17714954161
17714959471
17714964598
17714969236
17714973997
17714983336
17714988829
17714995420
17715000242
17715005430
17715010984
17715017637
17715021116
17715029661
17715034788
17715041929
17715046018
