17586181785
17586187279
17586192894
17586198387
17586204307
17586210350
17586215843
17586222130
17586227745
17586232383
17586239830
17586246605
17586253502
17586260032
17586267051
17586274070
17586282493
17586288353
17586294944
17586302452
17586308616
17586316062
17586324485
17586331932
17586337730
17586345847
17586351096
17586359947
17586367576
17586374839
17586380393
17586386436
17586395774
17586403831
17586410056
17586418357
17586425803
17586432517
17586437827
17586445151
17586452781
17586460471
17586467063
17586472556
17586480186
17586484275
17586492759
17586500632
17586507407
17586514304
17586520652
17586526694
17586533957
17586540244
17586547873
17586555198
17586561484
17586569602
17586576010
17586584189
17586591025
17586596579
17586602378
17586610861
17586618247
17586625571
17586631430
17586638815
17586646445
17586653708
17586662009
17586668295
17586676108
17586684103
17586691794
17586700217
17586707480
17586715781
17586723105
17586730002
17586737631
17586743796
17586752035
17586760580
17586766867
17586776083
17586783285
17586790121
17586798971
17586805807
17586813192
17586819479
17586827414
17586837362
17586844320
17586850119
17586857016
17586862204
17586870687
17586876669
17586884054
17586892965
17586901083
17586908773
17586916464
17586926596
17586934774
17586943868
17586954000
17586961080
17586969686
17586976827
17586986593
17586991598
17587001424
17587009725
17587015401
17587021688
17587030599
17587038534
17587046224
17587052511
17587059896
17587069723
17587076009
17587084371
17587090658
17587098653
17587106527
17587113729
17587123433
17587131063
17587137594
17587145772
17587154500
17587161214
17587169637
17587177388
17587184285
17587191915
17587198506
17587207967
17587212850
17587222310
17587232015
17587239827
17587247518
17587256673
17587263814
17587271932
17587279927
17587285970
17587293599
17587300435
17587310567
17587314961
17587325886
17587330159
17587339619
17587344014
17587353596
17587362874
17587370198
17587377888
17587385212
17587391316
17587398762
17587406697
17587414021
17587421833
17587429341
17587437825
17587446125
17587453450
17587459126
17587467183
17587475483
17587482746
17587488362
17587495686
17587503559
17587510884
17587516987
17587524189
17587530781
17587539143
17587545368
17587552204
17587558369
17587566975
17587573078
17587579853
17587586079
17587595844
17587602985
17587610432
17587615131
17587624287
17587631855
17587638142
17587646381
17587654377
17587663471
17587671223
17587677387
17587685261
17587692158
17587700031
17587707844
17587715412
17587722126
17587730487
17587739154
17587745990
17587754047
17587761310
17587769367
17587776447
17587784076
17587788593
17587797138
17587801471
17587810504
17587819049
17587826496
17587830585
17587840106
17587848590
17587856159
17587861896
17587868854
17587874347
17587883136
17587890704
17587896198
17587904498
17587909991
17587918903
17587927203
17587935870
17587941852
17587948566
17587954425
17587962298
17587968402
17587974994
17587981036
17587989764
17587994464
17588003009
17588009234
17588016192
17588022052
17588031207
17588036029
17588045672
17588050738
17588060626
17588065631
17588075213
17588083819
17588090350
17588097796
17588107928
17588116229
17588124835
17588130206
17588139422
17588147296
17588155718
17588160662
17588170001
17588176470
17588185198
17588189104
17588198016
17588205035
17588211871
17588220538
17588227373
17588234942
17588241411
17588249285
17588257159
17588264116
17588270830
17588278399
17588285418
17588292071
17588298845
17588306414
17588313311
17588320879
17588328936
17588336260
17588343828
17588351274
17588356462
17588367754
17588372698
17588382646
17588390520
17588397417
17588404131
17588411760
17588418840
17588427263
17588435686
17588441423
17588449968
17588456255
17588465471
17588471880
17588479753
17588486345
17588495195
17588502275
17588510637
17588518144
17588525407
17588532793
17588540605
17588548051
17588555437
17588561845
17588569230
17588576921
17588582475
17588589433
17588598893
17588605241
17588614824
17588622209
17588627824
17588635331
17588639299
17588649430
17588655229
17588661637
17588667985
17588673539
17588678849
17588684526
17588690507
17588696794
17588702165
17588706437
17588714494
17588719560
17588726640
17588731400
17588737138
17588741837
17588748185
17588753068
17588761857
17588765641
17588773332
17588779923
17588787858
17588793412
17588799454
17588805985
17588810746
17588817399
17588824052
17588830033
17588834855
17588840836
17588846879
17588852067
17588857072
17588864030
17588869523
17588874711
17588878068
17588884842
17588891373
17588896866
17588901688
17588906876
17588913773
17588917923
17588924942
17588930069
17588938126
17588941544
17588948319
17588953385
17588959305
17588962479
17588969376
17588977372
17588981827
17588988480
17588994400
17589000626
17589005631
17589011917
17589017777
17589026016
17589032364
17589038468
17589043167
17589048477
17589054703
17589061478
17589068558
17589073380
17589079605
17589084305
17589090286
17589095291
17589101212
17589107071
17589112503
17589118729
17589124771
17589129410
17589134598
17589140823
17589147232
17589153030
17589157791
17589163711
17589168411
17589175674
17589180923
17589186111
17589193130
17589198562
17589203872
17589208999
17589214126
17589219253
17589225601
17589230301
17589236709
17589241653
17589247696
17589252029
17589258499
17589263320
17589269729
17589275344
17589282241
17589287551
17589292739
17589298294
17589303726
17589309585
17589313918
17589321853
17589327834
17589333083
17589337478
17589344558
17589349624
17589356094
17589359878
17589369033
17589374648
17589379958
17589385390
17589390517
17589395339
17589400771
17589407607
17589413528
17589418838
17589423232
17589429763
17589434096
17589440078
17589445022
17589452346
17589458449
17589463820
17589469558
17589474746
17589480239
17589484267
17589491897
17589496474
17589501845
17589507399
17589513015
17589517959
17589524489
17589528273
17589537307
17589543227
17589548598
17589553725
17589559645
17589567824
17589574782
17589581923
17589589003
17589595168
17589602309
17589608351
17589614089
17589618544
17589626418
17589631423
17589638381
17589643263
17589648695
17589654372
17589660170
17589666335
17589671889
17589677931
17589683546
17589689223
17589695021
17589700514
17589706618
17589711867
17589718520
17589724196
17589729689
17589735304
17589740553
17589745741
17589752333
17589758070
17589763441
17589768629
17589774367
17589779616
17589785841
17589790236
17589798292
17589802931
17589808180
17589813917
17589819166
17589823561
17589830641
17589834059
17589843397
17589848402
17589853651
17589859632
17589864698
17589869459
17589874647
17589881300
17589887342
17589892591
17589896925
17589903517
17589907850
17589913770
17589919019
17589926405
17589931715
17589936964
17589942823
17589948072
17589953138
17589958448
17589966077
17589970716
17589976759
17589981092
17589987196
17589992139
17589998121
17590002149
17590010328
17590016126
17590021253
17590026685
17590032545
17590038282
17590044813
17590051160
17590057264
17590064466
17590071363
17590077894
17590084546
17590089795
17590096448
17590101575
17590108655
17590114637
17590120740
17590127698
17590133680
17590139478
17590145581
17590151197
17590156934
17590163404
17590169873
17590175550
17590181958
17590188123
17590193067
17590199048
17590203870
17590210279
17590214978
17590221387
17590228467
17590233960
17590240857
17590247144
17590253735
17590259290
17590266187
17590272534
17590278516
17590285718
17590290784
17590296826
17590303235
17590309582
17590314587
17590321240
17590327344
17590331799
17590337231
17590344128
17590348035
17590355664
17590362195
17590367749
17590372998
17590378796
17590384656
17590390515
17590396679
17590402905
17590408764
17590413708
17590421215
17590426587
17590432141
17590437939
17590442150
17590449108
17590454785
17590460217
17590465344
17590470898
17590474926
17590480480
17590485668
17590491894
17590497875
17590503308
17590507702
17590514233
17590518688
17590525707
17590531323
17590536999
17590542675
17590548840
17590554028
17590559216
17590563732
17590568798
17590576305
17590581249
17590586681
17590592358
17590597546
17590602245
17590609081
17590615063
17590622326
17590627941
17590633495
17590639232
17590644909
17590652050
17590657177
17590665294
17590670116
17590677074
17590682934
17590688427
17590691784
17590699413
17590706859
17590712597
17590718761
17590722850
17590729015
17590734996
17590741344
17590746715
17590753734
17590758495
17590764904
17590771007
17590776134
17590781261
17590786571
17590792919
17590798412
17590803600
17590808727
17590814891
17590818981
17590825572
17590829601
17590836803
17590841564
17590847606
17590851878
17590858165
17590862926
17590869212
17590874339
17590881602
17590885631
17590891795
17590898509
17590904124
17590909740
17590916148
17590922130
17590927013
17590933665
17590938365
17590944774
17590949351
17590957469
17590962779
17590968394
17590974254
17590978648
17590984874
17590990184
17590995799
17591001719
17591007335
17591013316
17591018809
17591023509
17591030772
17591036082
17591040965
17591047312
17591052684
17591058543
17591063853
17591069712
17591074900
17591079966
17591085704
17591093272
17591098155
17591104380
17591108775
17591114024
17591118418
17591125620
17591132578
17591138072
17591145030
17591149485
17591156321
17591162547
17591167246
17591173899
17591180369
17591185618
17591192637
17591195933
17591205271
17591211619
17591217417
17591223826
17591229929
17591235483
17591240122
17591247324
17591252939
17591259775
17591267649
17591272043
17591278879
17591284189
17591290232
17591296396
17591301584
17591308298
17591314096
17591319345
17591325571
17591330698
17591336191
17591341135
17591347849
17591351877
17591357675
17591363230
17591369028
17591373239
17591379282
17591384409
17591392099
17591397653
17591402841
17591408212
17591414133
17591418955
17591424814
17591430795
17591437082
17591442819
17591448557
17591454538
17591460764
17591467111
17591473398
17591479013
17591484750
17591489999
17591496408
17591503183
17591509286
17591514963
17591520639
17591525033
17591531625
17591537607
17591543466
17591549020
17591555612
17591560434
17591566964
17591570810
17591578378
17591584787
17591589670
17591596627
17591601571
17591608163
17591613168
17591619638
17591625497
17591629159
17591636361
17591641488
17591646371
17591653756
17591659188
17591666024
17591671334
17591677743
17591682687
17591688058
17591695260
17591701364
17591708138
17591713754
17591718392
17591725350
17591730172
17591736092
17591741036
17591749154
17591755441
17591759469
17591766488
17591771493
17591777779
17591783211
17591790780
17591793832
17591800179
17591806039
17591812203
17591818001
17591822335
17591829781
17591834176
17591840218
17591844918
17591852059
17591857735
17591863045
17591868966
17591875252
17591879891
17591884835
17591891671
17591896004
17591902535
17591908699
17591914315
17591920357
17591925972
17591930733
17591935921
17591942513
17591947884
17591953560
17591958199
17591965279
17591971749
17591977486
17591983467
17591989266
17591994820
17592000313
17592005745
17592010262
17592017647
17592023384
17592028511
17592035835
17592040169
17592047127
17592052376
17592058357
17592063484
17592069710
17592075264
17592080635
17592086006
17592092110
17592098030
17592104317
17592110298
17592116890
17592122810
17592128303
17592131599
17592140755
17592146187
17592152107
17592158149
17592162971
17592171882
17592176643
17592183418
17592190071
17592197212
17592204109
17592210456
17592216377
17592222541
17592228767
17592236091
17592242439
17592248176
17592254707
17592260688
17592267890
17592273078
17592279426
17592284675
17592290840
17592294868
17592301948
17592306648
17592313728
17592319343
17592324653
17592330634
17592335700
17592341193
17592347480
17592352546
17592358344
17592363288
17592368049
17592375434
17592380622
17592386970
17592395087
17592402534
17592411079
17592419013
17592426276
17592433845
17592442878
17592451728
17592459113
17592468635
17592480109
17592489203
17592496589
17592504340
17592513556
17592522406
17592531928
17592541083
17592549323
17592558234
17592567145
17592575080
17592584479
17592592963
17592600958
17592608466
17592617560
17592625494
17592635138
17592643805
17592653021
17592661322
17592669562
17592677985
17592685248
17592694769
17592701971
17592711554
17592718451
17592727667
17592736578
17592745123
17592754095
17592762152
17592770025
17592779486
17592789679
17592796698
17592807867
17592819281
17592829901
17592838934
17592851751
17592859625
17592870977
17592879461
17592891119
17592901556
17592910345
17592918768
17592928961
17592936041
17592945501
17592952520
17592964727
17592973577
17592982183
17592990789
17592997686
17593007268
17593019964
17593026067
17593047857
17593065069
17593082586
17593101995
17593119512
17593136968
17593154180
17593172795
17593191411
17593209111
17593218938
17593227239
17593236943
17593247136
17593260625
17593276555
17593294133
17593312260
17593327397
17593336430
17593345585
17593354619
17593363164
17593372258
17593380497
17593388798
17593398442
17593407841
17593416081
17593423405
17593432072
17593440556
17593448551
17593457585
17593465336
17593479191
17593488651
17593496037
17593504337
17593511967
17593520939
17593529484
17593538273
17593546635
17593555119
17593563358
17593572147
17593579594
17593587772
17593597843
17593605900
17593614261
17593623661
17593632084
17593641117
17593650150
17593657535
17593666752
17593675602
17593682682
17593692814
17593699955
17593711246
17593721195
17593729251
17593738040
17593747379
17593755985
17593765201
17593772525
17593783145
17593791751
17593799686
17593808170
17593816226
17593826480
17593833377
17593841983
17593852664
17593861697
17593869083
17593879275
17593888003
17593896854
17593904971
17593914981
17593921268
17593932193
17593938846
17593949405
17593956119
17593967837
17593973025
17593983950
17593992617
17594002383
17594012271
17594018130
17594026797
17594031985
17594038455
17594043277
17594049868
17594055117
17594061892
17594067507
17594073123
17594079959
17594085818
17594092166
17594098025
17594103579
17594107729
17594114321
17594122317
17594128420
17594134463
17594140078
17594145754
17594152712
17594158450
17594165041
17594170657
17594178286
17594184511
17594190066
17594196230
17594202700
17594208376
17594214113
17594219668
17594225466
17594232058
17594236757
17594243410
17594250857
17594256533
17594262331
17594268007
17594273806
17594280459
17594285952
17594291079
17594297670
17594304750
17594310366
17594315981
17594321596
17594327578
17594333925
17594340883
17594347231
17594352541
17594359377
17594365480
17594370363
17594376528
17594382326
17594389528
17594394655
17594403322
17594410158
17594416322
17594423769
17594429567
17594436342
17594441774
17594447389
17594453859
17594459291
17594465272
17594471681
17594477418
17594483888
17594489381
17594495363
17594500551
17594506654
17594512880
17594518129
17594526002
17594531557
17594537111
17594542299
17594547243
17594553651
17594560182
17594565553
17594571290
17594577028
17594581727
17594588441
17594591676
17594598817
17594604310
17594610963
17594615907
17594621522
17594628053
17594633058
17594638002
17594643800
17594651734
17594655274
17594662355
17594666871
17594676270
17594682435
17594688905
17594695374
17594700196
17594707520
17594713319
17594719117
17594725098
17594730897
17594739381
17594745423
17594752015
17594757691
17594763062
17594769288
17594774964
17594782288
17594788697
17594793763
17594809632
17594816468
17594821412
17594827881
17594832703
17594839966
17594845948
17594851746
17594857239
17594864014
17594869874
17594874878
17594884156
17594890076
17594896546
17594902283
17594908875
17594915528
17594922974
17594929016
17594935852
17594940979
17594947266
17594953247
17594960694
17594966553
17594972717
17594978760
17594984741
17594990540
17594995484
17595002503
17595008728
17595014404
17595020447
17595026733
17595031677
17595038452
17595045227
17595050171
17595056885
17595061340
17595067627
17595072388
17595079163
17595084534
17595092651
17595097534
17595103638
17595112732
17595117370
17595123840
17595129761
17595135986
17595142029
17595147949
17595152649
17595159668
17595164367
17595170959
17595177124
17595182739
17595188476
17595194152
17595197387
17595204773
17595211486
17595217468
17595224060
17595230285
17595235351
17595241455
17595247436
17595253906
17595259643
17595264831
17595271789
17595276489
17595282592
17595287719
17595294494
17595299621
17595306701
17595311828
17595319946
17595325927
17595330199
17595336242
17595342223
17595348083
17595353149
17595361388
17595366088
17595373168
17595378661
17595384460
17595389526
17595394958
17595401733
17595406493
17595413329
17595419189
17595424621
17595431518
17595438842
17595446532
17595449950
17595457274
17595463317
17595469237
17595475585
17595481139
17595487975
17595493834
17595499572
17595505858
17595512389
17595517211
17595523253
17595528136
17595535948
17595542113
17595547667
17595551085
17595558470
17595564452
17595570067
17595577880
17595582945
17595589537
17595596495
17595602110
17595605467
17595612547
17595618468
17595624083
17595630125
17595635802
17595641295
17595647337
17595653502
17595659544
17595666136
17595671568
17595677855
17595684202
17595690489
17595695494
17595702147
17595706846
17595712462
17595717100
17595723631
17595728392
17595735655
17595741453
17595747252
17595753721
17595759764
17595765684
17595771299
17595777220
17595783018
17595789732
17595796568
17595802122
17595808042
17595813230
17595819334
17595824339
17595830442
17595836363
17595842100
17595849424
17595854917
17595860411
17595866087
17595871397
17595877439
17595883726
17595889890
17595894590
17595901243
17595908018
17595913145
17595918394
17595924375
17595930967
17595935545
17595940916
17595945860
17595953611
17595959165
17595964231
17595971128
17595976255
17595983152
17595989072
17595995359
17595999204
17596007688
17596014707
17596020322
17596026914
17596033262
17596038999
17596045408
17596053098
17596060300
17596068662
17596074582
17596080747
17596085019
17596091855
17596097715
17596103330
17596109311
17596114926
17596120603
17596126645
17596133420
17596138181
17596145810
17596149900
17596156919
17596162900
17596168210
17596172971
17596179746
17596184445
17596190549
17596195493
17596203549
17596209775
17596215390
17596221249
17596226621
17596237790
17596243832
17596249875
17596254697
17596261044
17596265988
17596274167
17596280453
17596286252
17596289731
17596298093
17596303342
17596309323
17596316037
17596321652
17596327267
17596332882
17596340085
17596345273
17596352170
17596357235
17596364071
17596368832
17596375302
17596380246
17596386288
17596390988
17596398251
17596404538
17596410153
17596415829
17596421444
17596429074
17596434994
17596440731
17596446896
17596452145
17596456845
17596464291
17596471371
17596477047
17596482601
17596488339
17596494198
17596499874
17596506283
17596513119
17596520077
17596526485
17596531673
17596537472
17596543392
17596549313
17596555965
17596562557
17596569942
17596576168
17596582638
17596588802
17596595211
17596600277
17596609554
17596617183
17596621883
17596629085
17596635372
17596641720
17596646847
17596653927
17596660457
17596666195
17596671749
17596678096
17596685543
17596692501
17596700740
17596706905
17596712825
17596718563
17596724483
17596730342
17596735164
17596742244
17596748409
17596754512
17596760250
17596766048
17596772212
17596777889
17596785091
17596791072
17596796199
17596802913
17596808955
17596815852
17596823055
17596828792
17596834529
17596841121
17596847041
17596853206
17596858211
17596864864
17596869929
17596877254
17596883845
17596889583
17596895198
17596900752
17596907161
17596912959
17596919368
17596925349
17596931209
17596936030
17596943843
17596947261
17596954524
17596961543
17596967158
17596974116
17596978816
17596985591
17596990351
17596997615
17597004817
17597010310
17597016902
17597022273
17597029231
17597034541
17597040461
17597047419
17597052851
17597058589
17597065058
17597071101
17597077509
17597084956
17597090449
17597096858
17597101313
17597107905
17597114436
17597120661
17597126643
17597134943
17597140681
17597146601
17597153010
17597159235
17597164606
17597170405
17597176752
17597182917
17597189692
17597194269
17597201655
17597206293
17597213007
17597217768
17597225397
17597228693
17597235895
17597241999
17597247980
17597254145
17597260187
17597266291
17597272089
17597277765
17597283258
17597288874
17597294367
17597300531
17597306818
17597311579
17597317987
17597324396
17597329523
17597335504
17597342218
17597347711
17597352716
17597359491
17597364679
17597371454
17597377130
17597382684
17597388422
17597394098
17597401361
17597407037
17597412836
17597419000
17597424677
17597430353
17597437433
17597442682
17597449152
17597455621
17597461847
17597467218
17597472833
17597479303
17597484552
17597491998
17597497919
17597504327
17597509027
17597515252
17597520440
17597527093
17597533014
17597538812
17597544610
17597550653
17597557245
17597562555
17597567926
17597575372
17597581414
17597585931
17597593194
17597599298
17597604364
17597610101
17597615472
17597623345
17597629998
17597636407
17597641351
17597647332
17597652825
17597658013
17597667535
17597673699
17597679131
17597685357
17597692071
17597696893
17597703423
17597710381
17597715752
17597723626
17597728875
17597734917
17597739739
17597746819
17597752496
17597760125
17597767449
17597771783
17597778557
17597784722
17597789910
17597796380
17597803826
17597809380
17597814873
17597818352
17597825982
17597829217
17597837151
17597844841
17597850457
17597855584
17597861504
17597868401
17597874810
17597880974
17597887444
17597894585
17597900322
17597905571
17597910393
17597917839
17597921074
17597927849
17597934502
17597940056
17597945366
17597951592
17597957024
17597962517
17597968193
17597973869
17597980583
17597986931
17597992424
17597998467
17598003960
17598008720
17598015007
17598019768
17598027031
17598031853
17598039848
17598045525
17598051018
17598057182
17598063103
17598068962
17598074455
17598080376
17598084648
17598091362
17598097404
17598102653
17598109245
17598116325
17598121025
17598130729
17598137260
17598144401
17598151481
17598158683
17598166191
17598172783
17598181511
17598186821
17598194999
17598202262
17598210563
17598218681
17598225273
17598235404
17598246391
17598251396
17598258964
17598265678
17598272209
17598278068
17598284538
17598289909
17598296378
17598301994
17598308524
17598314933
17598322807
17598330070
17598335685
17598341483
17598346854
17598352409
17598358390
17598364310
17598370231
17598375236
17598382560
17598387443
17598394218
17598398978
17598406302
17598409659
17598416984
17598422599
17598428153
17598435111
17598439750
17598447623
17598451835
17598457877
17598463858
17598470145
17598474967
17598481681
17598486625
17598492911
17598497733
17598504386
17598511222
17598517203
17598523001
17598528311
17598534537
17598539969
17598545401
17598549613
17598557120
17598562125
17598568350
17598575064
17598580557
17598585135
17598591055
17598595633
17598601431
17598605948
17598611807
17598618094
17598623465
17598627493
17598633963
17598640799
17598645804
17598652212
17598657645
17598664175
17598668875
17598675162
17598681937
17598687369
17598693533
17598698477
17598704031
17598711233
17598715017
17598722098
17598727774
17598733145
17598738455
17598742605
17598750540
17598756765
17598763601
17598768484
17598775381
17598779776
17598785635
17598791800
17598798757
17598805105
17598812612
17598819631
17598825735
17598832998
17598840078
17598847341
17598853445
17598860281
17598865652
17598872732
17598878408
17598886282
17598892263
17598898428
17598903066
17598908498
17598912771
17598918081
17598925039
17598933218
17598938467
17598943533
17598948904
17598954214
17598959646
17598966054
17598972158
17598977407
17598983449
17598989370
17598995473
17599000173
17599006276
17599014699
17599020620
17599026418
17599031362
17599037465
17599043691
17599049062
17599055227
17599060048
17599067128
17599072561
17599077932
17599082997
17599088247
17599094350
17599099721
17599104360
17599109975
17599115102
17599120351
17599125844
17599132131
17599138417
17599143788
17599150807
17599156178
17599162221
17599167714
17599174672
17599180837
17599185964
17599189381
17599196034
17599201283
17599207204
17599212392
17599217824
17599223012
17599228444
17599235158
17599241383
17599247426
17599252064
17599258168
17599264821
17599271229
17599277455
17599282826
17599287953
17599293446
17599300526
17599307606
17599313588
17599318654
17599325978
17599332387
17599338307
17599342457
17599350453
17599357899
17599364247
17599370350
17599375660
17599382313
17599387074
17599393910
17599399403
17599408131
17599414845
17599420521
17599426258
17599432423
17599438282
17599444325
17599451710
17599455860
17599462696
17599468678
17599473072
17599479481
17599485340
17599490101
17599498646
17599504505
17599510120
17599513783
17599521168
17599527088
17599534901
17599540882
17599546436
17599551685
17599557300
17599563404
17599567737
17599574451
17599580738
17599587391
17599592151
17599598743
17599603443
17599609669
17599614429
17599620411
17599625538
17599632068
17599636707
17599644581
17599649097
17599654712
17599660816
17599666614
17599673572
17599679187
17599684558
17599690296
17599695972
17599702014
17599707813
17599714099
17599720020
17599724475
17599731189
17599735950
17599742847
17599748218
17599754505
17599760852
17599766895
17599772510
17599777942
17599785205
17599789600
17599796008
17599801624
17599809192
17599815540
17599821155
17599825977
17599832019
17599838428
17599843982
17599851062
17599856616
17599861926
17599867969
17599873767
17599880603
17599885303
17599892505
17599900134
17599906360
17599911059
17599916980
17599922717
17599930102
17599935901
17599944262
17599950244
17599956408
17599963122
17599970080
17599976184
17599982104
17599988147
17599993335
17599999255
17600004870
17600011035
17600016284
17600022936
17600029223
17600034045
17600041003
17600046374
17600051379
17600056323
17600063769
17600071276
17600076708
17600082263
17600087817
17600093554
17600099169
17600104235
17600109850
17600117052
17600123461
17600128649
17600134692
17600140124
17600146410
17600151964
17600157091
17600164965
17600169726
17600176256
17600181505
17600187304
17600192980
17600198717
17600205187
17600211107
17600217272
17600222887
17600229357
17600235460
17600241442
17600248400
17600254015
17600260057
17600265001
17600271532
17600276781
17600281603
17600288622
17600293749
17600300707
17600307604
17600313219
17600318041
17600323656
17600330004
17600335802
17600342272
17600348131
17600354112
17600359789
17600366319
17600372545
17600377794
17600384264
17600391161
17600396532
17600401842
17600406541
17600413194
17600418993
17600424913
17600431261
17600437425
17600444200
17600449693
17600455614
17600461900
17600468553
17600475633
17600481676
17600487596
17600494005
17600499009
17600505723
17600511705
17600518052
17600524156
17600530320
17600538011
17600544358
17600549485
17600555284
17600561387
17600567125
17600574388
17600578843
17600585374
17600591355
17600596543
17600602830
17600608262
17600613816
17600622911
17600628343
17600634080
17600639146
17600646653
17600653123
17600658799
17600663316
17600670213
17600676011
17600682053
17600688340
17600693955
17600699937
17600704087
17600711289
17600715562
17600721482
17600727402
17600733689
17600738633
17600744431
17600751328
17600757615
17600762253
17600769700
17600772813
17600780564
17600786484
17600792283
17600798386
17600804062
17600810105
17600816575
17600821641
17600827622
17600834214
17600840317
17600845871
17600850571
17600856858
17600861618
17600869492
17600875962
17600882981
17600890732
17600896347
17600902573
17600908860
17600914292
17600918991
17600925888
17600930649
17600938400
17600945175
17600950791
17600955979
17600961411
17600967331
17600973374
17600979721
17600984421
17600992844
17600997726
17601006332
17601012070
17601017868
17601025497
17601031540
17601045151
17601054977
17601065048
17601071701
17601079147
17601084091
17601091110
17601098068
17601102218
17601109298
17601115585
17601121200
17601126510
17601132858
17601139450
17601143539
17601150802
17601155502
17601161911
17601167221
17601173080
17601178939
17601183090
17601191024
17601195602
17601201156
17601205917
17601212265
17601218307
17601224838
17601230392
17601235397
17601242233
17601248458
17601254073
17601260787
17601265426
17601272689
17601277389
17601283309
17601287948
17601294235
17601299545
17601305526
17601313277
17601317977
17601323775
17601328536
17601334457
17601339828
17601345687
17601352828
17601358932
17601365279
17601368514
17601375655
17601380050
17601386519
17601393111
17601397506
17601404403
17601409163
17601414779
17601418258
17601425765
17601433638
17601438094
17601444686
17601449447
17601455550
17601459578
17601465987
17601473250
17601479048
17601483687
17601489485
17601495894
17601500472
17601507186
17601513106
17601518782
17601524275
17601530135
17601537886
17601544966
17601551680
17601559310
17601565108
17601571944
17601579024
17601582808
17601590071
17601598677
17601604475
17601611617
17601617476
17601623396
17601628767
17601634383
17601641157
17601645796
17601652632
17601657515
17601664229
17601668440
17601676375
17601682417
17601687849
17601692793
17601698164
17601703840
17601709517
17601715620
17601720686
17601728315
17601733992
17601739424
17601745283
17601750837
17601756453
17601761946
17601767866
17601773542
17601779036
17601785566
17601789778
17601796247
17601801374
17601808454
17601814619
17601819929
17601825483
17601830610
17601837690
17601842756
17601849165
17601856245
17601860639
17601868696
17601872907
17601879804
17601885053
17601892378
17601897749
17601902937
17601909895
17601914106
17601921857
17601927839
17601933393
17601939985
17601945844
17601950178
17601954999
17601961957
17601967451
17601973249
17601980085
17601984113
17601990583
17601996259
17602000837
17602006086
17602013959
17602019819
17602025068
17602029889
17602035321
17602040937
17602047590
17602054670
17602061750
17602067914
17602074201
17602081159
17602086469
17602095685
17602101544
17602107831
17602114728
17602121076
17602127606
17602133222
17602139752
17602146527
17602152020
17602157453
17602163190
17602169293
17602173810
17602181256
17602186261
17602194012
17602197675
17602204816
17602211957
17602216412
17602222516
17602228680
17602234296
17602240582
17602246869
17602250531
17602258221
17602263959
17602270123
17602275128
17602280865
17602286419
17602289349
17602297162
17602302899
17602308331
17602314679
17602318524
17602325299
17602329876
17602335797
17602342144
17602347577
17602353009
17602358563
17602363507
17602369183
17602374554
17602380474
17602387066
17602392559
17602397991
17602403363
17602407696
17602414288
17602420147
17602425640
17602431194
17602437420
17602442181
17602447491
17602453716
17602458782
17602466107
17602472698
17602478008
17602483074
17602488567
17602493816
17602499798
17602506512
17602512554
17602517620
17602522564
17602527691
17602534649
17602540813
17602546978
17602553264
17602558819
17602564129
17602571270
17602576763
17602581707
17602589824
17602595745
17602601360
17602607952
17602614238
17602622722
17602630230
17602637005
17602643413
17602650676
17602657024
17602663066
17602668254
17602675701
17602681316
17602686748
17602693157
17602698772
17602704936
17602709819
17602716655
17602722148
17602727458
17602733806
17602739055
17602744609
17602749431
17602756145
17602762492
17602767803
17602772685
17602777873
17602784099
17602788005
17602795207
17602799785
17602806377
17602811504
17602816814
17602822673
17602829021
17602834941
17602840251
17602845439
17602852275
17602857646
17602862468
17602868327
17602874736
17602880290
17602885844
17602891520
17602897136
17602903727
17602908366
17602915080
17602921183
17602926616
17602933085
17602938151
17602944194
17602949443
17602957377
17602963115
17602968302
17602973490
17602979411
17602985697
17602990824
17602998576
17603004130
17603009257
17603014689
17603020854
17603025431
17603032145
17603038188
17603043925
17603049357
17603054545
17603059916
17603065958
17603072245
17603078776
17603086100
17603091654
17603098490
17603104594
17603111246
17603117045
17603124674
17603132059
17603137369
17603145670
17603152140
17603158549
17603163981
17603168741
17603174906
17603180765
17603186197
17603192423
17603198771
17603205790
17603211527
17603217447
17603224039
17603228128
17603234476
17603241007
17603247171
17603252481
17603257853
17603262735
17603268167
17603275003
17603279093
17603287027
17603292337
17603298014
17603303385
17603309305
17603315103
17603321756
17603328775
17603334574
17603339884
17603345743
17603351114
17603357156
17603362222
17603369608
17603375101
17603380411
17603386026
17603391397
17603397623
17603403299
17603410074
17603415811
17603421060
17603427774
17603431680
17603438699
17603444986
17603451272
17603457071
17603462198
17603467752
17603473062
17603480081
17603484414
17603492410
17603496377
17603502908
17603508706
17603514016
17603520120
17603524392
17603531717
17603536844
17603544046
17603549234
17603554361
17603560403
17603565957
17603573831
17603578958
17603586038
17603591897
17603597940
17603605996
17603612222
17603619729
17603627175
17603631997
17603639138
17603645913
17603652261
17603659463
17603664468
17603672463
17603678384
17603684548
17603691079
17603695779
17603702981
17603707925
17603714455
17603719521
17603727334
17603733620
17603740761
17603746926
17603752358
17603757607
17603763833
17603769265
17603775368
17603781777
17603787819
17603793313
17603799477
17603805153
17603808999
17603815651
17603820412
17603827309
17603833046
17603838601
17603843972
17603849038
17603854592
17603860878
17603867592
17603873146
17603878578
17603884377
17603890297
17603895302
17603900429
17603907692
17603912941
17603918434
17603923500
17603929238
17603935402
17603940712
17603947609
17603953285
17603958473
17603964821
17603970985
17603975807
17603983009
17603988564
17603994240
17603999428
17604005775
17604009621
17604016579
17604023781
17604029213
17604032631
17604040321
17604045692
17604049354
17604056496
17604061317
17604067543
17604072609
17604080421
17604085914
17604092201
17604097511
17604102638
17604110450
17604116737
17604124794
17604130714
17604136085
17604141883
17604148353
17604155494
17604160926
17604165504
17604173439
17604179420
17604185951
17604192543
17604197303
17604204688
17604210609
17604216468
17604221595
17604226295
17604233985
17604240333
17604246803
17604253272
17604258338
17604263892
17604270423
17604278663
17604285682
17604291602
17604297401
17604302222
17604308814
17604314368
17604321204
17604326087
17604332679
17604339576
17604346412
17604351111
17604357825
17604364478
17604371436
17604377418
17604381812
17604394507
17604409278
17604418433
17604427893
17604436744
17604444495
17604452796
17604460852
17604470557
17604476966
17604482337
17604488440
17604493262
17604499304
17604505103
17604510962
17604517005
17604522009
17604528174
17604533972
17604539099
17604545752
17604552649
17604558264
17604563513
17604568213
17604575171
17604579932
17604587317
17604594580
17604598303
17604605017
17604609534
17604614722
17604618811
17604626379
17604631872
17604637366
17604642859
17604650793
17604657507
17604664831
17604670080
17604677282
17604684546
17604691443
17604697668
17604705053
17604711096
17604717382
17604723852
17604729956
17604736303
17604742041
17604749609
17604759863
17604765600
17604772131
17604780432
17604784887
17604791357
17604797399
17604803869
17604809240
17604817114
17604822058
17604828405
17604832617
17604840246
17604844152
17604850073
17604856847
17604863683
17604869299
17604875402
17604882055
17604887853
17604894445
17604898901
17604904211
17604910986
17604916906
17604921545
17604926122
17604931921
17604938451
17604945348
17604952733
17604959203
17604964147
17604969762
17604977819
17604984044
17604991552
17604997106
17605004613
17605009130
17605016393
17605021764
17605027562
17605034337
17605038793
17605045324
17605050878
17605056432
17605061559
17605067906
17605073094
17605077367
17605084020
17605090673
17605095555
17605100377
17605107335
17605113439
17605119054
17605124669
17605130956
17605135716
17605141454
17605148106
17605154881
17605162328
17605169774
17605176366
17605183507
17605190038
17605196934
17605202794
17605211034
17605216283
17605223607
17605231908
17605239049
17605245457
17605250340
17605257298
17605262364
17605268895
17605275731
17605280674
17605288853
17605295445
17605300511
17605305516
17605311436
17605316868
17605322056
17605327244
17605332859
17605339573
17605344029
17605350987
17605356358
17605361302
17605366795
17605372715
17605378575
17605383641
17605390354
17605396519
17605401890
17605409947
17605415928
17605420689
17605427403
17605433994
17605439732
17605445896
17605450657
17605457676
17605461094
17605468296
17605478977
17605486179
17605491550
17605497044
17605503025
17605509251
17605514683
17605523655
17605529819
17605535374
17605541233
17605546970
17605553867
17605558140
17605564426
17605570957
17605577366
17605582248
17605589267
17605593906
17605601780
17605607273
17605612827
17605618930
17605624851
17605630893
17605636936
17605642978
17605647800
17605654636
17605659641
17605666660
17605669895
17605678012
17605685642
17605691928
17605699680
17605704074
17605711643
17605716464
17605724155
17605730747
17605736545
17605743320
17605748264
17605753207
17605760349
17605765292
17605771945
17605776706
17605783725
17605789951
17605795627
17605801730
17605807651
17605813205
17605818759
17605823581
17605832614
17605838168
17605842929
17605849826
17605855136
17605861239
17605866549
17605872226
17605879428
17605885287
17605890658
17605896579
17605902987
17605908969
17605914828
17605920382
17605926120
17605930453
17605937655
17605942355
17605949679
17605954196
17605960604
17605966952
17605973483
17605978182
17605983798
17605988558
17605994357
17606000949
17606005953
17606010897
17606018099
17606024203
17606029757
17606033114
17606040560
17606046908
17606052828
17606058993
17606064852
17606070589
17606076022
17606082552
17606086764
17606093417
17606099642
17606104403
17606110445
17606116244
17606120882
17606126375
17606132357
17606137423
17606142428
17606149264
17606154085
17606160677
17606165316
17606172457
17606175692
17606182955
17606190462
17606195894
17606201754
17606205965
17606210726
17606215242
17606219576
17606226351
17606232027
17606237093
17606241854
17606246431
17606251009
17606255220
17606260530
17606266817
17606271273
17606276094
17606280672
17606285127
17606290315
17606295687
17606301119
17606304964
17606309541
17606312959
17606318636
17606322847
17606327120
17606332613
17606337068
17606341219
17606345003
17606350008
17606355318
17606359407
17606364961
17606368257
17606374361
17606377840
17606383028
17606388277
17606392793
17606397859
17606404024
17606407930
17606413667
17606419099
17606423189
17606429475
17606432466
17606439485
17606444185
17606448762
17606454133
17606458345
17606462800
17606467439
17606474031
17606477754
17606483674
17606487642
17606493074
17606497041
17606502046
17606506074
17606512178
17606517671
17606522187
17606526765
17606531160
17606535798
17606539094
17606545381
17606550508
17606555024
17606560029
17606564546
17606568452
17606573701
17606577729
17606584016
17606588716
17606593232
17606597444
17606600984
17606606660
17606612153
17606616731
17606621797
17606625215
17606630952
17606633393
17606638703
17606644563
17606650117
17606654328
17606657929
17606663361
17606668732
17606673127
17606681245
17606686799
17606691071
17606696503
17606701325
17606705781
17606711945
17606717805
17606724457
17606728364
17606733735
17606739045
17606743928
17606748566
17606752167
17606759003
17606764069
17606768830
17606772797
17606777680
17606781464
17606788117
17606794892
17606799714
17606804841
17606809357
17606813385
17606818024
17606822541
17606827423
17606833588
17606837677
17606843170
17606847321
17606852936
17606857514
17606863922
17606868744
17606874665
17606878083
17606884735
17606889252
17606895477
17606900299
17606906342
17606910004
17606918060
17606921478
17606928375
17606933441
17606939179
17606944183
17606950104
17606955658
17606964203
17606969208
17606975006
17606980011
17606986969
17606993072
17607002167
17607007599
17607019195
17607025970
17607033661
17607035858
17607045257
17607049225
17607057037
17607063385
17607069061
17607074493
17607080780
17607086456
17607093475
17607098785
17607105011
17607109771
17607118133
17607123260
17607130096
17607134857
17607142059
17607147064
17607153106
17607158844
17607164703
17607170623
17607175933
17607182342
17607187408
17607194671
17607199554
17607206695
17607211578
17607217742
17607224822
17607230560
17607236480
17607242950
17607249847
17607255645
17607263030
17607268707
17607276458
17607282867
17607293670
17607303619
17607313445
17607318938
17607325957
17607333587
17607340301
17607347259
17607352141
17607358550
17607363799
17607370330
17607375396
17607381560
17607386748
17607391204
17607396758
17607402434
17607408233
17607413970
17607418120
17607423613
17607431670
17607436064
17607441069
17607446868
17607451934
17607456206
17607459258
17607467559
17607472502
17607478240
17607482146
17607489653
17607493071
17607500945
17607504302
17607510222
17607514922
17607520720
17607526274
17607533110
17607538054
17607543425
17607548491
17607554594
17607562041
17607567351
17607571867
17607578947
17607584196
17607589812
17607593718
17607598845
17607603606
17607610564
17607615874
17607619292
17607626005
17607629973
17607637602
17607641020
17607646086
17607650419
17607659758
17607665617
17607670012
17607674467
17607679899
17607685270
17607690458
17607695707
17607702177
17607707731
17607712126
17607717802
17607721586
17607728056
17607733000
17607738127
17607744230
17607752531
17607756376
17607762052
17607767240
17607772917
17607777067
17607782926
17607787199
17607794889
17607799223
17607805570
17607812162
17607814298
17607820768
17607824064
17607833646
17607838041
17607847074
17607851041
17607860929
17607863676
17607875578
17607882230
17607888517
17607894498
17607899747
17607903532
17607911771
17607917692
17607924833
17607928739
17607935880
17607940275
17607947050
17607952421
17607957425
17607961515
17607967496
17607971952
17607979154
17607983304
17607989896
17607996976
17608002469
17608006742
17608012113
17608016813
17608021817
17608026700
17608034085
17608040738
17608045560
17608049649
17608055631
17608061063
17608066922
17608071073
17608078580
17608083768
17608090177
17608096280
17608102262
17608107327
17608113309
17608118863
17608121304
17608129300
17608134854
17608140103
17608145413
17608149930
17608155545
17608161771
17608170987
17608176480
17608181058
17608187161
17608192288
17608197232
17608203213
17608209622
17608214139
17608222134
17608225796
17608232144
17608237393
17608242642
17608247159
17608252835
17608258694
17608264798
17608270840
17608272671
17608280667
17608285794
17608291409
17608294766
17608301297
17608306546
17608312954
17608316800
17608323574
17608330105
17608335171
17608339688
17608346279
17608351589
17608357693
17608365505
17608374783
17608382656
17608392666
17608401089
17608409145
17608417629
17608425686
17608432217
17608440456
17608448574
17608454372
17608460476
17608465298
17608470730
17608475735
17608480556
17608486111
17608490566
17608497097
17608501980
17608506863
17608511867
17608516506
17608521877
17608527248
17608532436
17608536831
17608541591
17608546230
17608552883
17608557216
17608561367
17608568142
17608572841
17608578396
17608583584
17608588771
17608593349
17608598903
17608604824
17608610561
17608615688
17608620205
17608625209
17608631191
17608636806
17608641384
17608646144
17608652187
17608656032
17608663356
17608666835
17608673549
17608677761
17608684413
17608689540
17608695461
17608701076
17608706264
17608711574
17608717128
17608722438
17608727565
17608733852
17608740627
17608745570
17608752895
17608757350
17608762111
17608769557
17608775417
17608780788
17608785731
17608791041
17608796107
17608803615
17608809230
17608814845
17608819362
17608824367
17608829249
17608835719
17608839015
17608844569
17608849818
17608855922
17608861354
17608867946
17608874232
17608880336
17608885524
17608891200
17608896815
17608902736
17608907557
17608912562
17608919581
17608924464
17608930567
17608936427
17608942042
17608945948
17608956141
17608962184
17608967555
17608971827
17608978358
17608984522
17608990565
17608996852
17609003016
17609010462
17609016139
17609022059
17609027308
17609032313
17609038477
17609043604
17609050867
17609056666
17609061793
17609067286
17609073573
17609078211
17609082056
17609090540
17609094691
17609103785
17609107569
17609114100
17609119837
17609125635
17609130335
17609136133
17609140833
17609146998
17609151880
17609158472
17609163782
17609167322
17609174952
17609177454
17609186914
17609192652
17609198633
17609204187
17609210779
17609216394
17609221888
17609226770
17609233606
17609238672
17609246057
17609252771
17609254846
17609262720
17609267542
17609272302
17609275476
17609282923
17609288599
17609295679
17609299463
17609305383
17609310632
17609316736
17609321558
17609326868
17609331812
17609338953
17609342798
17609348108
17609354761
17609359644
17609364954
17609369714
17609375269
17609379907
17609385705
17609389917
17609395776
17609400598
17609406213
17609409509
17609416406
17609420984
17609428003
17609431665
17609440027
17609443323
17609450036
17609454126
17609460473
17609465661
17609473169
17609476526
17609482568
17609487695
17609493066
17609497339
17609503015
17609507898
17609516442
17609521691
17609528894
17609534936
17609541894
17609546716
17609554223
17609559350
17609567529
17609572839
17609577538
17609582971
17609587609
17609592553
17609597985
17609604943
17609614404
17609619958
17609626489
17609630639
17609636559
17609641686
17609646630
17609650414
17609656579
17609661340
17609666405
17609672631
17609680321
17609684716
17609692162
17609696862
17609702721
17609707604
17609714562
17609718896
17609723290
17609727135
17609733178
17609739220
17609741540
17609750268
17609751977
17609761071
17609766442
17609772912
17609774865
17609782372
17609788231
17609792382
17609797387
17609801598
17609808068
17609812035
17609816674
17609820580
17609828331
17609832909
17609839501
17609844200
17609848778
17609854943
17609863182
17609868981
17609875756
17609880699
17609887474
17609892479
17609899132
17609904442
17609910729
17609917198
17609923973
17609929039
17609935448
17609940025
17609945030
17609951195
17609955894
17609961632
17609968040
17609973167
17609980492
17609985496
17609990806
17609996178
17610001488
17610006187
17610014244
17610019554
17610025902
17610031090
17610037864
17610043236
17610046715
17610055626
17610060264
17610067344
17610074791
17610079979
17610083336
17610091209
17610096702
17610102012
17610107566
17610115623
17610121299
17610127342
17610132591
17610138511
17610143211
17610148826
17610155235
17610162803
17610168357
17610176597
17610179527
17610186973
17610190269
17610196067
17610201255
17610207908
17610213218
17610219444
17610225059
17610230735
17610235130
17610240806
17610247459
17610255210
17610261619
17610266135
17610272056
17610276633
17610283469
17610286887
17610294578
17610298667
17610306846
17610310691
17610317222
17610322715
17610328757
17610333701
17610339438
17610344443
17610352500
17610357810
17610362754
17610367515
17610374106
17610379844
17610385398
17610390403
17610398032
17610403159
17610409323
17610413779
17610419944
17610424399
17610429343
17610436118
17610441306
17610447104
17610452231
17610457968
17610462973
17610468405
17610474326
17610479636
17610486106
17610492270
17610498740
17610503745
17610508444
17610511801
17610519125
17610526022
17610531760
17610536826
17610542990
17610547873
17610554343
17610559958
17610565024
17610569479
17610576071
17610581198
17610588949
17610595541
17610600119
17610605917
17610610739
17610617209
17610620505
17610627463
17610631430
17610638998
17610644430
17610650412
17610655844
17610661215
17610665670
17610671957
17610677084
17610686605
17610691427
17610696920
17610701925
17610709249
17610714743
17610720419
17610725729
17610732260
17610739523
17610746847
17610751058
17610759542
17610764486
17610769613
17610774557
17610782308
17610789694
17610795797
17610800985
17610807821
17610812216
17610817648
17610824484
17610830160
17610834798
17610840963
17610846639
17610851522
17610856710
17610862508
17610867757
17610873678
17610879964
17610885335
17610891256
17610896200
17610903402
17610908712
17610914571
17610922079
17610928548
17610933980
17610939473
17610945821
17610949972
17610956258
17610962423
17610966878
17610973470
17610979940
17610985372
17610991109
17610996175
17611000936
17611007161
17611013326
17611017476
17611025167
17611030538
17611037068
17611042684
17611048421
17611055440
17611060262
17611065206
17611073201
17611078145
17611084981
17611089864
17611097615
17611102071
17611107991
17611112691
17611120503
17611126668
17611131978
17611138387
17611143330
17611149190
17611152608
17611160481
17611166890
17611175984
17611182637
17611187642
17611193684
17611199727
17611204487
17611212056
17611215962
17611223530
17611227315
17611233723
17611238606
17611244465
17611248738
17611254658
17611260701
17611267537
17611274067
17611279316
17611285298
17611289753
17611295735
17611299092
17611307698
17611312580
17611321553
17611328205
17611334614
17611337971
17611345112
17611352375
17611358052
17611365071
17611372029
17611377766
17611384968
17611388569
17611397419
17611401020
17611407612
17611413288
17611420551
17611427021
17611433002
17611436604
17611443317
17611448444
17611454731
17611460102
17611467243
17611473164
17611479023
17611483539
17611490375
17611495869
17611500751
17611507831
17611512348
17611518696
17611523639
17611528583
17611532123
17611541218
17611543476
17611550251
17611555927
17611562824
17611568439
17611574176
17611579303
17611585163
17611590290
17611596149
17611602741
17611604999
17611614643
17611619403
17611625568
17611629352
17611636676
17611642780
17611647418
17611653095
17611659992
17611664935
17611670246
17611675861
17611682086
17611686847
17611692462
17611697650
17611705585
17611711505
17611715839
17611720966
17611726215
17611732379
17611738544
17611745135
17611750690
17611756488
17611761798
17611767047
17611772113
17611778033
17611784503
17611786639
17611795306
17611800189
17611807574
17611811297
17611819110
17611823260
17611829364
17611834063
17611841327
17611846332
17611852313
17611856952
17611864032
17611869403
17611873248
17611880694
17611884417
17611890826
17611896868
17611903643
17611908953
17611915179
17611922137
17611929583
17611936358
17611942767
17611949053
17611961077
17611969012
17611976885
17611985125
17611989153
17611995867
17612001299
17612007403
17612013140
17612019793
17612024554
17612030840
17612035174
17612041888
17612048540
17612054827
17612059649
17612065264
17612070025
17612075884
17612083025
17612088824
17612094622
17612100115
17612106280
17612108233
17612116411
17612119829
17612127337
17612131121
17612138628
17612142046
17612149798
17612154680
17612161089
17612166582
17612173052
17612178240
17612184893
17612190264
17612197405
17612202105
17612208269
17612215044
17612221147
17612226457
17612230303
17612239031
17612243120
17612250444
17612256304
17612262224
17612267168
17612275469
17612280412
17612286394
17612291277
17612298662
17612303728
17612310320
17612315080
17612318803
17612327531
17612332964
17612338945
17612344560
17612351335
17612356767
17612363054
17612368791
17612375383
17612379961
17612386919
17612394060
17612400651
17612407609
17612410112
17612418718
17612422502
17612430253
17612436052
17612443559
17612450639
17612457658
17612463640
17612470659
17612477128
17612482133
17612488481
17612495378
17612499955
17612508134
17612513444
17612525468
17612531144
17612536943
17612541337
17612548112
17612553361
17612563127
17612569108
17612575944
17612582536
17612586808
17612593156
17612599503
17612605729
17612613419
17612618668
17612624955
17612631059
17612636674
17612642045
17612649247
17612653764
17612658097
17612666764
17612670792
17612678666
17612682389
17612688370
17612693009
17612699479
17612705338
17612711197
17612717240
17612723282
17612727799
17612734025
17612738480
17612744095
17612748734
17612755509
17612760148
17612766678
17612771195
17612775772
17612779923
17612786209
17612791458
17612798294
17612804276
17612809281
17612814530
17612820084
17612825394
17612827286
17612834366
17612838516
17612845536
17612851822
17612858414
17612861649
17612868241
17612872635
17612878128
17612883927
17612890579
17612895706
17612901993
17612905350
17612912796
17612916031
17612923172
17612927994
17612937027
17612942703
17612949051
17612953018
17612960159
17612963882
17612971695
17612977737
17612983597
17612987320
17612994400
17612998916
17613004715
17613009842
17613015030
17613020706
17613027359
17613032669
17613038040
17613042923
17613049453
17613054702
17613060867
17613064834
17613072036
17613076004
17613081985
17613087417
17613093643
17613098587
17613104751
17613109512
17613116165
17613121353
17613126907
17613132827
17613138748
17613143691
17613149368
17613155898
17613163345
17613168838
17613176162
17613181594
17613188613
17613193801
17613197463
17613206680
17613215530
17613221511
17613223891
17613234328
17613239516
17613244521
17613250869
17613256667
17613260940
17613269607
17613273330
17613279311
17613284194
17613290603
17613297683
17613302566
17613307387
17613315810
17613321425
17613327346
17613331679
17613337294
17613343337
17613345473
17613354018
17613360793
17613367263
17613371474
17613377517
17613381057
17613389052
17613392958
17613399489
17613404616
17613411879
17613417189
17613422682
17613429213
17613434157
17613440627
17613445937
17613450453
17613459548
17613464919
17613471327
17613475600
17613480666
17613486708
17613492934
17613497206
17613503432
17613509535
17613514906
17613520399
17613527419
17613532545
17613537978
17613544447
17613548537
17613556044
17613562331
17613568495
17613571974
17613578688
17613583632
17613589308
17613593580
17613602247
17613607008
17613613661
17613618361
17613624647
17613630324
17613635512
17613640455
17613648024
17613654249
17613659742
17613664625
17613667860
17613675001
17613680311
17613686720
17613695753
17613701307
17613708021
17613713392
17613720838
17613724501
17613730665
17613736036
17613743116
17613748976
17613756117
17613761244
17613767774
17613772596
17613777906
17613782911
17613793958
17613799146
17613805494
17613810682
17613817579
17613821973
17613828016
17613834425
17613841993
17613861463
17613869520
17613875074
17613881483
17613886182
17613892103
17613896558
17613902418
17613908338
17613914319
17613919507
17613925733
17613930921
17613936658
17613942457
17613947339
17613953931
17613959241
17613965955
17613971570
17613976514
17613981580
17613986036
17613992566
17613998304
17614004651
17614010633
17614015271
17614021375
17614027844
17614032239
17614037671
17614042859
17614048779
17614054822
17614060132
17614066480
17614071362
17614077222
17614082410
17614088391
17614093152
17614100354
17614104871
17614110486
17614116223
17614122327
17614126721
17614130200
17614138501
17614142773
17614150647
17614157605
17614162671
17614168835
17614174084
17614179089
17614185681
17614191846
17614197705
17614203015
17614208996
17614215954
17614221997
17614226330
17614232190
17614236950
17614245129
17614251599
17614256970
17614261425
17614267773
17614272778
17614276013
17614284497
17614288281
17614296276
17614301647
17614308483
17614312390
17614319470
17614325329
17614332226
17614336987
17614346142
17614352795
17614357739
17614364025
17614368908
17614374096
17614381054
17614385754
17614393566
17614400768
17614407177
17614411999
17614417370
17614423717
17614429638
17614435314
17614442455
17614448986
17614454235
17614459911
17614463451
17614470775
17614477123
17614482067
17614487377
17614493847
17614498668
17614503917
17614510326
17614515819
17614520214
17614526684
17614531200
17614541088
17614545482
17614551464
17614558178
17614560497
17614569652
17614574230
17614580089
17614583812
17614590892
17614596874
17614602855
17614606334
17614613658
17614619091
17614625316
17614630687
17614638988
17614644115
17614648937
17614653331
17614659984
17614664317
17614670543
17614676647
17614684703
17614691295
17614697337
17614701976
17614708141
17614714305
17614720164
17614725047
17614733104
17614737987
17614744701
17614748973
17614752391
17614760264
17614765697
17614771678
17614777965
17614783641
17614790111
17614796153
17614800975
17614806773
17614811229
17614817027
17614822825
17614828502
17614834727
17614839976
17614846324
17614851634
17614857371
17614861583
17614868357
17614872569
17614880137
17614886790
17614892833
17614898631
17614904246
17614908885
17614914500
17614920420
17614931224
17614935923
17614943125
17614948374
17614953684
17614959788
17614969431
17614976573
17614982493
17614988780
17614994090
17615002696
17615004771
17615013804
17615020090
17615026255
17615033213
17615038645
17615044382
17615049204
17615052866
17615060129
17615065684
17615073496
17615080881
17615085398
17615090769
17615096750
17615102305
17615109263
17615114695
17615119944
17615124582
17615131540
17615136911
17615144053
17615148752
17615154123
17615161020
17615168467
17615173960
17615180185
17615185129
17615188913
17615196726
17615200510
17615208139
17615213510
17615219004
17615224130
17615229990
17615235422
17615241037
17615245798
17615249643
17615258310
17615265451
17615272409
17615277780
17615282419
17615286386
17615294565
17615298288
17615305124
17615311105
17615318002
17615322641
17615328806
17615333505
17615339609
17615345163
17615349313
17615355661
17615362436
17615367807
17615373056
17615378305
17615383981
17615389902
17615394723
17615400827
17615407846
17615415597
17615419992
17615426339
17615431527
17615438302
17615442941
17615446481
17615453988
17615459909
17615465768
17615469613
17615478036
17615484262
17615488900
17615493539
17615500558
17615505746
17615513131
17615517587
17615522714
17615529428
17615537911
17615545297
17615553658
17615559945
17615564034
17615573922
17615579659
17615587167
17615589669
17615601144
17615610177
17615615060
17615623299
17615628670
17615634957
17615641305
17615648019
17615654488
17615660287
17615665902
17615672799
17615677254
17615683419
17615690255
17615696419
17615702157
17615708382
17615714181
17615719979
17615724312
17615729866
17615735604
17615740792
17615745125
17615751839
17615756478
17615765023
17615769844
17615774727
17615780403
17615785775
17615789559
17615795113
17615800728
17615809212
17615813973
17615820442
17615825081
17615830879
17615836556
17615842415
17615848580
17615854805
17615861092
17615866707
17615873177
17615877754
17615883553
17615887093
17615895149
17615901070
17615907356
17615913155
17615919258
17615924019
17615929817
17615934456
17615941475
17615945686
17615953438
17615958687
17615963753
17615968941
17615974678
17615979805
17615983101
17615991157
17615995308
17616003120
17616007454
17616013435
17616018867
17616025398
17616031746
17616037117
17616042305
17616047737
17616053108
17616059272
17616064094
17616070808
17616075325
17616081733
17616086677
17616091621
17616100471
17616102302
17616111518
17616117500
17616121650
17616125068
17616135383
17616140266
17616147895
17616151924
17616161750
17616164985
17616172309
17616178108
17616185066
17616190559
17616197639
17616203254
17616210822
17616216132
17616222602
17616228095
17616234748
17616241645
17616247871
17616253364
17616260566
17616265815
17616272834
17616277289
17616283332
17616287604
17616294379
17616299445
17616305243
17616309821
17616314765
17616320014
17616324531
17616330573
17616336066
17616340949
17616346320
17616352851
17616357306
17616362555
17616367682
17616372382
17616377631
17616383673
17616389411
17616394904
17616398749
17616404547
17616408148
17616416083
17616419806
17616429144
17616433600
17616439154
17616444220
17616448554
17616452887
17616458808
17616463812
17616470526
17616475348
17616480841
17616484747
17616490973
17616495306
17616502386
17616510687
17616523321
17616531622
17616540778
17616549200
17616557318
17616564764
17616572577
17616580572
17616589361
17616600775
17616608526
17616615728
17616622076
17616628363
17616635748
17616644598
17616651373
17616660711
17616670233
17616677435
17616686346
17616693487
17616702398
17616710760
17616718206
17616727117
17616735418
17616743841
17616748663
17616758367
17616768133
17616775701
17616785040
17616791082
17616799993
17616807073
17616817571
17616825933
17616834356
