17294177650
17294187416
17294195778
17294203956
17294212562
17294221107
17294230751
17294238807
17294247535
17294256202
17294265113
17294273841
17294281104
17294288917
17294297523
17294305518
17294313453
17294320960
17294328040
17294337318
17294347266
17294354530
17294362769
17294371070
17294377845
17294386024
17294395179
17294403174
17294409705
17294416907
17294424598
17294432960
17294440894
17294448401
17294456885
17294464454
17294471412
17294478125
17294484595
17294492774
17294497596
17294506690
17294513770
17294519080
17294526648
17294533789
17294540930
17294546790
17294554724
17294564429
17294571448
17294578406
17294585364
17294592932
17294599829
17294607581
17294616309
17294623145
17294629675
17294636145
17294643042
17294651221
17294658606
17294667151
17294673132
17294680151
17294687537
17294693701
17294701697
17294708899
17294719214
17294726904
17294740637
17294751135
17294761816
17294773230
17294782446
17294790991
17294799475
17294807043
17294814062
17294822058
17294828955
17294838964
17294846166
17294854528
17294860754
17294869604
17294876928
17294884008
17294892553
17294900121
17294907263
17294914526
17294921789
17294927160
17294935522
17294944006
17294949621
17294957189
17294963659
17294969579
17294976476
17294982397
17294991247
17294998327
17295005834
17295012548
17295018041
17295024694
17295032750
17295037511
17295048253
17295057653
17295064306
17295069433
17295082128
17295091588
17295098607
17295107946
17295116979
17295125524
17295131627
17295139562
17295145604
17295152989
17295161351
17295168859
17295178014
17295187840
17295194249
17295202550
17295211217
17295219640
17295226659
17295234898
17295242101
17295250767
17295259984
17295267491
17295274327
17295282201
17295288792
17295296544
17295303380
17295312718
17295319859
17295328282
17295335850
17295343663
17295351109
17295358860
17295368016
17295376683
17295384434
17295392552
17295397923
17295408360
17295415440
17295425633
17295430455
17295441502
17295450718
17295459690
17295468540
17295488072
17295498448
17295509129
17295520908
17295529331
17295540440
17295550938
17295558567
17295566257
17295574802
17295582065
17295587559
17295594822
17295602390
17295609531
17295618137
17295624790
17295633518
17295640659
17295647251
17295655979
17295662449
17295668613
17295677097
17295683017
17295688999
17295696994
17295712680
17295721103
17295727939
17295735813
17295742404
17295748813
17295755893
17295763156
17295772922
17295779819
17295784213
17295794589
17295801914
17295807895
17295816135
17295824191
17295833041
17295841403
17295848605
17295855746
17295864047
17295872348
17295880282
17295888156
17295896152
17295904696
17295911593
17295916781
17295925570
17295933200
17295941134
17295951266
17295957614
17295965609
17295975924
17295983371
17295993686
17296000399
17296007724
17296017245
17296025363
17296032870
17296041781
17296047640
17296058871
17296068148
17296076998
17296085848
17296094271
17296105074
17296113497
17296123324
17296130831
17296139742
17296149020
17296159579
17296168978
17296176485
17296185580
17296193392
17296202486
17296209810
17296220492
17296227450
17296235445
17296244478
17296253939
17296261995
17296270113
17296276094
17296285067
17296292757
17296300814
17296307772
17296314608
17296321871
17296330660
17296339205
17296348482
17296356050
17296364290
17296371187
17296378755
17296385591
17296394258
17296403291
17296411836
17296418489
17296428011
17296435213
17296443941
17296450960
17296459749
17296468477
17296476472
17296484041
17296489961
17296500032
17296507173
17296515596
17296517976
17296528657
17296538118
17296546785
17296554658
17296562654
17296569612
17296577607
17296585176
17296591645
17296598359
17296608613
17296617585
17296623262
17296631135
17296638215
17296644197
17296651704
17296660005
17296667878
17296677461
17296685822
17296693269
17296699555
17296705537
17296712922
17296718537
17296725312
17296732026
17296736665
17296742890
17296750031
17296756074
17296761811
17296768281
17296775361
17296781830
17296787568
17296794526
17296801118
17296809479
17296815888
17296822602
17296829194
17296836884
17296842133
17296849884
17296856415
17296860077
17296869660
17296877045
17296882599
17296889191
17296895661
17296901703
17296907990
17296914826
17296922089
17296929779
17296935639
17296943756
17296950775
17296956818
17296962616
17296967682
17296972504
17296978546
17296984223
17296990509
17296995453
17297000336
17297005707
17297011627
17297018280
17297023407
17297028778
17297037018
17297042511
17297047577
17297053192
17297058197
17297063019
17297069794
17297074921
17297080353
17297085419
17297091217
17297097381
17297103485
17297108429
17297114044
17297120086
17297126556
17297132477
17297137603
17297143890
17297148224
17297153045
17297159393
17297165191
17297170196
17297175506
17297180755
17297186187
17297192169
17297196930
17297204193
17297210968
17297215606
17297221649
17297226409
17297232391
17297236419
17297242462
17297250274
17297256072
17297261871
17297267486
17297272674
17297276702
17297282012
17297288055
17297291961
17297297454
17297303008
17297308074
17297314361
17297319793
17297327361
17297331695
17297336089
17297343780
17297350494
17297356475
17297362395
17297368194
17297373382
17297380340
17297386687
17297392730
17297398650
17297403838
17297410491
17297416533
17297422637
17297428985
17297434417
17297439605
17297444671
17297448882
17297454558
17297460662
17297465178
17297472564
17297477385
17297483611
17297488799
17297494902
17297499419
17297505645
17297510771
17297516143
17297521697
17297527678
17297533782
17297539519
17297545012
17297549712
17297556243
17297560820
17297566191
17297571684
17297576506
17297582732
17297587431
17297595244
17297602690
17297606657
17297613860
17297620207
17297627043
17297632109
17297636198
17297643584
17297648833
17297655913
17297660612
17297667815
17297671721
17297678496
17297684904
17297689726
17297695524
17297700834
17297706267
17297712187
17297717253
17297722502
17297728666
17297733610
17297739592
17297743010
17297750700
17297756437
17297761808
17297766020
17297773527
17297779570
17297785429
17297789579
17297798490
17297805815
17297811491
17297816496
17297822050
17297828092
17297833769
17297839323
17297846159
17297852384
17297856718
17297863859
17297868253
17297877897
17297884794
17297889860
17297899015
17297906339
17297911771
17297917692
17297924039
17297930509
17297935148
17297942045
17297946928
17297953214
17297958402
17297964933
17297970365
17297976224
17297982694
17297988492
17297992826
17297999235
17298007535
17298014860
17298019864
17298024320
17298030790
17298036161
17298042936
17298046842
17298054532
17298060086
17298065641
17298070890
17298076688
17298082120
17298087979
17298093167
17298099942
17298107694
17298113309
17298119046
17298124662
17298130338
17298134915
17298141751
17298147794
17298152493
17298159146
17298165860
17298170987
17298175504
17298182034
17298185697
17298193509
17298200101
17298205533
17298211209
17298216519
17298223111
17298230313
17298235928
17298240628
17298248013
17298253262
17298258511
17298263577
17298269314
17298274808
17298282315
17298287320
17298292630
17298298062
17298303494
17298309964
17298316128
17298322415
17298327054
17298333889
17298337185
17298344388
17298350003
17298355679
17298362454
17298368130
17298373623
17298377957
17298384487
17298389737
17298397244
17298402737
17298408230
17298414639
17298421902
17298427456
17298432034
17298439236
17298445889
17298452236
17298456692
17298463467
17298470547
17298476345
17298482510
17298489346
17298494350
17298500149
17298504971
17298510586
17298515957
17298522366
17298527676
17298533962
17298539333
17298545925
17298550381
17298557644
17298563503
17298569301
17298574673
17298581447
17298586208
17298593654
17298599026
17298604641
17298610500
17298616298
17298623134
17298628383
17298632900
17298638332
17298644863
17298650661
17298656398
17298660915
17298668239
17298672634
17298678676
17298683193
17298689907
17298694606
17298702663
17298708522
17298714260
17298723293
17298727992
17298734462
17298739162
17298746852
17298752406
17298757839
17298763576
17298769191
17298775661
17298780238
17298787380
17298791530
17298799098
17298804286
17298810390
17298815089
17298822108
17298826747
17298833095
17298838039
17298844630
17298849696
17298855617
17298861964
17298867396
17298872829
17298878749
17298885158
17298891261
17298897670
17298902492
17298908839
17298913600
17298919825
17298925136
17298931422
17298936122
17298944178
17298949977
17298955348
17298960902
17298967189
17298974269
17298980189
17298986537
17298991664
17298999415
17299004054
17299011256
17299016078
17299024012
17299030299
17299035487
17299040919
17299046351
17299052271
17299059046
17299064417
17299070155
17299075587
17299081995
17299087611
17299092555
17299097620
17299104090
17299109950
17299113367
17299121241
17299127589
17299132777
17299137659
17299143580
17299148279
17299154871
17299160548
17299166590
17299172144
17299177332
17299183619
17299189539
17299194788
17299197901
17299204737
17299210108
17299215845
17299221399
17299226893
17299233545
17299238062
17299244898
17299251062
17299256250
17299261560
17299268213
17299273890
17299279016
17299283838
17299289209
17299292505
17299299280
17299305628
17299310694
17299317163
17299323145
17299330591
17299336511
17299341638
17299348596
17299354151
17299359705
17299365137
17299370874
17299376306
17299380090
17299387598
17299394617
17299399194
17299406824
17299411279
17299417200
17299421838
17299428613
17299433618
17299439477
17299442895
17299450708
17299456811
17299462121
17299467859
17299473169
17299477563
17299483789
17299489221
17299493799
17299499780
17299505578
17299512597
17299519983
17299526025
17299533654
17299539880
17299546716
17299551782
17299558496
17299562524
17299569665
17299576745
17299580957
17299587426
17299593286
17299598535
17299602746
17299608422
17299615197
17299620202
17299624536
17299631005
17299637231
17299642785
17299648400
17299652917
17299659753
17299663964
17299670617
17299676659
17299682092
17299686486
17299692101
17299699242
17299704858
17299709679
17299714684
17299719689
17299725060
17299730309
17299735375
17299741296
17299747277
17299752648
17299758324
17299764123
17299768761
17299773400
17299779259
17299787255
17299793236
17299797082
17299804711
17299811791
17299817528
17299823388
17299830468
17299836388
17299844567
17299850365
17299855980
17299860680
17299866539
17299873375
17299878075
17299884423
17299889366
17299896202
17299899620
17299908043
17299913597
17299919518
17299925255
17299930138
17299936852
17299941796
17299947655
17299953758
17299959129
17299964867
17299970177
17299976524
17299980797
17299988243
17299992882
17299999596
17300004845
17300011192
17300016869
17300022667
17300027428
17300033592
17300040428
17300048180
17300054222
17300060264
17300066490
17300075096
17300082664
17300092430
17300098411
17300103966
17300111290
17300117820
17300123558
17300128502
17300134239
17300140464
17300147911
17300153221
17300160179
17300165550
17300171775
17300178001
17300184349
17300189781
17300194786
17300200279
17300206932
17300213401
17300219078
17300224143
17300231101
17300235801
17300242332
17300247337
17300253074
17300258628
17300264365
17300270957
17300276450
17300281638
17300287498
17300294517
17300299400
17300305808
17300311546
17300317344
17300322044
17300328757
17300333701
17300340659
17300345969
17300352012
17300358176
17300363547
17300367576
17300375449
17300380271
17300385886
17300392905
17300397300
17300403586
17300409568
17300415366
17300419883
17300425437
17300431846
17300438681
17300444541
17300449912
17300453818
17300460349
17300465720
17300472617
17300478965
17300483481
17300489218
17300495749
17300501670
17300507468
17300513327
17300519553
17300524924
17300530966
17300537375
17300542746
17300549155
17300558737
17300564719
17300571127
17300576865
17300583945
17300589987
17300595847
17300602072
17300610251
17300616171
17300623068
17300627951
17300635641
17300640097
17300646567
17300653281
17300659384
17300666098
17300671713
17300676840
17300682638
17300688254
17300694052
17300700094
17300706686
17300711752
17300717184
17300723715
17300730063
17300735617
17300740072
17300746420
17300750998
17300757040
17300763754
17300769064
17300774191
17300779806
17300785238
17300791586
17300797201
17300802511
17300809103
17300813253
17300820089
17300825949
17300834066
17300841207
17300851461
17300859030
17300866598
17300873983
17300882711
17300890951
17300898580
17300907247
17300921590
17300941732
17300962484
17300982137
17301002157
17301022725
17301043416
17301064656
17301082357
17301103047
17301114217
17301123433
17301137959
17301155538
17301172444
17301188924
17301203999
17301212666
17301219624
17301228291
17301235982
17301244160
17301252156
17301262471
17301272236
17301280781
17301288838
17301297322
17301305256
17301313374
17301321309
17301331440
17301339558
17301347554
17301354206
17301364094
17301371357
17301383076
17301388325
17301400471
17301408467
17301415974
17301424153
17301432575
17301440083
17301448933
17301457234
17301463642
17301472248
17301479023
17301487873
17301497028
17301504963
17301509724
17301520893
17301533039
17301539204
17301548847
17301557209
17301564472
17301573932
17301582050
17301589557
17301598163
17301606708
17301615009
17301620624
17301630512
17301642170
17301649128
17301659992
17301667560
17301675556
17301686298
17301695392
17301704242
17301714679
17301722736
17301731220
17301739765
17301749957
17301758441
17301766925
17301775348
17301784381
17301792682
17301799091
17301808429
17301815082
17301824786
17301832477
17301842731
17301851153
17301860614
17301870379
17301879718
17301887347
17301895282
17301903277
17301912616
17301921100
17301930926
17301940265
17301948748
17301957598
17301965838
17301974444
17301981524
17301990863
17301999041
17302008135
17302016619
17302025591
17302035052
17302039019
17302051287
17302060198
17302068682
17302076678
17302084917
17302096148
17302104815
17302113604
17302124041
17302133257
17302142229
17302149004
17302159746
17302169817
17302177996
17302188982
17302195757
17302204668
17302214007
17302223284
17302231890
17302239702
17302248735
17302257158
17302266008
17302272722
17302284197
17302293840
17302302324
17302311724
17302318010
17302329241
17302337541
17302345476
17302354997
17302363847
17302372514
17302378801
17302389665
17302397844
17302405717
17302415422
17302423967
17302432695
17302437150
17302447526
17302452897
17302458879
17302464555
17302469682
17302475725
17302482316
17302487687
17302492997
17302499955
17302505693
17302512040
17302518144
17302523881
17302529863
17302534745
17302541154
17302545610
17302553788
17302559159
17302564775
17302572099
17302576982
17302583268
17302588029
17302594255
17302600663
17302607621
17302612443
17302618180
17302624833
17302629655
17302635758
17302640885
17302647355
17302651933
17302659806
17302665116
17302670609
17302677506
17302682816
17302689957
17302695084
17302701005
17302707169
17302712540
17302716569
17302724747
17302730607
17302736832
17302742692
17302748978
17302755570
17302761307
17302768632
17302774857
17302782242
17302787491
17302793839
17302799088
17302805192
17302810990
17302816727
17302822281
17302828080
17302834061
17302839615
17302845047
17302850357
17302856400
17302862381
17302868668
17302873734
17302880448
17302885575
17302891068
17302896683
17302902786
17302908341
17302915116
17302920487
17302926041
17302929825
17302937027
17302943741
17302948380
17302955216
17302960953
17302966507
17302971085
17302977493
17302982010
17302988235
17302993362
17303001114
17303006729
17303012222
17303017593
17303022903
17303028641
17303034195
17303040237
17303046402
17303052811
17303057693
17303063431
17303069107
17303075027
17303079910
17303086868
17303092972
17303098587
17303105118
17303109085
17303117019
17303121597
17303128372
17303133499
17303140518
17303145217
17303150833
17303157669
17303162307
17303169387
17303175491
17303182083
17303186843
17303192520
17303197097
17303203750
17303209304
17303215469
17303218643
17303226150
17303232620
17303237991
17303243484
17303250137
17303257522
17303261001
17303269058
17303274856
17303280959
17303287002
17303293533
17303300979
17303308791
17303314529
17303320449
17303326369
17303332229
17303338271
17303345595
17303351272
17303356399
17303361770
17303367202
17303372451
17303377944
17303384170
17303390029
17303396743
17303402480
17303407485
17303412063
17303418532
17303423232
17303430068
17303434768
17303442275
17303445449
17303452590
17303459426
17303465102
17303471083
17303475173
17303482192
17303486525
17303493666
17303499831
17303504470
17303510390
17303516615
17303521437
17303528517
17303533827
17303539137
17303542494
17303551894
17303558547
17303563124
17303569716
17303575636
17303581374
17303585890
17303591933
17303596876
17303604079
17303609755
17303616530
17303622206
17303627577
17303632704
17303637892
17303645033
17303652174
17303658217
17303663161
17303669081
17303675490
17303680739
17303686537
17303692762
17303698500
17303703993
17303709669
17303715040
17303721510
17303727613
17303733229
17303739454
17303745558
17303750257
17303756910
17303762159
17303768263
17303771742
17303778822
17303785047
17303791090
17303795179
17303802931
17303808607
17303814039
17303821363
17303828382
17303833326
17303839979
17303845228
17303851392
17303857801
17303867567
17303872144
17303878675
17303883253
17303889967
17303894849
17303902906
17303906141
17303913038
17303918592
17303924024
17303929639
17303935010
17303940504
17303946058
17303953016
17303957593
17303964429
17303970655
17303975538
17303979993
17303986463
17303991224
17303997815
17304002271
17304008802
17304014356
17304020704
17304026136
17304031507
17304037671
17304043348
17304048963
17304054761
17304059522
17304065381
17304071302
17304077832
17304083692
17304088758
17304095105
17304101636
17304106946
17304112134
17304119031
17304126233
17304132031
17304138257
17304142285
17304149060
17304153211
17304159497
17304165662
17304172009
17304177014
17304183545
17304189099
17304194226
17304199597
17304206067
17304212720
17304218213
17304223889
17304228039
17304234753
17304240552
17304247021
17304253247
17304258435
17304263501
17304268506
17304275219
17304280774
17304286206
17304293164
17304297619
17304305127
17304310254
17304315869
17304322094
17304328076
17304334973
17304340954
17304346142
17304353466
17304360668
17304366772
17304371899
17304382519
17304388623
17304393383
17304401379
17304406323
17304412731
17304419750
17304426708
17304432934
17304438488
17304444347
17304449658
17304456066
17304465344
17304469982
17304477795
17304480907
17304488415
17304494152
17304501781
17304507336
17304512157
17304519482
17304524670
17304530529
17304536205
17304541576
17304548473
17304554027
17304559459
17304564892
17304571300
17304575939
17304582226
17304589245
17304594555
17304599743
17304605663
17304612011
17304617687
17304624218
17304628490
17304635326
17304641979
17304647777
17304653148
17304659008
17304665416
17304672557
17304682140
17304689830
17304695995
17304701183
17304706676
17304713024
17304719005
17304724193
17304730296
17304737254
17304741771
17304748363
17304753978
17304760143
17304765819
17304771251
17304777477
17304783824
17304788707
17304793651
17304799876
17304805369
17304811229
17304817271
17304821666
17304829783
17304834483
17304841319
17304848399
17304852550
17304859447
17304862498
17304870189
17304877940
17304885569
17304891978
17304897288
17304905894
17304909861
17304918284
17304925853
17304932383
17304938609
17304943370
17304949412
17304956309
17304964122
17304970713
17304976756
17304982188
17304988413
17304994334
17304998850
17305005747
17305009165
17305018443
17305023631
17305029124
17305035532
17305041331
17305047068
17305053843
17305058604
17305063487
17305071726
17305077280
17305082713
17305089182
17305093516
17305099802
17305105662
17305112559
17305117869
17305123484
17305129954
17305135569
17305141550
17305147349
17305153574
17305158274
17305165964
17305171702
17305177378
17305184580
17305191172
17305196177
17305200754
17305208750
17305214670
17305220835
17305226328
17305234751
17305239878
17305246958
17305252268
17305258432
17305266001
17305272714
17305278635
17305283457
17305291025
17305296762
17305303293
17305310739
17305317392
17305323251
17305329660
17305334055
17305341196
17305348703
17305354013
17305359934
17305366037
17305372079
17305377573
17305385324
17305390756
17305395639
17305402292
17305408700
17305416208
17305423837
17305432016
17305439279
17305445932
17305450265
17305456552
17305460946
17305468271
17305474130
17305478341
17305484933
17305489694
17305495919
17305500253
17305505258
17305512094
17305517221
17305522409
17305528817
17305534005
17305539376
17305543405
17305549874
17305554879
17305559274
17305565499
17305571420
17305576608
17305581307
17305586862
17305593209
17305599130
17305603341
17305607614
17305614266
17305619332
17305626351
17305631295
17305636788
17305641915
17305647469
17305652657
17305658822
17305664559
17305668710
17305674691
17305680123
17305685311
17305690926
17305696664
17305701852
17305708077
17305712777
17305720345
17305727120
17305730477
17305737069
17305742013
17305747750
17305753060
17305758187
17305765084
17305769234
17305775582
17305781807
17305789010
17305794564
17305800789
17305804940
17305811409
17305816658
17305822152
17305830391
17305836312
17305842720
17305848885
17305856026
17305863777
17305870186
17305875435
17305884346
17305889046
17305896370
17305902718
17305908821
17305915413
17305921211
17305925423
17305934090
17305940071
17305946663
17305952461
17305958260
17305965828
17305970894
17305976936
17305982246
17305987373
17305992927
17305999275
17306004341
17306011726
17306017341
17306021980
17306027229
17306032966
17306038460
17306043464
17306048591
17306055000
17306060188
17306066353
17306073189
17306078254
17306084541
17306090461
17306094856
17306100227
17306105476
17306110542
17306117317
17306123054
17306128547
17306134529
17306138496
17306144538
17306149543
17306155586
17306159736
17306165840
17306171699
17306177864
17306183723
17306188850
17306195075
17306201057
17306207343
17306211860
17306218818
17306224494
17306229682
17306235481
17306241401
17306247016
17306251655
17306258735
17306264167
17306270209
17306275642
17306281196
17306285957
17306292243
17306298591
17306303290
17306308967
17306312324
17306319465
17306325080
17306329169
17306335822
17306341743
17306346808
17306351813
17306357551
17306360663
17306368476
17306372565
17306379035
17306384833
17306390815
17306396186
17306401374
17306407233
17306412543
17306418097
17306424262
17306429999
17306439460
17306445319
17306451483
17306458502
17306464179
17306468878
17306474433
17306479926
17306486762
17306492133
17306497992
17306503058
17306508551
17306514044
17306521979
17306527228
17306532477
17306536200
17306542487
17306546942
17306554205
17306559149
17306566290
17306573981
17306580878
17306586310
17306592535
17306598273
17306604315
17306609930
17306616095
17306621832
17306627569
17306632269
17306639960
17306647711
17306652350
17306657965
17306664129
17306669684
17306676092
17306680914
17306686651
17306692511
17306697210
17306702765
17306708136
17306713873
17306720343
17306725775
17306732428
17306737188
17306742681
17306748419
17306752630
17306760321
17306765386
17306769964
17306776495
17306781256
17306787359
17306793707
17306799688
17306805670
17306809942
17306816107
17306822454
17306827520
17306833257
17306837530
17306844793
17306850042
17306855108
17306860967
17306864141
17306871831
17306877264
17306883062
17306886968
17306893438
17306899358
17306905157
17306914861
17306921148
17306928106
17306934820
17306940984
17306951055
17306955633
17306962652
17306968328
17306974126
17306982610
17306988591
17306995122
17306999761
17307005559
17307010991
17307016118
17307021245
17307026616
17307033940
17307039678
17307044561
17307051274
17307055181
17307061833
17307065740
17307073796
17307078923
17307084477
17307089482
17307095647
17307099797
17307106267
17307111821
17307117375
17307123601
17307130010
17307135014
17307140935
17307146733
17307152287
17307158696
17307164006
17307170232
17307174626
17307181218
17307186284
17307193242
17307198674
17307204167
17307209538
17307215520
17307222233
17307227543
17307233037
17307239323
17307243779
17307249455
17307255742
17307261357
17307267705
17307272892
17307279118
17307284367
17307290837
17307296391
17307302494
17307308171
17307313298
17307319645
17307325505
17307329045
17307336674
17307342839
17307349064
17307354191
17307359562
17307365238
17307370671
17307377079
17307382389
17307388981
17307394230
17307399723
17307405216
17307411259
17307419499
17307424809
17307433231
17307440556
17307446659
17307453434
17307458317
17307464848
17307474003
17307479313
17307486576
17307490971
17307498722
17307505131
17307510319
17307516666
17307522159
17307526920
17307534183
17307539249
17307545170
17307548343
17307556888
17307562809
17307568607
17307574894
17307579349
17307585758
17307591556
17307597171
17307602237
17307608524
17307613285
17307620304
17307625431
17307631717
17307635623
17307642826
17307649173
17307655033
17307660648
17307666080
17307671451
17307677677
17307684207
17307688907
17307695865
17307700443
17307706851
17307712222
17307718082
17307723697
17307730838
17307736453
17307742130
17307747928
17307752017
17307758121
17307764224
17307769656
17307776858
17307783389
17307788638
17307794070
17307799991
17307804874
17307811465
17307814639
17307822452
17307827334
17307832522
17307838199
17307843997
17307849734
17307857119
17307863833
17307869204
17307874576
17307881106
17307885501
17307892215
17307899051
17307904239
17307908755
17307915347
17307919986
17307927127
17307932803
17307939090
17307945315
17307951174
17307958438
17307963931
17307972048
17307976870
17307983950
17307989443
17307996035
17308001101
17308007571
17308012454
17308020205
17308026064
17308032717
17308036990
17308043459
17308049502
17308055178
17308060793
17308066592
17308072329
17308078554
17308085574
17308092715
17308098818
17308104494
17308110110
17308116091
17308122256
17308129458
17308135378
17308141115
17308147524
17308153505
17308158877
17308166262
17308171206
17308176638
17308182863
17308188723
17308195131
17308201113
17308206179
17308212221
17308218203
17308222841
17308229189
17308235659
17308240786
17308246096
17308251955
17308257936
17308264101
17308269899
17308275209
17308280397
17308285829
17308292360
17308298708
17308305055
17308309511
17308315492
17308322267
17308326784
17308331361
17308337709
17308343507
17308350404
17308357179
17308362489
17308367677
17308373048
17308378419
17308385927
17308391969
17308396486
17308403383
17308408937
17308415224
17308418519
17308426881
17308432985
17308438661
17308444398
17308448549
17308455079
17308461122
17308466432
17308472535
17308477906
17308484193
17308489747
17308494203
17308500367
17308505555
17308515199
17308520814
17308527101
17308533387
17308539430
17308545045
17308550965
17308557496
17308564027
17308569764
17308574281
17308581300
17308588075
17308595582
17308601685
17308607057
17308613099
17308618470
17308624268
17308630006
17308635072
17308641297
17308647034
17308653382
17308658387
17308662781
17308670472
17308676270
17308682008
17308687501
17308694642
17308700257
17308704774
17308711548
17308716248
17308722413
17308728272
17308732667
17308738709
17308745179
17308750733
17308755738
17308760987
17308766419
17308770874
17308776856
17308782898
17308787476
17308794617
17308799500
17308804993
17308810059
17308816285
17308822571
17308827881
17308832398
17308837525
17308844178
17308850037
17308854431
17308860413
17308867737
17308870606
17308877930
17308881531
17308888428
17308893982
17308898010
17308904419
17308910523
17308916138
17308920288
17308925842
17308931763
17308936768
17308942139
17308948303
17308954468
17308958557
17308965576
17308969482
17308975708
17308982483
17308988342
17308993164
17308998779
17309003601
17309011230
17309016662
17309022522
17309028076
17309034057
17309041992
17309046692
17309054321
17309059814
17309067138
17309072815
17309078918
17309085937
17309092834
17309099548
17309104126
17309113464
17309119628
17309125671
17309131286
17309138000
17309142761
17309148742
17309155700
17309161621
17309167724
17309173705
17309178649
17309185058
17309191223
17309197875
17309204406
17309209289
17309216125
17309220825
17309228210
17309231506
17309240051
17309245788
17309251952
17309256835
17309262572
17309268249
17309274047
17309279235
17309286071
17309291442
17309296081
17309302978
17309308166
17309313781
17309320556
17309325011
17309332030
17309337829
17309342528
17309348510
17309353881
17309359801
17309365966
17309372313
17309378783
17309384642
17309390014
17309395751
17309401183
17309407408
17309411986
17309418639
17309423888
17309429808
17309435607
17309440612
17309446471
17309451964
17309459227
17309464537
17309470824
17309476256
17309482359
17309488646
17309493773
17309500365
17309506285
17309510802
17309517516
17309522398
17309528990
17309533507
17309540953
17309547179
17309552794
17309559691
17309565489
17309570311
17309574950
17309584105
17309589476
17309596007
17309601317
17309607359
17309613096
17309618956
17309625303
17309631102
17309638487
17309643065
17309649778
17309655699
17309661436
17309666075
17309673582
17309678831
17309684507
17309689573
17309695921
17309701414
17309707029
17309712950
17309719419
17309726133
17309730223
17309737242
17309743101
17309748838
17309753355
17309759641
17309764829
17309771848
17309775755
17309782224
17309787473
17309793211
17309800474
17309807371
17309811765
17309817564
17309823911
17309828428
17309834348
17309838865
17309845213
17309850156
17309858274
17309861753
17309868772
17309874204
17309879636
17309886350
17309893003
17309898252
17309903989
17309910886
17309915769
17309921323
17309926755
17309932920
17309939390
17309944822
17309951474
17309955930
17309962522
17309968503
17309973996
17309979673
17309986203
17309991269
17309997739
17310003293
17310009153
17310015439
17310022092
17310027646
17310031736
17310038510
17310044431
17310049558
17310056333
17310061826
17310069089
17310074582
17310080686
17310084836
17310091977
17310096250
17310102536
17310108334
17310114987
17310120602
17310128110
17310131406
17310139279
17310145566
17310151791
17310158688
17310163327
17310172299
17310177426
17310183774
17310188412
17310195126
17310200314
17310207028
17310212033
17310217404
17310222531
17310229001
17310235043
17310240841
17310247189
17310251217
17310257809
17310263669
17310269040
17310275021
17310280148
17310287106
17310292599
17310299008
17310304318
17310309689
17310315304
17310320675
17310326596
17310333615
17310339413
17310344723
17310350704
17310355892
17310362789
17310368466
17310373165
17310379269
17310384457
17310390743
17310393917
17310402218
17310407650
17310412167
17310420101
17310424557
17310431576
17310436031
17310442318
17310446957
17310453304
17310458187
17310464474
17310471126
17310478573
17310485653
17310490108
17310496334
17310503048
17310509212
17310513729
17310519832
17310526607
17310532161
17310537349
17310543453
17310548824
17310554256
17310561031
17310566890
17310571956
17310577694
17310584591
17310590816
17310596492
17310602291
17310608211
17310612789
17310618465
17310625057
17310632198
17310637569
17310643184
17310648921
17310654476
17310660213
17310666072
17310673641
17310681880
17310689082
17310696285
17310701961
17310706600
17310714473
17310721919
17310726863
17310733943
17310739803
17310745113
17310751338
17310757198
17310761775
17310768184
17310773189
17310780147
17310785274
17310790584
17310796199
17310802485
17310807796
17310815486
17310821040
17310826472
17310831721
17310837520
17310843074
17310848872
17310855098
17310860896
17310866023
17310871760
17310877986
17310883174
17310888850
17310893977
17310900386
17310906611
17310911982
17310917170
17310922724
17310928584
17310934870
17310940669
17310946894
17310952387
17310956965
17310963862
17310968989
17310974055
17310978571
17310985468
17310990840
17310996211
17311002741
17311008662
17311012751
17311019770
17311025690
17311031550
17311036860
17311042841
17311047968
17311053950
17311059809
17311064387
17311071406
17311076838
17311082514
17311088068
17311093439
17311100336
17311106562
17311111262
17311117975
17311123346
17311127924
17311134333
17311140802
17311146174
17311150202
17311157343
17311163874
17311169733
17311174860
17311181147
17311186701
17311193537
17311199274
17311204218
17311209955
17311216425
17311223505
17311230707
17311235468
17311244379
17311251581
17311258295
17311263971
17311270990
17311276178
17311283869
17311289484
17311296503
17311302118
17311308099
17311314142
17311319513
17311325006
17311330621
17311336786
17311342645
17311348016
17311353509
17311358758
17311364740
17311370355
17311375116
17311382440
17311388055
17311393793
17311398858
17311404291
17311410699
17311416131
17311421380
17311427057
17311433526
17311439081
17311444757
17311450982
17311456476
17311462762
17311468133
17311474603
17311479486
17311486016
17311491876
17311497430
17311503411
17311509027
17311514825
17311520440
17311526666
17311532525
17311538079
17311543878
17311549676
17311554193
17311560052
17311566339
17311571282
17311578362
17311582818
17311588921
17311593377
17311599786
17311606194
17311612664
17311616509
17311623956
17311629754
17311635613
17311640313
17311646477
17311651299
17311657281
17311663567
17311668450
17311674676
17311679009
17311685845
17311693719
17311697869
17311703789
17311709344
17311716057
17311720452
17311727837
17311733574
17311739007
17311743950
17311749321
17311756890
17311761040
17311768914
17311775444
17311782341
17311791497
17311796318
17311803398
17311809014
17311816338
17311823662
17311829033
17311833611
17311839409
17311847771
17311854485
17311860039
17311866692
17311871514
17311876274
17311883659
17311888725
17311894463
17311900383
17311905815
17311912712
17311918449
17311925041
17311929619
17311936089
17311942009
17311947319
17311953667
17311958305
17311964775
17311970390
17311976738
17311982597
17311986809
17311992912
17311999687
17312005119
17312013908
17312019706
17312025505
17312030571
17312036430
17312043388
17312049614
17312052971
17312060539
17312067192
17312072685
17312077934
17312083427
17312089408
17312094780
17312100578
17312106803
17312112663
17312118766
17312123710
17312129814
17312135002
17312140434
17312146171
17312152702
17312158561
17312163200
17312170524
17312177421
17312182914
17312188834
17312192008
17312198905
17312205192
17312210990
17312216422
17312223014
17312228080
17312234428
17312239555
17312243888
17312251945
17312257011
17312262809
17312268607
17312274650
17312279960
17312285148
17312290519
17312297355
17312303031
17312308585
17312316031
17312321341
17312328422
17312334952
17312342826
17312349540
17312354972
17312361564
17312366324
17312373587
17312379996
17312386161
17312391593
17312396720
17312402030
17312408377
17312412467
17312419364
17312424674
17312431937
17312436759
17312443411
17312448538
17312454642
17312460257
17312465750
17312472342
17312478262
17312484122
17312490592
17312501578
17312515189
17312525992
17312535147
17312543509
17312551504
17312559927
17312567923
17312576529
17312583670
17312588614
17312594351
17312599722
17312605276
17312610281
17312616079
17312621939
17312628225
17312633474
17312639029
17312644644
17312649832
17312655081
17312660635
17312665518
17312673147
17312676260
17312683950
17312688894
17312694082
17312699820
17312706533
17312712393
17312717092
17312723745
17312728628
17312735159
17312738821
17312745352
17312752004
17312757620
17312763662
17312768545
17312774282
17312779104
17312785757
17312791555
17312797292
17312802236
17312806387
17312812612
17312817007
17312823110
17312829946
17312835317
17312841360
17312846670
17312852346
17312856740
17312864492
17312872365
17312878164
17312885183
17312892019
17312900197
17312908315
17312914235
17312921438
17312927419
17312932790
17312939199
17312944936
17312950673
17312955922
17312962941
17312969289
17312975209
17312980458
17312985585
17312993093
17312999440
17313004628
17313010182
17313015370
17313021596
17313026235
17313032826
17313037221
17313044667
17313050099
17313055287
17313059194
17313065358
17313070607
17313076344
17313082814
17313087270
17313093739
17313098866
17313104665
17313107900
17313115346
17313122121
17313127065
17313133168
17313138722
17313144337
17313147816
17313155385
17313161488
17313165700
17313172414
17313178212
17313183217
17313187550
17313194874
17313200673
17313205739
17313211171
17313217091
17313222889
17313228505
17313233510
17313238270
17313244069
17313249562
17313255116
17313260121
17313267018
17313272511
17313278126
17313284291
17313289845
17313295765
17313301136
17313306385
17313312001
17313319142
17313325306
17313330189
17313336842
17313341236
17313348438
17313353748
17313359242
17313365406
17313371693
17313381825
17313389088
17313394520
17313403675
17313412464
17313419422
17313424366
17313430653
17313437611
17313443104
17313447742
17313453663
17313459827
17313465259
17313470631
17313475818
17313481617
17313488025
17313494190
17313499317
17313505237
17313510059
17313515980
17313522205
17313527454
17313532154
17313537830
17313543628
17313549488
17313554493
17313561512
17313566944
17313572559
17313578296
17313583606
17313589710
17313595142
17313600513
17313607776
17313613513
17313617603
17313623645
17313629383
17313635303
17313640735
17313646655
17313652332
17313657825
17313664173
17313669177
17313674426
17313680896
17313686328
17313690845
17313697681
17313701099
17313708545
17313714221
17313719653
17313726062
17313732288
17313737659
17313742664
17313748401
17313754687
17313760242
17313765552
17313771106
17313776172
17313780688
17313787890
17313792651
17313798144
17313802905
17313810962
17313816089
17313821155
17313826770
17313831164
17313838061
17313844775
17313850451
17313854052
17313860827
17313866198
17313871203
17313879687
17313886401
17313891711
17313898974
17313907458
17313913562
17313920825
17313929431
17313935534
17313944628
17313951220
17313957751
17313964098
17313970263
17313976061
17313981799
17313987353
17313993395
17313999682
17314004992
17314012499
17314018114
17314025133
17314031176
17314035693
17314041796
17314047045
17314053454
17314058642
17314064623
17314068896
17314073412
17314079638
17314082934
17314091601
17314097033
17314101061
17314107775
17314112719
17314118090
17314122057
17314125353
17314130663
17314135302
17314139513
17314143786
17314148424
17314152819
17314157091
17314161425
17314164965
17314169847
17314174242
17314177416
17314181627
17314184740
17314189318
17314194628
17314199205
17314203356
17314207567
17314211656
17314215746
17314219774
17314223802
17314227953
17314232591
17314236559
17314239916
17314243578
17314246996
17314251085
17314257189
17314260607
17314264391
17314268602
17314272691
17314275804
17314279527
17314283861
17314288500
17314293443
17314297838
17314302538
17314308519
17314313097
17314316881
17314323106
17314327379
17314332811
17314340196
17314344591
17314350572
17314356065
17314364000
17314369432
17314375047
17314380113
17314385057
17314390184
17314395799
17314399461
17314404710
17314410447
17314415025
17314420091
17314424119
17314429185
17314435411
17314440416
17314445115
17314449754
17314454698
17314459398
17314464158
17314469468
17314473680
17314478257
17314483140
17314487901
17314492112
17314496507
17314501634
17314506761
17314511155
17314516770
17314521287
17314525865
17314531541
17314535813
17314539842
17314545396
17314549180
17314554185
17314559373
17314565232
17314569810
17314574082
17314578294
17314583848
17314588548
17314594285
17314598740
17314604050
17314608079
17314612046
17314618272
17314623093
17314627976
17314633286
17314638108
17314644395
17314649338
17314654221
17314658616
17314666489
17314671372
17314677415
17314682175
17314686631
17314692246
17314697251
17314702744
17314708664
17314712998
17314719895
17314725022
17314729660
17314734543
17314739548
17314746384
17314751450
17314757615
17314764145
17314769577
17314775803
17314779465
17314787522
17314793198
17314799790
17314808762
17314812790
17314821579
17314827439
17314834641
17314839585
17314847214
17314852524
17314856247
17314863571
17314870773
17314874497
17314880966
17314885605
17314895126
17314898300
17314904587
17314907822
17314914658
17314917648
17314925156
17314931076
17314936325
17314940658
17314945969
17314950241
17314955612
17314959518
17314966415
17314971786
17314977218
17314978988
17314987167
17314993332
17314997360
17315002731
17315008713
17315014206
17315020675
17315026718
17315032150
17315037460
17315044357
17315050460
17315057296
17315063949
17315068222
17315074935
17315079940
17315086166
17315091110
17315098434
17315103927
17315109664
17315116561
17315124008
17315129501
17315133712
17315140853
17315147323
17315152084
17315157638
17315165817
17315170699
17315178268
17315182845
17315188949
17315194320
17315199569
17315205917
17315213363
17315217513
17315224960
17315230697
17315236556
17315241622
17315248580
17315254561
17315260665
17315265853
17315272628
17315278182
17315284041
17315288680
17315295577
17315302413
17315309432
17315314742
17315322493
17315327437
17315333724
17315339583
17315345015
17315352034
17315358504
17315363448
17315370101
17315372298
17315382247
17315387801
17315400679
17315404647
17315413680
17315420760
17315429671
17315435408
17315441573
17315443892
17315453230
17315456404
17315464034
17315468855
17315475996
17315479659
17315486006
17315489119
17315495711
17315499007
17315506392
17315513472
17315517866
17315523115
17315529768
17315532881
17315541304
17315545027
17315551741
17315556929
17315562605
17315567366
17315572920
17315579634
17315584639
17315588972
17315594465
17315602461
17315608381
17315614851
17315620527
17315624861
17315630842
17315636335
17315641218
17315645430
17315653608
17315658369
17315664778
17315669722
17315675093
17315679731
17315684309
17315690718
17315696638
17315703352
17315708967
17315714704
17315721418
17315726789
17315732038
17315739790
17315746198
17315754682
17315760603
17315767194
17315774336
17315779829
17315784528
17315788191
17315796613
17315803938
17315809187
17315814619
17315820722
17315827680
17315833295
17315838789
17315844709
17315852338
17315858442
17315864118
17315869184
17315873456
17315880475
17315885053
17315891218
17315895795
17315901899
17315908307
17315913862
17315920087
17315924909
17315930951
17315935285
17315942487
17315947675
17315956159
17315959272
17315967511
17315973737
17315979352
17315984540
17315990766
17315998944
17316006513
17316012921
17316021527
17316027692
17316034223
17316040753
17316048993
17316056745
17316062665
17316066388
17316072308
17316076886
17316083051
17316086224
17316093610
17316099835
17316105084
17316109174
17316114484
17316119733
17316124188
17316129742
17316134869
17316143719
17316148358
17316151166
17316160382
17316165875
17316171185
17316175458
17316181012
17316189557
17316194195
17316199627
17316205060
17316210370
17316215497
17316220501
17316227276
17316232403
17316239056
17316244244
17316251080
17316255902
17316260601
17316266583
17316271527
17316276776
17316282086
17316288433
17316293011
17316299725
17316304302
17316309796
17316314312
17316320294
17316327313
17316332012
17316338238
17316342388
17316348248
17316353069
17316356915
17316364971
17316373272
17316378277
17316381573
17316389874
17316394024
17316399517
17316405254
17316411236
17316416729
17316422832
17316429424
17316434673
17316440655
17316445415
17316450054
17316456646
17316462871
17316469219
17316475323
17316481365
17316485760
17316489177
17316496380
17316503460
17316510357
17316515484
17316519390
17316522808
17316531170
17316534954
17316543254
17316546428
17316553508
17316560344
17316566387
17316569805
17316577068
17316582927
17316588542
17316596721
17316602886
17316609477
17316616252
17316622966
17316629253
17316635112
17316641033
17316644512
17316651714
17316657878
17316664470
17316669719
17316674785
17316679973
17316685710
17316691081
17316697185
17316702861
17316708537
17316713298
17316719096
17316725810
17316730510
17316736064
17316741374
17316746379
17316753764
17316758952
17316765300
17316769450
17316772685
17316780620
17316783915
17316791789
17316795634
17316802775
17316806193
17316814067
17316819804
17316823954
17316829203
17316835917
17316841105
17316848002
17316853068
17316858622
17316862895
17316869792
17316876445
17316882182
17316887004
17316893412
17316897624
17316903788
17316907939
17316913188
17316919657
17316924357
17316929972
17316938761
17316944071
17316949198
17316955973
17316961283
17316965861
17316971781
17316976908
17316981547
17316989726
17316994852
17317000712
17317006754
17317011149
17317017191
17317020914
17317027628
17317035013
17317041422
17317047159
17317052469
17317058024
17317062784
17317067179
17317073527
17317080607
17317087076
17317092875
17317098551
17317103922
17317109964
17317116373
17317121256
17317126505
17317135477
17317140482
17317144022
17317152567
17317156961
17317165201
17317171549
17317177286
17317182413
17317194132
17317200479
17317207559
17317213724
17317218668
17317225748
17317230753
17317238504
17317244974
17317250223
17317256571
17317260843
17317268106
17317271341
17317280069
17317284097
17317292276
17317295633
17317302164
17317306924
17317312967
17317318094
17317323343
17317330667
17317336038
17317340799
17317346780
17317352029
17317357522
17317361673
17317368143
17317373147
17317380350
17317385171
17317392007
17317396280
17317400491
17317408120
17317413553
17317417825
17317424417
17317430276
17317434365
17317440530
17317446206
17317451394
17317456399
17317462625
17317470193
17317476113
17317481546
17317487588
17317492898
17317499063
17317503640
17317509744
17317516213
17317523477
17317528604
17317534463
17317539956
17317545754
17317550027
17317556130
17317561562
17317569619
17317574624
17317579629
17317585915
17317590981
17317596719
17317599892
17317607949
17317614114
17317618935
17317624734
17317629616
17317634560
17317640847
17317645608
17317651955
17317657876
17317665139
17317671120
17317676247
17317682351
17317686440
17317693093
17317698159
17317704812
17317710549
17317718117
17317723549
17317728554
17317735573
17317740151
17317743935
17317752724
17317759560
17317765297
17317771096
17317777504
17317783974
17317789955
17317796059
17317803932
17317811501
17317818459
17317826027
17317830422
17317836220
17317843971
17317848549
17317854775
17317860512
17317866676
17317871986
17317875893
17317881386
17317886024
17317891884
17317897682
17317904152
17317909157
17317913856
17317920509
17317925880
17317930702
17317935829
17317941994
17317949379
17317954628
17317960182
17317965797
17317970131
17317976417
17317980995
17317987770
17317992347
17317999977
17318004493
17318008522
17318015907
17318021888
17318025978
17318031471
17318036781
17318043800
17318050270
17318054054
17318060951
17318066688
17318072608
17318077369
17318082740
17318090370
17318095497
17318100746
17318106910
17318111671
17318118812
17318123634
17318129981
17318135536
17318143104
17318148231
17318152076
17318159827
17318163123
17318171119
17318177528
17318182166
17318187782
17318196387
17318200721
17318206763
17318212806
17318218299
17318224219
17318230994
17318237647
17318243873
17318248206
17318254005
17318259559
17318264564
17318270423
17318278296
17318285682
17318291846
17318295508
17318303931
17318309302
17318315040
17318318641
17318326636
17318333594
17318339026
17318344153
17318350806
17318355017
17318361060
17318367408
17318373206
17318377967
17318387488
17318393836
17318401404
17318407324
17318412634
17318419104
17318424048
17318432044
17318439368
17318444800
17318451575
17318456274
17318461890
17318467871
17318472571
17318478308
17318485083
17318491858
17318497229
17318502051
17318508154
17318513342
17318517981
17318523962
17318528845
17318535254
17318539892
17318545996
17318550268
17318555823
17318562353
17318566382
17318573157
17318580664
17318586889
17318591406
17318597021
17318602820
17318607885
17318613440
17318620459
17318626745
17318634497
17318639441
17318644567
17318649633
17318654821
17318660925
17318665258
17318672216
17318678747
17318683630
17318689245
17318699804
17318705480
17318710180
17318717626
17318722814
17318729589
17318734106
17318737402
17318745397
17318748998
17318755956
17318761205
17318767614
17318775488
17318782018
17318787145
17318792455
17318799047
17318803625
17318810400
17318816320
17318821264
17318828588
17318833166
17318838903
17318845251
17318848485
17318855077
17318859716
17318865026
17318872716
17318878942
17318883947
17318889928
17318894994
17318901830
17318907140
17318911840
17318919896
17318927404
17318933812
17318938085
17318944616
17318950963
17318956029
17318961400
17318966832
17318970861
17318980138
17318983800
17318991002
17318994176
17319002049
17319008824
17319014623
17319021947
17319029759
17319035802
17319041539
17319046361
17319053502
17319058751
17319066197
17319071080
17319078893
17319085362
17319095494
17319102696
17319109227
17319115269
17319121922
17319127110
17319132176
17319137242
17319142857
17319147374
17319152379
17319156773
17319161595
17319166112
17319171483
17319176487
17319180882
17319185215
17319190037
17319195286
17319200169
17319206456
17319212132
17319215916
17319221775
17319226170
17319231724
17319237950
17319243077
17319248509
17319254856
17319259861
17319264805
17319268711
17319274143
17319279698
17319284275
17319288792
17319295811
17319300572
17319307102
17319312046
17319318150
17319323643
17319329136
17319335789
17319342686
17319347569
17319353794
17319358067
17319364170
17319369175
17319372349
17319380466
17319387913
17319392551
17319398167
17319403233
17319407810
17319414158
17319419285
17319424778
17319429844
17319436497
17319443027
17319447666
17319454441
17319459019
17319464634
17319469028
17319475559
17319481174
17319485325
17319491977
17319496677
17319503208
17319508579
17319514804
17319519687
17319527500
17319533237
17319539707
17319545078
17319550510
17319556797
17319562900
17319568332
17319575962
17319582553
17319588108
17319592990
17319601657
17319607334
17319612399
17319618503
17319625522
17319630771
17319636691
17319643039
17319648532
17319652866
17319656223
17319664218
17319671848
17319676547
17319679904
17319689304
17319692477
17319700046
17319703525
17319709933
17319714877
17319720737
17319726108
17319732944
17319737460
17319742709
17319747043
17319753329
17319759921
17319765597
17319771396
17319778964
17319785312
17319789279
17319796664
17319800937
17319808200
17319814914
17319819491
17319823092
17319831820
17319835055
17319840853
17319845858
17319853610
17319860141
17319866000
17319870761
17319876498
17319880953
17319888156
17319894259
17319899447
17319904635
17319912020
17319917086
17319920931
17319930026
17319933321
17319941439
17319947543
17319952181
17319957919
17319964816
17319970431
17319976412
17319981112
17319986605
17319992281
17319997774
17320003023
17320009615
17320014559
17320020418
17320025484
17320028658
17320036959
17320042757
17320048128
17320053805
17320061190
17320066439
17320070711
17320076693
17320081514
17320086397
17320093111
17320097872
17320104952
17320111544
17320116243
17320120882
17320127413
17320132540
17320138643
17320145113
17320149446
17320157564
17320162081
17320169039
17320175386
17320181307
17320187593
17320193819
17320201875
17320207918
17320216768
17320221590
17320224703
17320232759
17320237825
17320243562
17320249849
17320256868
17320261446
17320267610
17320272981
17320277864
17320283662
17320291292
17320294771
17320302522
17320308137
17320313081
17320318330
17320323823
17320328523
17320335054
17320341951
17320347566
17320352205
17320358552
17320363557
17320369539
17320373994
17320377412
17320385530
17320391572
17320397798
17320402803
17320408723
17320413667
17320419648
17320423616
17320429658
17320433747
17320440156
17320443635
17320450959
17320455049
17320462129
17320465242
17320472261
17320478242
17320484956
17320490449
17320496186
17320502107
17320508149
17320512605
17320519807
17320527619
17320533784
17320538178
17320542512
17320547639
17320554170
17320558564
17320564057
17320568452
17320575593
17320580537
17320584077
17320591523
17320595002
17320600251
17320605927
17320612702
17320618073
17320625092
17320630036
17320636689
17320641144
17320646577
17320651276
17320654816
17320662262
17320669037
17320674225
17320679047
17320685029
17320690155
17320695588
17320699982
17320705903
17320711274
17320719086
17320723908
17320729340
17320734833
17320739533
17320743561
17320749115
17320754425
17320762177
17320769928
17320777436
17320784699
17320791168
17320797455
17320804535
17320810211
17320816620
17320823029
17320831513
17320835846
17320843842
17320849396
17320854401
17320862579
17320867950
17320874969
17320880951
17320884857
17320893707
17320900116
17320907745
17320913849
17320918365
17320924530
17320929046
17320935394
17320940887
17320945099
17320951202
17320959381
17320964508
17320970306
17320974945
17320980865
17320988006
17320991668
17320997284
17321002411
17321009063
17321013946
17321020965
17321026764
17321032684
17321037628
17321044158
17321050079
17321058074
17321062103
17321067535
17321073333
17321078704
17321086151
17321091644
17321098052
17321103362
17321108184
17321115692
17321121246
17321127532
17321131744
17321139495
17321144378
17321151519
17321156890
17321163299
17321168792
17321172454
17321181426
17321187530
17321193084
17321199065
17321206390
17321212310
17321216521
17321224456
17321230315
17321235137
17321242522
17321247710
17321254180
17321261260
17321266814
17321274566
17321280303
17321287322
17321293303
17321301360
17321307402
17321312102
17321322417
17321331206
17321337493
17321343718
17321352446
17321359465
17321364836
17321374236
17321381560
17321390288
17321397612
17321414824
17321425993
17321434905
17321447661
17321455473
17321464384
17321472380
17321479094
17321490568
17321496672
17321510832
17321518339
17321521757
17321533781
17321542509
17321549650
17321557280
17321563872
17321571379
17321576872
17321588163
17321592558
17321600615
17321607145
17321612638
17321620329
17321622953
17321632719
17321639860
17321647551
17321654325
17321659574
17321667997
17321670500
17321680998
17321685453
17321693632
17321701628
17321707731
17321716215
17321722685
17321728666
17321733183
17321742582
17321749296
17321755460
17321762479
17321774198
17321781828
17321788419
17321795316
17321804044
17321811124
17321818143
17321823881
17321833219
17321844571
17321853483
17321860257
17321870023
17321876554
17321881559
17321890836
17321898526
17321906400
17321913907
17321922452
17321932706
17321940519
17321948514
17321954984
17321962064
17321968595
17321976590
17321982633
17321995999
17322002896
17322011380
17322019864
17322027127
17322032559
17322042447
17322051175
17322057828
17322063321
17322074918
17322082669
17322089139
17322097256
17322102200
17322110928
17322118130
17322123929
17322134122
17322145047
17322151455
17322158597
17322166714
17322176175
17322183438
17322196316
17322204312
17322208279
17322220913
17322226712
17322238613
17322244595
17322252163
17322260342
17322267056
17322276211
17322283352
17322291653
17322299648
17322302700
17322314907
17322324368
17322332363
17322338100
17322348232
17322355801
17322362576
17322370144
17322382534
17322391872
17322397304
17322406399
17322424404
17322440517
17322453884
17322460048
17322470546
17322477749
17322486049
17322491604
17322499721
17322504360
17322511867
17322518398
17322525173
17322533962
17322539821
17322542018
17322550563
17322554775
17322561977
17322566982
17322571987
17322578945
17322584682
17322589931
17322596218
17322602016
17322606838
17322613368
17322618434
17322623622
17322631252
17322636195
17322643275
17322647731
17322654201
17322659572
17322666896
17322671046
17322677943
17322681728
17322689174
17322694911
17322701076
17322704799
17322712123
17322715785
17322723048
17322728969
17322734035
17322739711
17322746852
17322750819
17322758571
17322764979
17322771632
17322775050
17322782130
17322785914
17322793666
17322797877
17322805690
17322809535
17322816920
17322822413
17322827906
17322833522
17322840419
17322846278
17322851161
17322858485
17322862391
17322869776
17322875331
17322880702
17322887538
17322892787
17322899378
17322904078
17322910426
17322914942
17322920435
17322925745
17322931666
17322937342
17322942408
17322948023
17322955714
17322961146
17322966029
17322973597
17322978175
17322985133
17322989588
17322994837
17323002528
17323008387
17323014368
17323018641
17323025171
17323029322
17323038416
17323043482
17323052515
17323058313
17323066614
17323071009
17323080896
17323087549
17323094141
17323103907
17323110254
17323119715
17323127283
17323133570
17323142054
17323148584
17323158167
17323163599
17323169580
17323175073
17323178675
17323184778
17323189234
17323194788
17323198877
17323205835
17323209192
17323214746
17323220117
17323224878
17323229028
17323233362
17323237756
17323242273
17323247766
17323251611
17323257959
17323262476
17323267847
17323273401
17323278711
17323284509
17323290491
17323295068
17323299890
17323305322
17323310327
17323314783
17323320459
17323326318
17323331750
17323335901
17323341455
17323347070
17323351281
17323356775
17323361902
17323367029
17323374475
17323381067
17323386132
17323390527
17323396569
17323402673
17323408288
17323412866
17323420495
17323425134
17323430993
17323435876
17323445642
17323451745
17323458703
17323462915
17323469750
17323475976
17323483666
17323488976
17323494348
17323500756
17323505517
17323511987
17323517236
17323524438
17323529809
17323535973
17323540917
17323546838
17323552331
17323557885
17323562951
17323571191
17323576440
17323582665
17323586816
17323591942
17323597558
17323602624
17323608727
17323614953
17323619897
17323627282
17323634484
17323638817
17323644616
17323650780
17323656395
17323663720
17323672509
17323676842
17323680687
17323686303
17323691491
17323696129
17323701744
17323708763
17323713890
17323719384
17323725731
17323730248
17323734154
17323739647
17323745323
17323750878
17323755333
17323761009
17323766503
17323771691
17323777794
17323781944
17323788536
17323794945
17323801720
17323807701
17323812035
17323817772
17323823814
17323828514
17323834435
17323840355
17323846153
17323851219
17323857567
17323862389
17323868065
17323872459
17323879112
17323884422
17323891807
17323896690
17323903404
17323909691
17323914085
17323919700
17323923790
17323930931
17323938743
17323944847
17323949608
17323955528
17323960106
17323966026
17323971336
17323978050
17323984764
17323990806
17323994407
17324000694
17324007591
17324012535
17324016868
17324022972
17324028770
17324036338
17324041465
17324047691
17324051902
17324057640
17324063072
17324067588
17324074119
17324080161
17324084678
17324090293
17324095725
17324101341
17324108543
17324114524
17324119468
17324124778
17324131309
17324136680
17324144798
17324148887
17324156699
17324161887
17324168540
17324174033
17324179587
17324184714
17324192222
17324197166
17324201682
17324208945
17324215842
17324222068
17324228171
17324237021
17324243003
17324249473
17324253257
17324261435
17324265220
17324272605
17324278464
17324286338
17324292380
17324301291
17324304953
17324311850
17324316489
17324323142
17324328940
17324335349
17324340171
17324344992
17324351340
17324356955
17324361289
17324367575
17324372458
17324379721
17324384604
17324391318
17324397360
17324402121
17324407919
17324409811
17324419089
17324426596
17324430869
17324437277
17324441916
17324447897
17324452597
17324457358
17324463522
17324470541
17324475973
17324481467
17324486838
17324491171
17324496847
17324503500
17324508444
17324513022
17324519613
17324524374
17324528097
17324535605
17324541281
17324546103
17324552755
17324557028
17324564352
17324569113
17324572348
17324579672
17324585348
17324591024
17324595846
17324602316
17324607321
17324613974
17324619039
17324624166
17324630392
17324635092
17324641439
17324646994
17324653402
17324658834
17324665853
17324672445
17324677145
17324683370
17324689230
17324693136
17324700765
17324706197
17324714803
17324719076
17324725179
17324730550
17324736227
17324742635
17324747640
17324752706
17324758932
17324765523
17324769857
17324775838
17324782003
17324788534
17324794881
17324799398
17324807821
17324816244
17324822469
17324830037
17324837789
17324847066
17324854268
17324859517
17324871419
17324879293
17324889974
17324895406
17324904500
17324913900
17324920552
17324926900
17324931600
17324940755
17324947042
17324956014
17324962422
17324968831
17324976094
17324984456
17324990926
17324995992
17325002461
17325009419
17325017171
17325024129
