17521658574
17521665166
17521671269
17521676885
17521681584
17521687261
17521692632
17521698125
17521704045
17521709172
17521715093
17521719426
17521725774
17521732243
17521738408
17521744023
17521749455
17521755925
17521761723
17521770207
17521775273
17521782902
17521789067
17521797490
17521802312
17521809392
17521817021
17521824589
17521830876
17521837712
17521845524
17521853215
17521859379
17521868290
17521874760
17521882634
17521888371
17521898259
17521905949
17521914311
17521922856
17521930241
17521938481
17521945256
17521953251
17521960942
17521967716
17521978153
17521985356
17521992191
17521999088
17522006901
17522015385
17522022343
17522028873
17522036015
17522042362
17522051334
17522060917
17522068729
17522076237
17522082889
17522091312
17522097660
17522104801
17522112247
17522121158
17522128116
17522135563
17522142765
17522149112
17522156070
17522163883
17522171512
17522180118
17522187870
17522194034
17522199894
17522209110
17522212955
17522223148
17522230777
17522239444
17522247196
17522253177
17522260318
17522266544
17522276309
17522284549
17522292056
17522299564
17522305118
17522315433
17522323734
17522331180
17522339908
17522347415
17522354800
17522360477
17522369205
17522379031
17522387027
17522394961
17522402225
17522411990
17522421145
17522429324
17522437991
17522447146
17522454776
17522463504
17522471499
17522479800
17522487002
17522495486
17522500613
17522511660
17522518435
17522526004
17522532229
17522539370
17522546694
17522553958
17522561404
17522569460
17522576907
17522585635
17522592288
17522599856
17522609072
17522620303
17522627932
17522635195
17522644472
17522652224
17522659975
17522666384
17522673403
17522682802
17522690554
17522697573
17522704409
17522709963
17522716189
17522725100
17522732241
17522739870
17522746828
17522754885
17522763125
17522770571
17522777712
17522785402
17522791872
17522799501
17522806398
17522811891
17522821352
17522828249
17522835817
17522842104
17522850710
17522857424
17522865541
17522872011
17522882082
17522890444
17522899904
17522910890
17522916750
17522925233
17522932802
17522940797
17522946657
17522955019
17522963930
17522971620
17522978761
17522986085
17522993593
17522998842
17523009401
17523017579
17523025270
17523034547
17523041505
17523049867
17523058046
17523066774
17523073610
17523081483
17523088502
17523097779
17523104615
17523112977
17523121095
17523129518
17523137086
17523145509
17523152345
17523158265
17523165711
17523171937
17523181886
17523189942
17523197572
17523202271
17523211488
17523219544
17523227235
17523234437
17523243409
17523250062
17523256959
17523264405
17523269837
17523277894
17523286133
17523294678
17523302186
17523310425
17523317200
17523328431
17523335083
17523343567
17523351502
17523360230
17523368958
17523377381
17523385193
17523391846
17523400330
17523406800
17523414734
17523421692
17523427124
17523432862
17523440857
17523447876
17523455200
17523463074
17523470398
17523476318
17523484253
17523492004
17523499329
17523506043
17523513916
17523520813
17523526978
17523533997
17523540100
17523546814
17523554321
17523560791
17523567261
17523576782
17523584228
17523592224
17523600525
17523608093
17523613891
17523620727
17523626709
17523634338
17523641845
17523649048
17523655639
17523662780
17523669738
17523676879
17523684448
17523692382
17523699646
17523706237
17523713684
17523721069
17523728881
17523737243
17523745056
17523752441
17523758422
17523766052
17523772155
17523779968
17523786620
17523793884
17523802001
17523809936
17523817016
17523824706
17523828613
17523839233
17523843871
17523854125
17523861999
17523869323
17523876647
17523881835
17523889342
17523896850
17523904296
17523912108
17523921630
17523926024
17523936278
17523940978
17523951354
17523958190
17523965514
17523972167
17523979552
17523987609
17523995848
17524005004
17524014403
17524023558
17524030577
17524042357
17524049315
17524057616
17524065489
17524075133
17524083312
17524091429
17524099120
17524104918
17524111205
17524116209
17524124022
17524128905
17524135741
17524143248
17524148131
17524155577
17524162962
17524169981
17524175719
17524183043
17524188963
17524197142
17524203245
17524209349
17524213438
17524221678
17524228270
17524233824
17524237425
17524246885
17524253355
17524259581
17524265745
17524270323
17524276854
17524283262
17524289488
17524294859
17524301451
17524306883
17524314207
17524319090
17524324888
17524330076
17524335691
17524340452
17524347898
17524353880
17524359800
17524365232
17524370664
17524376219
17524380796
17524387266
17524393675
17524399229
17524405027
17524409849
17524414793
17524420347
17524424741
17524431577
17524436338
17524444212
17524447874
17524455808
17524462339
17524468870
17524475034
17524480161
17524486570
17524491025
17524495908
17524500974
17524509763
17524513975
17524521970
17524529111
17524533078
17524540036
17524546262
17524552671
17524557859
17524564512
17524570005
17524575254
17524578489
17524586911
17524593686
17524600156
17524606870
17524611997
17524619626
17524626035
17524632627
17524639157
17524645261
17524651608
17524657590
17524663144
17524667417
17524673947
17524680905
17524687985
17524693662
17524699094
17524702390
17524709958
17524715512
17524722775
17524727963
17524733762
17524740781
17524744992
17524751218
17524757199
17524763669
17524769589
17524774350
17524778805
17524785275
17524788571
17524796139
17524803341
17524809262
17524814389
17524820614
17524826352
17524832211
17524837155
17524842953
17524848568
17524854184
17524860348
17524864926
17524871579
17524876828
17524882565
17524889157
17524894894
17524900387
17524904415
17524910824
17524916744
17524921627
17524926144
17524932797
17524937985
17524943844
17524949398
17524954891
17524960812
17524966976
17524973263
17524979672
17524984737
17524991512
17524997006
17525001522
17525008480
17525013485
17525019222
17525025692
17525029842
17525036556
17525041927
17525047726
17525052303
17525059566
17525063412
17525070858
17525076839
17525082760
17525088314
17525093441
17525098995
17525105221
17525110225
17525116695
17525122738
17525127987
17525134884
17525140987
17525147701
17525154293
17525158992
17525166072
17525173091
17525182491
17525189083
17525194393
17525200862
17525205379
17525211299
17525215938
17525221981
17525227168
17525235774
17525241817
17525247981
17525254573
17525258724
17525264705
17525271236
17525277278
17525281856
17525289180
17525294185
17525301082
17525306941
17525313228
17525318538
17525323726
17525331233
17525336543
17525342219
17525348445
17525353999
17525359370
17525367488
17525373347
17525378230
17525385066
17525389155
17525395686
17525400630
17525407161
17525412288
17525417903
17525423884
17525429805
17525435359
17525440425
17525445674
17525452205
17525458247
17525464534
17525469355
17525474971
17525480037
17525487117
17525491145
17525496882
17525504084
17525510920
17525515010
17525521601
17525526118
17525533442
17525538874
17525546015
17525551142
17525558466
17525563777
17525569026
17525574702
17525580683
17525585749
17525591242
17525597407
17525603999
17525609248
17525614863
17525620356
17525625910
17525632502
17525637873
17525643061
17525648859
17525655085
17525661738
17525666498
17525673701
17525678950
17525686213
17525691645
17525700312
17525704035
17525712153
17525718927
17525723383
17525732905
17525740046
17525745661
17525752680
17525759577
17525766291
17525769892
17525777887
17525784113
17525790522
17525797052
17525802179
17525807611
17525813776
17525819818
17525823297
17525830438
17525836176
17525842706
17525848322
17525854791
17525860224
17525866144
17525870844
17525876398
17525881830
17525887262
17525893121
17525897760
17525904535
17525910455
17525916620
17525923761
17525927728
17525934381
17525938776
17525945917
17525950555
17525957941
17525962640
17525968378
17525973993
17525979364
17525984552
17525989801
17525995172
17526000970
17526006891
17526013116
17526018487
17526023553
17526029168
17526033258
17526040155
17526046685
17526052179
17526057489
17526063165
17526069879
17526075738
17526081536
17526086724
17526089959
17526097894
17526102716
17526108758
17526114312
17526119988
17526126153
17526132134
17526137567
17526143060
17526149224
17526154473
17526160455
17526166619
17526171990
17526178033
17526183953
17526190606
17526195062
17526201165
17526206109
17526213799
17526220269
17526225152
17526233147
17526239739
17526245843
17526251031
17526258782
17526264275
17526270867
17526277459
17526282769
17526286004
17526292840
17526298699
17526304680
17526310540
17526316216
17526323113
17526327813
17526334343
17526340996
17526346306
17526350823
17526357720
17526361077
17526369011
17526372307
17526379631
17526385918
17526391716
17526397698
17526403496
17526408623
17526412834
17526420037
17526425225
17526431694
17526436577
17526443047
17526448540
17526454033
17526460686
17526465202
17526468498
17526477104
17526483696
17526489739
17526495354
17526500481
17526506950
17526511894
17526517815
17526522392
17526528862
17526535881
17526541679
17526547722
17526553520
17526558464
17526563713
17526569633
17526576835
17526584099
17526589653
17526594658
17526599296
17526605339
17526611503
17526617546
17526624260
17526630973
17526637260
17526642204
17526647880
17526654411
17526660148
17526665702
17526671257
17526677360
17526683403
17526689933
17526695487
17526701164
17526707267
17526712882
17526719230
17526724845
17526729484
17526736381
17526741813
17526748222
17526754569
17526760368
17526767021
17526772941
17526779105
17526785758
17526792350
17526797172
17526805228
17526810844
17526816642
17526822562
17526828056
17526833243
17526839408
17526846061
17526851676
17526856742
17526861198
17526867301
17526872733
17526881034
17526886832
17526891959
17526896598
17526902030
17526907889
17526914054
17526920035
17526926627
17526933097
17526938224
17526945426
17526950187
17526957022
17526960624
17526968619
17526973746
17526979178
17526986075
17526992606
17526998526
17527002921
17527009513
17527013968
17527021353
17527027152
17527032584
17527037955
17527044119
17527050040
17527055777
17527062552
17527066824
17527073660
17527078909
17527086539
17527090445
17527098502
17527104727
17527109244
17527115164
17527121634
17527127554
17527134085
17527140250
17527145560
17527151053
17527157034
17527161185
17527167837
17527174002
17527179434
17527185049
17527191580
17527196951
17527203970
17527209219
17527213858
17527218435
17527225271
17527232107
17527238028
17527243216
17527248404
17527253958
17527259451
17527264883
17527271719
17527278006
17527283316
17527288992
17527293630
17527301016
17527307730
17527314810
17527320364
17527327993
17527334036
17527340261
17527346609
17527352285
17527360403
17527366262
17527371633
17527376699
17527382131
17527387930
17527394521
17527400747
17527405508
17527410390
17527414968
17527423208
17527427419
17527434927
17527439992
17527445608
17527451711
17527456106
17527463186
17527469716
17527474904
17527479299
17527485647
17527490651
17527497670
17527503835
17527509572
17527515127
17527520681
17527525808
17527532583
17527538808
17527543508
17527550466
17527555593
17527561269
17527565602
17527572927
17527576711
17527584340
17527591176
17527596364
17527600942
17527606435
17527612721
17527619618
17527624745
17527630300
17527634999
17527639577
17527645619
17527651906
17527658070
17527664113
17527669362
17527674550
17527680104
17527686879
17527693288
17527698720
17527703908
17527710988
17527716298
17527721486
17527727040
17527733144
17527739308
17527745045
17527751332
17527756215
17527763112
17527767445
17527773610
17527778126
17527784718
17527790028
17527796681
17527801747
17527807728
17527814137
17527820302
17527826832
17527837941
17527859669
17527865651
17527874073
17527880177
17527887013
17527892750
17527899220
17527905018
17527909962
17527917591
17527924366
17527930103
17527935658
17527939686
17527945240
17527951161
17527958180
17527964283
17527970814
17527974293
17527982349
17527988392
17527994129
17527999866
17528004078
17528012318
17528017261
17528023121
17528028736
17528034778
17528039356
17528045887
17528052173
17528058277
17528063831
17528069629
17528075916
17528079944
17528090442
17528095386
17528102222
17528108265
17528114246
17528119373
17528125171
17528129993
17528136585
17528143116
17528149402
17528155689
17528161426
17528167896
17528174427
17528178333
17528185108
17528188465
17528196887
17528203296
17528209217
17528213977
17528221057
17528225635
17528230762
17528238086
17528241809
17528249744
17528255664
17528261218
17528267871
17528273181
17528280322
17528285571
17528290820
17528296008
17528302539
17528308582
17528314075
17528320117
17528324756
17528330554
17528336047
17528341479
17528348987
17528354602
17528358935
17528364612
17528369128
17528379565
17528386645
17528394885
17528402759
17528409167
17528416858
17528424182
17528430102
17528435168
17528439013
17528447009
17528452441
17528456836
17528464343
17528468859
17528475756
17528482165
17528488391
17528495043
17528499560
17528506274
17528512194
17528518237
17528524035
17528528124
17528535937
17528540148
17528547045
17528552538
17528557787
17528563158
17528569201
17528574755
17528579394
17528587084
17528590685
17528597033
17528602465
17528608507
17528614977
17528619250
17528625719
17528635119
17528640795
17528647143
17528651232
17528657030
17528661791
17528668871
17528677477
17528683703
17528690233
17528697069
17528703234
17528711290
17528717699
17528723620
17528729540
17528736010
17528741625
17528748339
17528754442
17528760546
17528765001
17528773241
17528778917
17528785692
17528790575
17528797777
17528803026
17528809679
17528815721
17528820238
17528825426
17528833055
17528839037
17528843858
17528849535
17528856371
17528863573
17528868333
17528875291
17528882311
17528888048
17528895738
17528901720
17528908128
17528915880
17528922472
17528927843
17528933153
17528938951
17528944749
17528951341
17528957750
17528963243
17528970079
17528975511
17528981309
17528988389
17528993760
17528999437
17529005845
17529011094
17529017259
17529023118
17529030748
17529035325
17529042283
17529047166
17529052110
17529057786
17529063645
17529071336
17529076707
17529083665
17529088487
17529094468
17529100389
17529105638
17529112351
17529117478
17529123887
17529130784
17529135606
17529141587
17529147263
17529155015
17529160630
17529165879
17529172349
17529177659
17529183762
17529190354
17529194627
17529200730
17529206467
17529211777
17529219041
17529225205
17529230271
17529235398
17529241196
17529247117
17529253098
17529258835
17529265122
17529269394
17529277085
17529282395
17529286545
17529293320
17529301621
17529306382
17529313279
17529317246
17529325119
17529329941
17529336167
17529341843
17529347214
17529352524
17529359238
17529365830
17529371445
17529378708
17529386582
17529393662
17529400376
17529406967
17529412705
17529420944
17529430161
17529436081
17529442795
17529448044
17529456894
17529463791
17529469040
17529475632
17529480942
17529486801
17529493698
17529499924
17529506271
17529511154
17529517441
17529523178
17529528549
17529535629
17529540207
17529546982
17529553207
17529558395
17529564682
17529569504
17529576706
17529583359
17529591476
17529596969
17529600692
17529606796
17529613754
17529619186
17529624313
17529628708
17529635666
17529642562
17529646713
17529653671
17529660080
17529665634
17529672103
17529676498
17529682846
17529689620
17529693771
17529700668
17529707260
17529713485
17529718490
17529723800
17529730575
17529735580
17529741927
17529748824
17529752792
17529760116
17529764999
17529771102
17529775863
17529781600
17529789291
17529795089
17529799972
17529806502
17529811385
17529816634
17529823409
17529828963
17529834823
17529839095
17529844466
17529848617
17529855697
17529861617
17529867476
17529874801
17529880721
17529888289
17529895492
17529899825
17529909285
17529914962
17529922530
17529929732
17529934493
17529942855
17529956832
17529968856
17529973494
17529982527
17529988814
17529994124
17530001509
17530007796
17530012984
17530018172
17530022933
17530030318
17530038252
17530041914
17530048262
17530054671
17530059676
17530065108
17530072310
17530077376
17530083479
17530090376
17530094405
17530104597
17530110518
17530116621
17530124251
17530131331
17530137495
17530143477
17530151900
17530155928
17530165999
17530171736
17530177961
17530184431
17530191939
17530198347
17530203474
17530211836
17530218123
17530224043
17530231733
17530238569
17530244184
17530250227
17530258161
17530266889
17530272810
17530280744
17530286238
17530294355
17530299787
17530308088
17530314375
17530320295
17530326643
17530333418
17530337751
17530342329
17530351179
17530356855
17530364545
17530371565
17530378645
17530384565
17530391767
17530398847
17530405317
17530410871
17530417829
17530431196
17530439374
17530447248
17530452436
17530460554
17530466901
17530473859
17530478071
17530483259
17530489240
17530496076
17530502057
17530508710
17530514203
17530519941
17530524945
17530530866
17530536298
17530542707
17530548627
17530554670
17530562543
17530568402
17530573957
17530582990
17530589459
17530595990
17530602582
17530609296
17530617047
17530621991
17530630475
17530636151
17530643842
17530649274
17530657819
17530662457
17530670453
17530677594
17530683942
17530691571
17530698529
17530706341
17530712079
17530720318
17530726910
17530733502
17530740582
17530746869
17530753522
17530760052
17530768353
17530773846
17530781292
17530788983
17530795086
17530800885
17530806683
17530811993
17530817425
17530822918
17530828595
17530833783
17530839825
17530848858
17530854901
17530860394
17530865277
17530870526
17530876751
17530882061
17530888226
17530893902
17530901837
17530910992
17530920391
17530928753
17530933880
17530941753
17530947308
17530952557
17530958233
17530962322
17530968304
17530973858
17530979778
17530986675
17530992779
17531000286
17531004925
17531012249
17531018352
17531025127
17531032574
17531038250
17531043987
17531048992
17531056377
17531061870
17531070293
17531077068
17531083599
17531092144
17531096843
17531105877
17531111492
17531118999
17531125408
17531134075
17531141765
17531147930
17531154460
17531160930
17531169536
17531175029
17531182903
17531188396
17531197673
17531204082
17531210369
17531217204
17531223918
17531232036
17531238689
17531245097
17531250469
17531259013
17531265422
17531273479
17531280193
17531284282
17531291850
17531296489
17531301738
17531307780
17531314067
17531319499
17531324626
17531327739
17531335856
17531343181
17531347148
17531353984
17531360026
17531365214
17531369609
17531376994
17531379985
17531387614
17531394328
17531398600
17531407084
17531411906
17531417949
17531423381
17531430827
17531434001
17531442179
17531448405
17531453593
17531460368
17531465251
17531473551
17531478678
17531484904
17531487956
17531496012
17531501872
17531507548
17531512675
17531516642
17531523417
17531529948
17531539835
17531546854
17531553507
17531560893
17531568339
17531575114
17531586466
17531592814
17531601969
17531610514
17531620219
17531627421
17531634989
17531640238
17531650370
17531655680
17531663126
17531670633
17531677530
17531683939
17531690348
17531698771
17531706095
17531714640
17531720621
17531727762
17531734842
17531741922
17531747232
17531753824
17531758829
17531765604
17531771707
17531776407
17531782266
17531787638
17531793314
17531797830
17531805216
17531809061
17531816019
17531822611
17531827799
17531834085
17531838113
17531844888
17531850198
17531855997
17531862039
17531868021
17531871072
17531877481
17531883401
17531888467
17531893716
17531898904
17531905313
17531911111
17531916666
17531922403
17531928201
17531936441
17531941080
17531947122
17531952615
17531957559
17531962381
17531967386
17531976114
17531982339
17531986062
17531991433
17531996377
17532002786
17532009195
17532014260
17532020913
17532025613
17532030740
17532036233
17532042031
17532048013
17532053933
17532059243
17532064248
17532069802
17532073709
17532079934
17532085427
17532094216
17532100808
17532107583
17532116921
17532124001
17532131631
17532138406
17532142861
17532150246
17532155557
17532161538
17532168862
17532175027
17532179909
17532186074
17532190224
17532196938
17532203652
17532208901
17532215188
17532219094
17532226601
17532231850
17532237038
17532242959
17532247536
17532253579
17532256814
17532265236
17532271645
17532277504
17532283791
17532290017
17532294716
17532301186
17532305214
17532311806
17532317421
17532322792
17532329934
17532335121
17532341164
17532345070
17532351845
17532358437
17532363991
17532369423
17532375832
17532380959
17532385720
17532391884
17532398171
17532402138
17532407265
17532411415
17532417641
17532422768
17532428688
17532433571
17532438027
17532444069
17532449501
17532455238
17532459328
17532465065
17532472145
17532477455
17532482277
17532486916
17532492409
17532498268
17532502968
17532508705
17532515053
17532520058
17532525062
17532532387
17532539345
17532546242
17532552162
17532559303
17532563820
17532569862
17532577675
17532583595
17532592628
17532598976
17532605140
17532612281
17532619300
17532626503
17532634071
17532639625
17532646278
17532654151
17532661109
17532667457
17532673866
17532679847
17532686561
17532694374
17532701454
17532707435
17532714210
17532719764
17532725745
17532733009
17532739112
17532746009
17532753883
17532760413
17532765601
17532770789
17532777869
17532785133
17532790809
17532797706
17532803138
17532808692
17532816016
17532823279
17532828712
17532835914
17532840491
17532846290
17532852942
17532858680
17532864417
17532869544
17532875342
17532881080
17532887854
17532894507
17532901465
17532906653
17532913367
17532919715
17532925757
17532931800
17532938086
17532944861
17532949622
17532954810
17532960974
17532967139
17532974097
17532980872
17532987097
17532993201
17533001624
17533009192
17533015662
17533021887
17533028113
17533034277
17533040015
17533046057
17533049841
17533057288
17533066382
17533072729
17533079382
17533087134
17533096472
17533102087
17533110571
17533116675
17533122351
17533129736
17533134802
17533140417
17533146765
17533152258
17533159155
17533163855
17533172522
17533180761
17533186926
17533194372
17533199255
17533205236
17533213659
17533219824
17533226965
17533234228
17533239965
17533245092
17533252050
17533258825
17533264013
17533270056
17533275305
17533280493
17533285253
17533291662
17533298132
17533303564
17533309240
17533314245
17533319860
17533325659
17533330175
17533335119
17533343420
17533348058
17533353246
17533359411
17533365636
17533371984
17533377477
17533384069
17533390417
17533396520
17533402257
17533408666
17533414220
17533421239
17533425817
17533433874
17533438085
17533444799
17533450902
17533456273
17533463903
17533469701
17533474401
17533480260
17533486303
17533491918
17533498143
17533503453
17533509435
17533515599
17533522191
17533528661
17533536290
17533541661
17533547399
17533553685
17533560521
17533567235
17533575414
17533581090
17533588048
17533593968
17533599523
17533605565
17533613133
17533619359
17533623876
17533630589
17533636144
17533641209
17533647069
17533651219
17533658299
17533664159
17533670262
17533675694
17533681737
17533687779
17533693089
17533698826
17533704747
17533710362
17533714757
17533720738
17533725011
17533734044
17533740391
17533747960
17533753758
17533757603
17533766453
17533770237
17533778538
17533784764
17533791111
17533796605
17533801670
17533808812
17533814488
17533821080
17533826756
17533832554
17533839573
17533844639
17533850865
17533856541
17533862522
17533867893
17533873631
17533880039
17533887608
17533892918
17533899326
17533905735
17533911900
17533917942
17533923618
17533929173
17533936314
17533942966
17533948338
17533954563
17533961704
17533967869
17533973545
17533979832
17533985508
17533991978
17533997227
17534003818
17534008823
17534015476
17534019016
17534026401
17534033176
17534038669
17534044834
17534050815
17534057163
17534062107
17534069187
17534072788
17534081272
17534086582
17534092868
17534098606
17534105259
17534111057
17534119114
17534126499
17534132297
17534138584
17534144992
17534152072
17534158603
17534163181
17534169895
17534176670
17534182834
17534189060
17534194492
17534199741
17534205356
17534210788
17534218478
17534224765
17534229770
17534237033
17534242709
17534248386
17534254428
17534260776
17534268100
17534273654
17534278354
17534283908
17534290500
17534294772
17534301913
17534308322
17534314426
17534319125
17534325290
17534329989
17534338107
17534341647
17534350497
17534354037
17534361911
17534367831
17534373690
17534379611
17534385043
17534391024
17534397250
17534402682
17534409091
17534415377
17534420443
17534427157
17534431857
17534438204
17534443881
17534450473
17534456088
17534461642
17534467867
17534473727
17534479708
17534485812
17534491183
17534495394
17534502169
17534508151
17534513644
17534520052
17534526583
17534532443
17534538424
17534544039
17534549471
17534555087
17534560580
17534566317
17534572054
17534578158
17534584200
17534590121
17534596041
17534602694
17534609896
17534615511
17534623018
17534629366
17534635042
17534640474
17534646334
17534651888
17534657869
17534664950
17534672396
17534679476
17534684786
17534691622
17534697542
17534703035
17534710665
17534718233
17534723848
17534729280
17534735201
17534741121
17534746981
17534753572
17534760408
17534765657
17534771761
17534777803
17534782686
17534790376
17534794161
17534801180
17534807649
17534813387
17534819429
17534825166
17534831026
17534838655
17534844209
17534851045
17534857637
17534862764
17534869600
17534875276
17534880708
17534887361
17534893220
17534898836
17534904878
17534910249
17534916353
17534921846
17534926912
17534934114
17534939546
17534947297
17534955232
17534960908
17534967317
17534973420
17534978547
17534984834
17534992219
17534995576
17535003328
17535009065
17535014985
17535022126
17535028230
17535034272
17535038911
17535045686
17535051789
17535057221
17535064607
17535071809
17535075410
17535083589
17535089326
17535094819
17535101106
17535107087
17535112702
17535118989
17535124543
17535129121
17535136079
17535140778
17535147553
17535153901
17535159638
17535165620
17535171601
17535178376
17535182526
17535188691
17535194123
17535200471
17535206635
17535212800
17535217927
17535225739
17535231537
17535238740
17535245575
17535252350
17535259552
17535265473
17535273163
17535280610
17535286286
17535291657
17535297638
17535303742
17535309601
17535315461
17535320221
17535326630
17535331574
17535338532
17535344086
17535350678
17535355561
17535363983
17535368927
17535375824
17535381378
17535388214
17535393524
17535399628
17535405853
17535410919
17535418305
17535424225
17535429840
17535436066
17535441742
17535447235
17535453156
17535459320
17535465118
17535470550
17535476959
17535483795
17535490082
17535494842
17535501068
17535506439
17535513031
17535519195
17535525116
17535530792
17535536651
17535542145
17535548248
17535553863
17535560089
17535566314
17535572723
17535577423
17535584503
17535587860
17535595306
17535600433
17535607513
17535613189
17535618743
17535624481
17535630035
17535637054
17535643524
17535648529
17535655059
17535661163
17535665862
17535671844
17535676544
17535683624
17535688384
17535694915
17535700713
17535707977
17535713470
17535718963
17535724578
17535730132
17535735625
17535742095
17535748687
17535753387
17535759978
17535764800
17535771087
17535777801
17535784881
17535791473
17535797332
17535804107
17535810576
17535819610
17535827117
17535834380
17535842193
17535850310
17535857634
17535863128
17535868865
17535874724
17535880339
17535886260
17535892302
17535898589
17535904876
17535911284
17535917510
17535923308
17535929106
17535935454
17535942107
17535948149
17535953887
17535960234
17535965850
17535971892
17535977873
17535983367
17535987334
17535994231
17536000212
17536005888
17536011931
17536019682
17536025969
17536031340
17536037810
17536043974
17536049590
17536055144
17536061308
17536067534
17536073210
17536079863
17536084502
17536091093
17536096892
17536103667
17536110136
17536114836
17536120756
17536127531
17536132780
17536138395
17536145048
17536150847
17536157194
17536161467
17536168181
17536174223
17536179228
17536185514
17536190763
17536197660
17536203581
17536208647
17536215483
17536222074
17536227629
17536233305
17536239103
17536245268
17536251188
17536256986
17536262541
17536267912
17536273466
17536280119
17536286039
17536291593
17536296232
17536302519
17536307218
17536314054
17536319669
17536326444
17536333219
17536338834
17536344694
17536350126
17536358488
17536363370
17536370756
17536378446
17536385831
17536392728
17536398893
17536405118
17536410856
17536416715
17536422635
17536428251
17536433744
17536440458
17536444730
17536451688
17536456510
17536463102
17536468534
17536475614
17536481473
17536487577
17536493863
17536499295
17536505277
17536511502
17536517789
17536523465
17536530057
17536534757
17536541654
17536546292
17536553128
17536559049
17536565640
17536570950
17536576505
17536582486
17536588040
17536592374
17536600369
17536605435
17536611050
17536617093
17536623502
17536629178
17536635587
17536641385
17536646085
17536652188
17536656949
17536663357
17536667996
17536675626
17536681973
17536687527
17536694607
17536700223
17536704922
17536710477
17536717190
17536723233
17536729397
17536734219
17536740933
17536745694
17536752224
17536757779
17536763455
17536769314
17536777127
17536783230
17536787564
17536793545
17536799038
17536805874
17536810879
17536817654
17536823086
17536829678
17536834622
17536840725
17536845547
17536854153
17536859890
17536865566
17536871731
17536878872
17536888088
17536896145
17536903103
17536911038
17536919704
17536926052
17536935513
17536943325
17536951931
17536959255
17536966701
17536975307
17536982754
17536990566
17536996120
17537002895
17537008816
17537014187
17537020534
17537026882
17537032741
17537038784
17537045070
17537050441
17537056667
17537064418
17537069912
17537076259
17537083278
17537088649
17537094692
17537100612
17537104763
17537113124
17537119045
17537124782
17537130580
17537137416
17537142055
17537147914
17537155300
17537161647
17537166530
17537172572
17537178493
17537183498
17537190456
17537194911
17537201564
17537208705
17537214259
17537220241
17537225978
17537231776
17537237453
17537242702
17537247890
17537254481
17537258754
17537266505
17537271693
17537277431
17537283534
17537287746
17537294704
17537300929
17537306361
17537310695
17537318873
17537324367
17537330653
17537337489
17537343470
17537349330
17537355372
17537360438
17537366237
17537372340
17537377894
17537384303
17537388819
17537395472
17537400660
17537407252
17537411463
17537417384
17537423670
17537429713
17537434901
17537440455
17537446742
17537449793
17537458888
17537464442
17537469630
17537475367
17537481837
17537488795
17537493556
17537501368
17537508509
17537513697
17537520777
17537528162
17537534754
17537540003
17537548426
17537553370
17537558985
17537565150
17537571314
17537577723
17537582728
17537589686
17537597010
17537602869
17537609034
17537615076
17537620752
17537625757
17537633265
17537639551
17537644983
17537650721
17537656519
17537662317
17537668543
17537674524
17537680445
17537686365
17537692163
17537698633
17537703882
17537709803
17537716455
17537722315
17537727991
17537734094
17537739160
17537744776
17537751306
17537756800
17537764063
17537768823
17537775354
17537780542
17537786829
17537793115
17537799402
17537805566
17537809900
17537815881
17537820398
17537827600
17537833826
17537840051
17537846338
17537850549
17537856836
17537862268
17537867761
17537874780
17537881921
17537887170
17537891687
17537898706
17537904321
17537909753
17537915735
17537922204
17537928979
17537934472
17537939782
17537944970
17537950280
17537957238
17537964074
17537970483
17537975488
17537982080
17537987146
17537993127
17537998986
17538008386
17538014489
17538021936
17538027734
17538035729
17538042565
17538049218
17538056664
17538061852
17538068749
17538075646
17538083093
17538089196
17538094323
17538100182
17538107690
17538114526
17538121972
17538127770
17538135339
17538141076
17538148156
17538154198
17538159264
17538166100
17538172326
17538178429
17538183800
17538190453
17538196984
17538202416
17538208397
17538214684
17538219994
17538226708
17538231774
17538239098
17538245385
17538251000
17538255211
17538262719
17538270470
17538274804
17538282006
17538286461
17538293175
17538297875
17538303673
17538309471
17538317284
17538322655
17538327904
17538333885
17538339928
17538345726
17538352684
17538358544
17538364342
17538371910
17538381188
17538387901
17538398583
17538406639
17538414269
17538422691
17538430504
17538439293
17538449852
17538461449
17538468407
17538477318
17538485130
17538494591
17538502891
17538512657
17538521019
17538530723
17538538780
17538545677
17538556358
17538565513
17538573387
17538582054
17538590782
17538599815
17538606651
17538615013
17538622337
17538630393
17538640403
17538650230
17538661033
17538668907
17538679160
17538688682
17538700706
17538712547
17538722007
17538732017
17538740501
17538749290
17538757468
17538765586
17538775352
17538782798
17538790916
17538799827
17538807517
17538816367
17538827781
17538836509
17538844748
17538855735
17538864096
17538873801
17538882956
17538891440
17538899253
17538907614
17538916342
17538922873
17538932944
17538941855
17538949484
17538957541
17538963767
17538972250
17538980917
17538989829
17538998435
17539006674
17539017111
17539025778
17539033591
17539042624
17539050986
17539057822
17539068747
17539080099
17539087912
17539096640
17539105307
17539113547
17539122336
17539129843
17539139914
17539148153
17539156942
17539165548
17539176413
17539183920
17539194296
17539202108
17539210287
17539220114
17539227499
17539235800
17539244039
17539254659
17539263571
17539272115
17539282247
17539291891
17539300008
17539307211
17539317403
17539326376
17539335653
17539344808
17539354085
17539361471
17539370687
17539379781
17539388814
17539396627
17539407857
17539417196
17539425985
17539435872
17539446187
17539455953
17539464132
17539475545
17539485128
17539493184
17539500692
17539509358
17539520284
17539527364
17539537251
17539543965
17539555074
17539564412
17539572713
17539583394
17539592732
17539600545
17539607259
17539618245
17539628194
17539636555
17539646138
17539655171
17539663716
17539670735
17539679402
17539692647
17539701863
17539711506
17539718953
17539730061
17539735371
17539745930
17539754292
17539762837
17539773457
17539779744
17539789326
17539802693
17539810566
17539818257
17539825886
17539834004
17539841084
17539845905
17539854695
17539860859
17539869343
17539877766
17539884358
17539890339
17539896015
17539903400
17539909565
17539915180
17539919819
17539927204
17539932087
17539938435
17539943073
17539949726
17539956867
17539960773
17539969074
17539974750
17539979633
17539988605
17539995685
17540000873
17540008442
17540013813
17540019794
17540024433
17540031635
17540037616
17540045002
17540048908
17540057575
17540063251
17540069172
17540079181
17540085712
17540091632
17540098224
17540104511
17540111530
17540116718
17540122455
17540128375
17540134784
17540140155
17540145893
17540151203
17540158832
17540165851
17540172260
17540177997
17540183978
17540190265
17540197345
17540202228
17540209125
17540214496
17540220355
17540226764
17540232318
17540239581
17540245624
17540252093
17540259479
17540264911
17540271319
17540276629
17540283404
17540289752
17540297381
17540301959
17540309466
17540314410
17540321002
17540326556
17540331256
17540338092
17540344317
17540350970
17540356829
17540360431
17540367389
17540374041
17540378436
17540384845
17540390216
17540396807
17540402850
17540408770
17540414141
17540421099
17540425494
17540431597
17540435992
17540442584
17540448687
17540453997
17540459734
17540466082
17540472186
17540478289
17540484759
17540491168
17540494769
17540502642
17540505999
17540513323
17540519793
17540526080
17540531756
17540537554
17540544756
17540551226
17540559832
17540566485
17540571367
17540584856
17540589556
17540599199
17540605364
17540611467
17540616961
17540622088
17540628924
17540636614
17540641863
17540646868
17540651812
17540657976
17540664446
17540671038
17540676226
17540684038
17540688738
17540693804
17540700945
17540705889
17540711748
17540719377
17540724993
17540730547
17540735674
17540741594
17540746538
17540753801
17540761247
17540766496
17540774004
17540778581
17540785783
17540790666
17540795671
17540801897
17540808855
17540814531
17540821977
17540828447
17540833635
17540840166
17540844865
17540852922
17540858537
17540863664
17540870561
17540876787
17540883500
17540889299
17540895830
17540899919
17540906450
17540912980
17540918779
17540924882
17540930497
17540936967
17540941972
17540947648
17540954240
17540960649
17540965959
17540970475
17540977372
17540983476
17540989884
17540996293
17540999711
17541008134
17541013749
17541019670
17541025285
17541031205
17541037980
17541044267
17541050187
17541058854
17541067704
17541073136
17541079240
17541085343
17541091691
17541096879
17541104630
17541111527
17541117265
17541123429
17541129655
17541134904
17541139420
17541147111
17541152787
17541158036
17541164139
17541169510
17541177506
17541182267
17541189042
17541195145
17541200944
17541206559
17541211381
17541218155
17541223038
17541230118
17541236100
17541241715
17541247452
17541252945
17541259232
17541264359
17541271012
17541275284
17541281144
17541289017
17541294388
17541300247
17541305741
17541311661
17541318131
17541323319
17541328690
17541336136
17541341629
17541346817
17541352860
17541358963
17541363724
17541369827
17541377335
17541382950
17541389175
17541394913
17541401810
17541408218
17541414871
17541419998
17541425735
17541432388
17541437393
17541444290
17541450455
17541455276
17541462417
17541468948
17541472793
17541479324
17541486343
17541493301
17541498855
17541503250
17541510818
17541516006
17541521560
17541527908
17541530716
17541536392
17541540115
17541545547
17541551834
17541556717
17541563919
17541568496
17541573379
17541579177
17541583999
17541589065
17541595840
17541599807
17541603652
17541609878
17541613723
17541619155
17541624404
17541627334
17541633804
17541637893
17541642349
17541648025
17541653457
17541658706
17541663528
17541667007
17541670669
17541675613
17541680007
17541686355
17541691543
17541696975
17541701431
17541707351
17541712417
17541719924
17541723342
17541728347
17541733291
17541738479
17541743178
17541748916
17541752700
17541758803
17541762710
17541767837
17541771255
17541777480
17541781875
17541787612
17541791457
17541796767
17541801528
17541805983
17541812453
17541815078
17541822036
17541830031
17541835769
17541844680
17541851332
17541859755
17541868666
17541876540
17541884474
17541890456
17541899733
17541905593
17541910414
17541913771
17541920607
17541926222
17541929396
17541933791
17541937758
17541943068
17541946486
17541952101
17541956740
17541961379
17541966383
17541969069
17541975111
17541979628
17541985548
17541990492
17541994154
17541999220
17542005873
17542010878
17542016676
17542024672
17542029921
17542034071
17542040358
17542044691
17542049452
17542053969
17542059218
17542063429
17542068007
17542072462
17542076491
17542088026
17542094923
17542100172
17542105543
17542110121
17542115675
17542120985
17542125746
17542130323
17542136976
17542140577
17542146193
17542150709
17542155836
17542160963
17542164991
17542170546
17542177381
17542182203
17542187635
17542192091
17542197950
17542202406
17542209242
17542213270
17542218031
17542221815
17542227796
17542233839
17542238661
17542243177
17542249037
17542253492
17542259474
17542265943
17542270643
17542276930
17542282179
17542289076
17542294263
17542299574
17542305128
17542310621
17542315748
17542322828
17542326734
17542332838
17542337537
17542343641
17542348768
17542353284
17542358961
17542363050
17542369642
17542374586
17542378858
17542385023
17542389600
17542395765
17542401197
17542408704
17542414808
17542419019
17542424878
17542429700
17542434583
17542439832
17542445203
17542453870
17542460706
17542467969
17542474744
17542478711
17542485852
17542489270
17542497632
17542504346
17542513196
17542518262
17542523694
17542529431
17542534680
17542541333
17542547864
17542553052
17542558057
17542561719
17542567456
17542571118
17542577832
17542585400
17542590833
17542594861
17542599988
17542604077
17542609875
17542614392
17542619702
17542626538
17542632642
17542637524
17542642956
17542647534
17542654187
17542659253
17542665478
17542670788
17542676159
17542680981
17542687207
17542691784
17542699048
17542703930
17542710217
17542715588
17542722668
17542727612
17542733593
17542739087
17542745434
17542750012
17542755810
17542761975
17542769543
17542774670
17542780896
17542785534
17542792675
17542797009
17542802563
17542809582
17542816052
17542822338
17542827587
17542832958
17542840710
17542848461
17542853466
17542861157
17542866467
17542874889
17542880871
17542887402
17542893322
17542901867
17542909313
17542915050
17542921032
17542927441
17542933422
17542938610
17542943188
17542949413
17542955578
17542960888
17542968212
17542974560
17542979320
17542985912
17542990856
17542998363
17543003307
17543009533
17543016491
17543021007
17543026439
17543033031
17543038707
17543046215
17543053295
17543055248
17543067516
17543077037
17543082653
17543088024
17543092540
17543102428
17543106945
17543114818
17543120250
17543126171
17543131420
17543138378
17543144298
17543151378
17543156810
17543162364
17543169078
17543173656
17543181712
17543188609
17543193248
17543200572
17543208141
17543213512
17543219798
17543224925
17543231883
17543235362
17543243053
17543249644
17543257274
17543261668
17543270274
17543274119
17543282237
17543288096
17543293162
17543299937
17543304881
17543312144
17543317820
17543325145
17543330516
17543335521
17543341990
17543349559
17543355540
17543363597
17543369517
17543374461
17543380442
17543386302
17543392405
17543398875
17543404246
17543410899
17543416331
17543422007
17543426890
17543436534
17543441355
17543448130
17543453562
17543460398
17543466685
17543471995
17543476695
17543480601
17543488779
17543495432
17543502390
17543506174
17543514475
17543518381
17543526072
17543531931
17543538035
17543542856
17543548838
17543554087
17543560923
17543568430
17543574839
17543579783
17543583384
17543591929
17543596140
17543604258
17543611033
17543617319
17543622995
17543629160
17543636240
17543642527
17543648325
17543655222
17543662607
17543668405
17543674387
17543686228
17543691599
17543699472
17543705820
17543711923
17543719126
17543727793
17543733713
17543742685
17543750314
17543756906
17543763376
17543768076
17543774179
17543777536
17543785165
17543790903
17543797006
17543800729
17543809091
17543812997
17543821970
17543826913
17543832712
17543835763
17543844003
17543849496
17543855295
17543858774
17543866098
17543873361
17543878671
17543882394
17543890939
17543894479
17543900644
17543905404
17543911630
17543920785
17543927072
17543932321
17543938363
17543943551
17543948678
17543954049
17543960519
17543966867
17543971749
17543976937
17543984506
17543989572
17543995797
17544000253
17544005868
17544013436
17544018014
17544025460
17544031320
17544035958
17544041634
17544047372
17544052987
17544060006
17544066720
17544073739
17544079049
17544085580
17544090829
17544097543
17544101510
17544111397
17544120003
17544126229
17544132577
17544139290
17544143624
17544148263
17544154732
17544162606
17544168221
17544173592
17544179085
17544184578
17544191048
17544195992
17544203560
17544210396
17544215889
17544221688
17544227852
17544232674
17544239266
17544245980
17544251778
17544257454
17544265084
17544271553
17544278450
17544282967
17544290413
17544296578
17544304207
17544309517
17544317940
17544324043
17544330391
17544336861
17544344002
17544352913
17544358955
17544362373
17544369026
17544373665
17544380379
17544385872
17544393318
17544397163
17544404854
17544409737
17544416572
17544422432
17544427315
17544430488
17544438423
17544443367
17544451485
17544454780
17544463203
17544466682
17544474067
17544479561
17544484382
17544490852
17544498909
17544503303
17544509163
17544515571
17544521431
17544524910
17544532173
17544538459
17544544868
17544548469
17544555610
17544558967
17544566780
17544572273
17544577095
17544583808
17544590217
17544593757
17544602363
17544606269
17544614936
17544619087
17544627326
17544634773
17544640937
17544645393
17544651191
17544657600
17544663459
17544670051
17544675300
17544683173
17544687690
17544693549
17544700141
17544707282
17544713691
17544720039
17544726813
17544732917
17544739265
17544745124
17544751227
17544755866
17544762031
17544768073
17544774909
17544781257
17544786628
17544792670
17544797370
17544804267
17544808722
17544814887
17544821051
17544828437
17544832343
17544842475
17544846991
17544855658
17544860236
17544867438
17544871344
17544878241
17544883002
17544892279
17544899298
17544906195
17544909491
17544921210
17544926703
17544933234
17544936102
17544945868
17544951666
17544958014
17544963751
17544969916
17544975287
17544980597
17544985358
17544991888
17544997198
17545003363
17545007941
17545014654
17545020148
17545025702
17545028876
17545035895
17545039313
17545046210
17545050604
17545057562
17545063177
17545068731
17545073736
17545079413
17545087103
17545092047
17545096747
17545103094
17545109442
17545116400
17545121405
17545127081
17545132879
17545138556
17545143011
17545149298
17545155279
17545161627
17545168524
17545172186
17545179327
17545185675
17545190374
17545196966
17545200933
17545208319
17545214056
17545218633
17545225225
17545233953
17545239141
17545245184
17545251287
17545256841
17545263799
17545269720
17545275396
17545282659
17545288702
17545293462
17545297308
17545305852
17545312078
17545317693
17545323736
17545329778
17545335760
17545341436
17545347600
17545354070
17545358770
17545364507
17545373052
17545379217
17545385076
17545392644
17545397588
17545403447
17545408025
17545414312
17545421148
17545427678
17545432500
17545436345
17545443120
17545450627
17545456060
17545460088
17545469792
17545473577
17545480352
17545483769
17545490239
17545497014
17545504277
17545509587
17545517400
17545521245
17545528325
17545535466
17545541264
17545546330
17545554021
17545560002
17545567143
17545571782
17545578740
17545585088
17545590031
17545594853
17545598698
17545606267
17545614629
17545620000
17545623906
17545632939
17545637578
17545643437
17545649541
17545656193
17545661931
17545667851
17545673161
17545679204
17545684086
17545690190
17545696232
17545702153
17545707463
17545711430
17545719731
17545724003
17545731694
17545735478
17545742558
17545746891
17545753483
17545759709
17545766667
17545771733
17545777836
17545783879
17545789067
17545793766
17545799381
17545804386
17545812260
17545819340
17545821537
17545830509
17545836857
17545841618
17545845219
17545852421
17545858646
17545866093
17545869877
17545875797
17545881412
17545887821
17545893986
17545899784
17545905765
17545910953
17545916386
17545923221
17545929508
17545934025
17545938907
17545945316
17545951053
17545955936
17545964359
17545968326
17545975590
17545979618
17545987308
17545992496
17545997806
17546004032
17546009525
17546013919
17546021000
17546026065
17546032718
17546037296
17546043644
17546051151
17546055545
17546062137
17546067813
17546074222
17546077945
17546085025
17546089420
17546096195
17546101993
17546108280
17546114200
17546120242
17546126102
17546133121
17546139713
17546144351
17546150882
17546159854
17546164615
17546172855
17546179080
17546184879
17546190311
17546195621
17546201663
17546207889
17546213992
17546216067
17546226077
17546231998
17546236514
17546240176
17546249637
17546254825
17546262393
17546266055
17546272891
17546278750
17546284488
17546290042
17546297488
17546303347
17546309268
17546314334
17546319094
17546323855
17546330020
17546337161
17546343203
17546348269
17546354129
17546359378
17546362979
17546373110
17546378237
17546382754
17546388674
17546393069
17546399233
17546406252
17546412112
17546416812
17546423159
17546428774
17546433901
17546440066
17546447024
17546451785
17546458254
17546460329
17546470156
17546473940
17546480654
17546484560
17546493838
17546497744
17546505190
17546510134
17546517763
17546523012
17546528139
17546533877
17546540163
17546545046
17546552004
17546556643
17546562563
17546568178
17546575136
17546581057
17546586123
17546591860
17546595949
17546605349
17546612307
17546617006
17546622988
17546630251
17546635866
17546643618
17546650576
17546656740
17546661806
17546668581
17546675844
17546682619
17546689272
17546691530
17546701479
17546705873
17546715395
17546718935
17546726015
17546731813
17546737673
17546744508
17546752077
17546759584
17546766054
17546772035
17546778078
17546785158
17546791750
17546796510
17546803346
17546812013
17546817140
17546824220
17546830141
17546834596
17546840089
17546847230
17546853029
17546857911
17546864930
17546872011
17546875856
17546882875
17546887452
17546895326
17546900697
17546906373
17546911500
17546916749
17546921815
17546929261
17546934022
17546939881
17546946107
17546951234
17546958314
17546964295
17546968873
17546972352
17546979859
17546983644
17546991273
17546995118
17547001161
17547006349
17547011964
17547017152
17547025147
17547029786
17547035340
17547040345
17547046754
17547054688
17547060365
17547064881
17547068421
17547077088
17547080750
17547087586
17547092774
17547098511
17547103760
17547109070
17547114991
17547122071
17547127503
17547133301
17547138123
17547144105
17547151978
17547157960
17547164429
17547169678
17547174317
17547181275
17547186524
17547193238
17547201966
17547208435
17547214173
17547217957
17547225159
17547231385
17547237488
17547242554
17547248535
17547254517
17547259705
17547264527
17547270508
17547275452
17547282288
17547287476
17547294373
17547302796
17547305420
17547315308
17547319458
17547327820
17547334290
17547339539
17547345642
17547353272
17547361023
17547367126
17547377075
17547385254
17547395264
17547405151
17547414062
17547421814
17547431824
17547440491
17547451782
17547463135
17547469116
17547483215
17547489929
17547498718
17547506897
17547517822
17547525879
17547534301
17547540954
17547549743
17547557006
17547563537
17547571899
17547580200
17547588134
17547597106
17547607177
17547613830
17547621764
17547627929
17547633178
17547643188
17547648010
17547655395
17547663268
17547668700
17547680175
17547685485
17547693725
17547700072
17547709411
17547716064
17547723815
17547731566
17547737731
17547746093
17547751769
17547760863
17547768554
17547779052
17547786803
17547792662
17547801879
17547809386
17547816405
17547827086
17547833678
17547841429
17547848693
17547856871
17547864196
17547870543
17547878539
17547885985
17547893736
17547900023
17547909178
17547916136
17547921996
17547932311
17547941161
17547948912
17547957823
17547967833
17547976500
17547982603
17547992979
17548000609
17548003966
17548017332
17548024534
17548034239
17548043272
17548051146
17548058470
17548063841
17548074766
17548082823
17548091368
17548098387
17548107420
17548115293
17548124205
17548131041
17548138792
17548145567
17548152525
17548155516
17548168943
17548175169
17548184812
17548194029
17548200742
17548208067
17548215696
17548222959
17548229551
17548237730
17548246336
17548254453
17548265134
17548273984
17548281797
17548287656
17548295957
17548303648
17548313352
17548320859
17548328184
17548336362
17548349546
17548359739
17548366025
17548375730
17548383237
17548391111
17548398069
17548402951
17548415647
17548424375
17548431882
17548438413
17548444638
17548451596
17548457151
17548463803
17548468991
17548475034
17548482541
17548487546
17548493405
17548499082
17548505551
17548511838
17548517087
17548521909
17548528012
17548534299
17548537717
17548544919
17548551267
17548556210
17548561032
17548566891
17548572812
17548580075
17548583554
17548591428
17548596249
17548601803
17548607419
17548612790
17548619626
17548626217
17548631344
17548637692
17548642819
17548649289
17548654233
17548659787
17548668087
17548673337
17548678097
17548685482
17548689877
17548695980
17548701718
17548707089
17548712338
17548718075
17548724301
17548729733
17548735775
17548741513
17548747311
17548751034
17548758969
17548765927
17548770809
17548776364
17548782284
17548788449
17548794430
17548799252
17548805477
17548811398
17548818478
17548824825
17548831478
17548835629
17548844723
17548852413
17548857662
17548861324
17548870174
17548875118
17548882320
17548886593
17548897213
17548902889
17548910152
17548916073
17548922664
17548927730
17548933956
17548938778
17548945431
17548950680
17548957088
17548963375
17548971004
17548976619
17548984798
17548992244
17548997127
17549003719
17549008419
17549016964
17549023067
17549032100
17549037349
17549043209
17549048213
17549055171
17549060848
17549067684
17549072872
17549079036
17549083919
17549089900
17549094539
17549102046
17549110408
17549117976
17549121883
17549129695
17549135738
17549141292
17549146480
17549151912
17549158748
17549166499
17549171443
17549177608
17549182552
17549187312
17549193721
17549199519
17549205440
17549212581
17549219111
17549223689
17549228145
17549234614
17549240596
17549245540
17549252131
17549257380
17549263667
17549269282
17549275630
17549280635
17549286311
17549292170
17549298091
17549302851
17549309138
17549315058
17549319697
17549325862
17549331477
17549336238
17549342036
17549347773
17549355464
17549358943
17549366328
17549371272
17549377375
17549382502
17549390009
17549397151
17549404292
17549409113
17549415095
17549420405
17549427363
17549432246
17549437556
17549444941
17549451655
17549456477
17549462702
17549467829
17549473872
17549478144
17549485102
17549490656
17549496821
17549503351
17549508295
17549514033
17549519831
17549524286
17549530451
17549537714
17549545466
17549549860
17549556879
17549561335
17549566950
17549570917
17549577936
17549587153
17549593927
17549598505
17549604364
17549611505
17549616693
17549621942
17549629389
17549636286
17549644220
17549650263
17549654840
17549659845
17549666254
17549671381
17549678461
17549684198
17549691156
17549696283
17549702387
17549707941
17549714227
17549720514
17549725214
17549731683
17549737970
17549742731
17549748346
17549753595
17549760553
17549767084
17549772089
17549780084
17549787286
17549792413
17549798273
17549804376
17549809747
17549814081
17549817560
17549825860
17549831720
17549837823
17549843011
17549849176
17549854303
17549860223
17549865960
17549870477
17549877862
17549884454
17549887872
17549895013
17549900994
17549906915
17549911737
17549917474
17549926568
17549931329
17549936639
17549943780
17549948846
17549953973
17549960137
17549965386
17549971429
17549977899
17549983270
17549989922
17549994439
17550000359
17550004815
17550011712
17550017022
17550024163
17550031060
17550037530
17550042474
17550048272
17550052728
17550058770
17550064812
17550071282
17550076043
17550082879
17550087151
17550093316
17550099541
17550104424
17550111077
17550116082
17550122429
17550129387
17550134698
17550140618
17550145012
17550152337
17550161492
17550169793
17550178154
17550186333
17550194939
17550203728
17550213494
17550222527
17550231011
17550241020
17550252678
17550259575
17550264275
17550277092
17550282829
17550291680
17550298393
17550306694
17550313347
17550322380
17550327934
17550333183
17550340996
17550344780
17550351494
17550356987
17550365349
17550369194
17550378349
17550382927
17550388786
17550394585
17550399040
17550404167
17550410637
17550415947
17550423088
17550426628
17550433952
17550440178
17550445671
17550450554
17550456779
17550462578
17550469108
17550474785
17550481376
17550486076
17550493095
17550497551
17550503715
17550511100
17550517570
17550522758
17550527946
17550533683
17550538444
17550544059
17550549797
17550556327
17550562614
17550567558
17550573783
17550579460
17550584648
17550590324
17550595878
17550601249
17550609489
17550616081
17550621940
17550626334
17550632926
17550637809
17550642631
17550649223
17550655936
17550660819
17550665641
17550671439
17550676566
17550684623
17550690238
17550697806
17550705192
17550710074
17550715079
17550722281
17550727286
17550732718
17550737662
17550743644
17550750052
17550757804
17550762504
17550768973
17550773734
17550780265
17550785209
17550792105
17550796805
17550805350
17550810721
17550816214
17550822684
17550827872
17550834220
17550839408
17550846976
17550854056
17550859488
17550864798
17550871695
17550878653
17550882926
17550888114
17550895499
17550903555
17550908316
17550914847
17550919241
17550924979
17550931387
17550937369
17550942252
17550949210
17550955252
17550960318
17550966116
17550971304
17550978262
17550983145
17550988272
17550995169
17551002310
17551005911
17551014517
17551017813
17551025320
17551028799
17551036551
17551043265
17551050711
17551056143
17551060965
17551066275
17551073599
17551078299
17551083853
17551089590
17551096731
17551101492
17551106863
17551113028
17551118460
17551123465
17551129446
17551136587
17551142019
17551148245
17551165457
17551170522
17551176626
17551183157
17551189077
17551195974
17551201101
17551207205
17551212942
17551217397
17551222891
17551228017
17551234670
17551240774
17551246145
17551251699
17551256582
17551264699
17551271657
17551279226
17551285696
17551291006
17551298025
17551303091
17551309499
17551315053
17551322561
17551328603
17551334646
17551340505
17551345205
17551351857
17551356374
17551363393
17551370473
17551377492
17551381154
17551389333
17551393422
17551403066
17551406789
17551417470
17551424428
17551429738
17551436818
17551445241
17551448049
17551458730
17551465444
17551470937
17551478078
17551485524
17551490285
17551497914
17551504384
17551509206
17551514699
17551521962
17551527516
17551532582
17551539723
17551544362
17551551564
17551556874
17551562917
17551567921
17551574086
17551580434
17551587208
17551594044
17551599354
17551604237
17551610890
17551618031
17551622304
17551630360
17551633961
17551641224
17551648121
17551653248
17551658436
17551663502
17551670094
17551675343
17551680653
17551687489
17551692067
17551698048
17551704945
17551710743
17551716053
17551722706
17551728565
17551733570
17551740223
17551744129
17551751148
17551757252
17551762806
17551769032
17551777638
17551783741
17551790760
17551795521
17551801502
17551807179
17551814747
17551819019
17551828602
17551835072
17551841175
17551846546
17551850758
17551854114
17551864918
17551871326
17551877064
17551883411
17551890369
17551894214
17551900928
17551904957
17551913013
17551919361
17551925709
17551929371
17551937610
17551941334
17551948780
17551954334
17551959827
17551965442
17551970813
17551977161
17551982227
17551987659
17551994312
17551998951
17552005725
17552011035
17552017810
17552023365
17552029773
17552034412
17552040637
17552045886
17552049549
17552058643
17552062549
17552069873
17552075611
17552082568
17552087756
17552094714
17552100757
17552108814
17552116321
17552124072
17552129504
17552135425
17552140125
17552145801
17552152332
17552158313
17552165820
17552171619
17552176379
17552182666
17552187732
17552194751
17552201098
17552207934
17552213794
17552220813
17552225757
17552230945
17552237170
17552241321
17552249438
17552255359
17552260424
17552267138
17552273242
17552278735
17552283923
17552291125
17552296496
17552301135
17552306872
17552313586
17552318774
17552323596
17552327319
17552336474
17552340258
17552347888
17552351672
17552359606
17552364001
17552371996
17552378405
17552383532
17552388598
17552394213
17552399279
17552406481
17552411791
17552419238
17552425036
17552431261
17552436083
17552441698
17552446825
17552453722
17552460192
17552466723
17552471911
17552478258
17552484423
17552489367
17552494189
17552497851
17552507311
17552515917
17552521166
17552524828
17552533861
17552537645
17552544542
17552550036
17552555956
17552561205
17552567003
17552572802
17552579882
17552585558
17552593004
17552599352
17552604906
17552611559
17552617723
17552622667
17552629869
17552636095
17552641649
17552647142
17552655748
17552665026
17552669847
17552676744
17552685228
17552691454
17552697557
17552704881
17552711168
17552717577
17552723253
17552729112
17552735704
17552741685
17552747545
17552752428
17552758287
17552763963
17552769273
17552774278
17552779771
17552784410
17552790269
17552792406
17552801378
17552807420
17552813280
17552819749
17552824144
17552830125
17552834337
17552837694
17552845872
17552849595
17552857469
17552860948
17552868760
17552872728
17552879930
17552886460
17552892259
17552898790
17552903855
17552909043
17552914964
17552920640
17552926744
17552931565
17552938829
17552944932
17552949937
17552954942
17552962937
17552967942
17552973130
17552979112
17552984605
17552991197
17552995774
17553001878
17553008164
17553013718
17553017442
17553025498
17553029099
17553039292
17553041367
17553051377
17553055039
17553063401
17553067063
17553073716
17553079392
17553086960
17553090928
17553097642
