17650996683
17651001749
17651006143
17651010782
17651014932
17651020242
17651025858
17651029398
17651034769
17651038492
17651044107
17651048807
17651053140
17651058328
17651065714
17651071451
17651076456
17651080850
17651086282
17651091470
17651096841
17651101907
17651106180
17651111795
17651116434
17651121744
17651126199
17651131570
17651136819
17651144144
17651150003
17651156473
17651162454
17651167520
17651172891
17651179117
17651184976
17651191629
17651199746
17651205484
17651212564
17651218606
17651226602
17651233133
17651239968
17651247293
17651253396
17651259805
17651266030
17651274697
17651282266
17651288613
17651296548
17651302712
17651308572
17651316689
17651323159
17651330361
17651338784
17651345559
17651351296
17651358926
17651365456
17651372536
17651381509
17651388589
17651394997
17651400918
17651409646
17651418679
17651424599
17651431740
17651440713
17651445473
17651454995
17651461648
17651470315
17651477273
17651485085
17651492043
17651499062
17651507363
17651513649
17651520180
17651528725
17651536843
17651544655
17651552407
17651560280
17651565346
17651574990
17651582558
17651592629
17651598305
17651607277
17651613747
17651620888
17651629250
17651634560
17651645363
17651651527
17651659279
17651666481
17651673805
17651681313
17651689186
17651697182
17651703712
17651710853
17651723183
17651732460
17651738014
17651745033
17651753334
17651761696
17651768715
17651777870
17651785621
17651792518
17651799415
17651808571
17651815895
17651822914
17651829811
17651837623
17651845069
17651851783
17651858985
17651867836
17651874610
17651880592
17651889503
17651896827
17651905677
17651913795
17651920814
17651930274
17651935401
17651945228
17651952857
17651959388
17651967994
17651972633
17651981788
17651990150
17651998695
17652006019
17652012427
17652019752
17652026588
17652033546
17652043128
17652050757
17652057288
17652065223
17652072303
17652081824
17652087867
17652095191
17652102332
17652109534
17652119300
17652126746
17652133338
17652139869
17652148169
17652156531
17652164405
17652171851
17652179602
17652188758
17652196509
17652203711
17652211157
17652219031
17652226233
17652231970
17652240515
17652248572
17652255591
17652262549
17652269751
17652278174
17652285071
17652291357
17652299841
17652306311
17652313147
17652319495
17652328406
17652336401
17652346106
17652350989
17652360449
17652367895
17652376196
17652384863
17652392675
17652401403
17652408972
17652417151
17652424475
17652432165
17652439611
17652447119
17652455114
17652462805
17652469641
17652479467
17652487158
17652494970
17652501257
17652510839
17652518408
17652526098
17652533422
17652540991
17652549413
17652559972
17652567968
17652577612
17652586095
17652592931
17652601415
17652608373
17652617040
17652623815
17652631017
17652638708
17652649633
17652654699
17652665258
17652670324
17652681005
17652687841
17652697179
17652704686
17652711644
17652722020
17652727452
17652738256
17652745458
17652752599
17652759191
17652766027
17652775121
17652783238
17652790013
17652794835
17652803075
17652809850
17652817967
17652824925
17652834630
17652839635
17652848790
17652855809
17652864293
17652873326
17652879735
17652886998
17652895177
17652903111
17652909825
17652918309
17652923070
17652932530
17652940037
17652946690
17652953709
17652963170
17652971470
17652978978
17652986607
17652996861
17653005101
17653013218
17653021824
17653029087
17653037632
17653045384
17653053990
17653062779
17653067784
17653077488
17653085911
17653094883
17653103062
17653110020
17653117344
17653123631
17653130955
17653138523
17653146458
17653153355
17653159275
17653165989
17653172764
17653179844
17653188877
17653196262
17653204075
17653210850
17653217869
17653223850
17653230686
17653238193
17653246250
17653253086
17653260105
17653267185
17653274570
17653280613
17653288486
17653295566
17653302402
17653310093
17653316867
17653324009
17653332553
17653338230
17653346775
17653354953
17653364170
17653369724
17653376682
17653383701
17653389194
17653399936
17653408176
17653415866
17653422336
17653431979
17653439060
17653445651
17653453342
17653464084
17653471591
17653479770
17653488132
17653497104
17653504123
17653512973
17653520297
17653525851
17653538547
17653546786
17653557162
17653563754
17653573398
17653581271
17653586642
17653593783
17653600253
17653608004
17653615268
17653623996
17653631747
17653637789
17653644564
17653652438
17653658236
17653664218
17653672213
17653682772
17653688693
17653695834
17653704012
17653710177
17653721529
17653729342
17653735995
17653743502
17653748446
17653756503
17653762057
17653767489
17653774569
17653780245
17653785738
17653792208
17653797030
17653803683
17653810580
17653815584
17653822176
17653828829
17653833529
17653840243
17653845186
17653851900
17653857027
17653862581
17653868990
17653874422
17653881502
17653885103
17653892366
17653898104
17653905672
17653911409
17653916841
17653923372
17653928621
17653934908
17653940157
17653945589
17653950838
17653957796
17653964022
17653968538
17653976412
17653981661
17653987642
17653994539
17654001802
17654007295
17654014070
17654019563
17654026704
17654031587
17654038667
17654043794
17654049410
17654054781
17654061494
17654066621
17654071382
17654078828
17654084871
17654090303
17654096345
17654100862
17654107149
17654112642
17654117586
17654124116
17654128511
17654134675
17654141450
17654146394
17654152498
17654158113
17654163545
17654169771
17654175630
17654180024
17654186677
17654193513
17654199800
17654205171
17654210969
17654217317
17654223176
17654229585
17654234346
17654242585
17654248445
17654255830
17654263948
17654269929
17654277192
17654282563
17654290437
17654296113
17654300569
17654306428
17654312959
17654318269
17654323457
17654328950
17654335481
17654340363
17654346589
17654352448
17654357392
17654363374
17654369355
17654377290
17654383210
17654388154
17654393281
17654399323
17654403535
17654410248
17654416474
17654421601
17654427460
17654433930
17654438996
17654444184
17654449189
17654456940
17654462494
17654468110
17654475312
17654482087
17654487153
17654493622
17654499543
17654505158
17654510529
17654517243
17654521942
17654527191
17654534821
17654540558
17654547760
17654552826
17654557953
17654563996
17654569794
17654575836
17654580780
17654586762
17654592011
17654599640
17654604706
17654610748
17654615326
17654619782
17654626923
17654632294
17654638886
17654644196
17654649689
17654656281
17654661285
17654666229
17654673798
17654680817
17654686188
17654691009
17654697418
17654702545
17654709198
17654714508
17654721527
17654726654
17654732025
17654738678
17654744903
17654749481
17654755951
17654763580
17654769867
17654775421
17654781524
17654787262
17654793426
17654798736
17654806060
17654812042
17654817108
17654823822
17654828887
17654835296
17654840240
17654846527
17654851776
17654856658
17654863372
17654868560
17654875518
17654880645
17654885101
17654892486
17654898773
17654903716
17654908843
17654915130
17654920867
17654926482
17654931243
17654938384
17654943084
17654947723
17654955657
17654960540
17654965423
17654972259
17654977630
17654982940
17654988555
17654995208
17655000884
17655005401
17655011565
17655017913
17655024383
17655028899
17655034759
17655040374
17655046538
17655051604
17655056365
17655063750
17655068877
17655075713
17655080352
17655086882
17655091277
17655096038
17655101775
17655108550
17655113860
17655119597
17655126128
17655130645
17655135710
17655141326
17655147856
17655152434
17655157622
17655162505
17655169463
17655174285
17655179839
17655186553
17655193022
17655198332
17655204253
17655209136
17655216033
17655221343
17655227629
17655233305
17655238921
17655244231
17655249236
17655254546
17655259917
17655265715
17655273527
17655280974
17655286955
17655293608
17655298796
17655304533
17655310393
17655316374
17655322294
17655328947
17655334440
17655341337
17655347075
17655352690
17655355742
17655365812
17655371122
17655376738
17655382292
17655387297
17655392607
17655397734
17655403166
17655410246
17655416166
17655421232
17655426420
17655430998
17655436552
17655443266
17655449308
17655455290
17655460600
17655466215
17655471281
17655477445
17655482633
17655487699
17655493253
17655499540
17655504545
17655510282
17655516264
17655520780
17655527250
17655533903
17655539518
17655544767
17655551176
17655556974
17655562955
17655568571
17655574430
17655579984
17655587308
17655592863
17655597379
17655604642
17655609525
17655615018
17655620084
17655626554
17655631864
17655637601
17655642545
17655647916
17655653653
17655660367
17655666166
17655670926
17655677640
17655681974
17655686979
17655693692
17655697232
17655705045
17655711148
17655716092
17655721036
17655726407
17655732938
17655738736
17655744412
17655749845
17655755460
17655761258
17655766629
17655773404
17655777982
17655783170
17655790006
17655796964
17655801846
17655808926
17655814176
17655820157
17655825955
17655832913
17655838895
17655844022
17655851468
17655857144
17655862210
17655868741
17655874600
17655882107
17655888455
17655894131
17655899991
17655905789
17655911526
17655916958
17655921597
17655928006
17655933987
17655939541
17655943814
17655949917
17655955349
17655962307
17655968472
17655974148
17655980923
17655987149
17655992703
17655998867
17656003811
17656010281
17656015103
17656021328
17656028591
17656034451
17656040554
17656045864
17656051480
17656058377
17656063259
17656069790
17656074856
17656081509
17656085781
17656092861
17656100186
17656105129
17656111355
17656118252
17656123989
17656129849
17656135220
17656140896
17656148159
17656153103
17656158352
17656164638
17656170010
17656175320
17656182156
17656186794
17656192470
17656200161
17656205776
17656210415
17656217251
17656222011
17656229214
17656234890
17656241176
17656246975
17656252773
17656258144
17656264187
17656269924
17656276760
17656282253
17656288173
17656293422
17656297756
17656303188
17656310634
17656316188
17656321987
17656328945
17656333827
17656339077
17656345302
17656350856
17656360195
17656367580
17656373134
17656378444
17656384792
17656389919
17656396388
17656402126
17656407375
17656416042
17656421779
17656428004
17656433498
17656440273
17656445644
17656451625
17656458644
17656464870
17656469325
17656475429
17656480739
17656485194
17656489772
17656498439
17656503200
17656508204
17656514369
17656520961
17656526515
17656531276
17656538539
17656543605
17656550136
17656555018
17656559596
17656566493
17656571376
17656577784
17656583339
17656589320
17656594325
17656598780
17656604884
17656609339
17656616236
17656623255
17656628627
17656633509
17656638941
17656644313
17656650233
17656654933
17656660670
17656667628
17656672389
17656677332
17656683253
17656689356
17656693812
17656699854
17656706995
17656712489
17656717494
17656722987
17656728175
17656733179
17656739954
17656745692
17656750880
17656757716
17656763270
17656767786
17656774256
17656780726
17656786280
17656791529
17656796961
17656802943
17656807154
17656813318
17656818812
17656823328
17656830164
17656834986
17656842005
17656846644
17656852930
17656857203
17656863306
17656867823
17656875025
17656881067
17656886255
17656892481
17656897791
17656904200
17656909265
17656918055
17656923242
17656928980
17656935205
17656940698
17656946802
17656952417
17656960169
17656965418
17656972559
17656978174
17656982630
17656989160
17656994104
17656998804
17657005701
17657010828
17657016931
17657021265
17657027551
17657032251
17657038232
17657045129
17657051721
17657056909
17657061975
17657068079
17657073328
17657078516
17657085046
17657091394
17657095361
17657102075
17657108484
17657113244
17657118799
17657124597
17657130578
17657136255
17657142602
17657146936
17657153589
17657159326
17657164575
17657170495
17657177697
17657182397
17657186914
17657192712
17657198571
17657204065
17657209314
17657217065
17657222497
17657228784
17657232995
17657239648
17657244165
17657250329
17657256860
17657264001
17657269128
17657274560
17657279687
17657286096
17657291039
17657297753
17657303796
17657311547
17657319054
17657326440
17657333459
17657340356
17657346398
17657353112
17657358422
17657364465
17657370080
17657375817
17657380944
17657386559
17657392663
17657398400
17657404503
17657410058
17657415001
17657420861
17657426232
17657432519
17657439293
17657443200
17657450829
17657456383
17657463280
17657469078
17657475426
17657481285
17657488366
17657494530
17657499779
17657506615
17657513878
17657518761
17657526268
17657531212
17657537743
17657543541
17657547997
17657554039
17657558983
17657564842
17657572472
17657578270
17657584923
17657590111
17657595482
17657602440
17657608605
17657615562
17657620812
17657627220
17657632408
17657637779
17657643944
17657648766
17657653770
17657660240
17657665001
17657671104
17657675987
17657683250
17657687645
17657694420
17657700462
17657705772
17657710167
17657716697
17657721519
17657726463
17657732750
17657739647
17657744407
17657749778
17657756004
17657760521
17657766746
17657771873
17657778648
17657783592
17657789756
17657794456
17657799583
17657805076
17657810386
17657817832
17657824119
17657829246
17657835533
17657841026
17657846885
17657852928
17657857871
17657865013
17657869468
17657876609
17657884422
17657887962
17657896323
17657902793
17657909873
17657916160
17657920676
17657925559
17657930503
17657937095
17657943504
17657950034
17657956321
17657961814
17657968101
17657973716
17657979880
17657984397
17657991111
17657997214
17658002585
17658009238
17658014609
17658021079
17658026572
17658033286
17658040427
17658045249
17658052512
17658057395
17658063071
17658069602
17658075400
17658082114
17658087485
17658092612
17658098777
17658103781
17658110129
17658115500
17658123007
17658127890
17658134604
17658140158
17658145468
17658150656
17658155783
17658162192
17658167258
17658173850
17658178793
17658184470
17658189230
17658195700
17658200766
17658208518
17658214194
17658219382
17658224814
17658229758
17658235861
17658241110
17658247275
17658252097
17658257651
17658264365
17658269308
17658274313
17658278830
17658285788
17658291403
17658297446
17658302450
17658307455
17658313559
17658319235
17658324240
17658330832
17658336996
17658341452
17658348898
17658354330
17658360617
17658365744
17658371420
17658376669
17658382040
17658387350
17658394125
17658398519
17658403768
17658408346
17658416708
17658422811
17658427755
17658433615
17658438681
17658444662
17658450033
17658455282
17658462240
17658466879
17658471578
17658479635
17658485677
17658490926
17658498129
17658504110
17658510580
17658515096
17658521627
17658527914
17658532919
17658539877
17658545553
17658552084
17658558797
17658564413
17658571493
17658575582
17658583089
17658588277
17658594747
17658599386
17658605062
17658611287
17658615926
17658622152
17658628011
17658634359
17658639180
17658644552
17658650899
17658658590
17658663778
17658670491
17658676046
17658681783
17658686788
17658692464
17658697408
17658704000
17658709005
17658716939
17658723104
17658728536
17658733541
17658739644
17658744466
17658749410
17658755635
17658762349
17658768453
17658773824
17658780415
17658785481
17658790181
17658796956
17658804646
17658809712
17658819112
17658824055
17658830098
17658835225
17658839864
17658847493
17658853169
17658858479
17658865071
17658871052
17658876729
17658882405
17658889180
17658893941
17658900105
17658905232
17658912190
17658917988
17658923054
17658929036
17658933613
17658939900
17658945332
17658951924
17658958149
17658964192
17658970845
17658975911
17658981343
17658987629
17658994221
17659001362
17659007344
17659012837
17659019795
17659025349
17659030476
17659035969
17659043537
17659050556
17659056111
17659060993
17659068501
17659073261
17659080341
17659085468
17659091511
17659098774
17659104389
17659111042
17659118794
17659125507
17659132160
17659138020
17659143452
17659148579
17659153889
17659159016
17659166401
17659171345
17659176044
17659182575
17659188862
17659195148
17659201252
17659206562
17659211506
17659216816
17659221943
17659227985
17659233722
17659238849
17659245868
17659251117
17659255756
17659261005
17659267536
17659271991
17659276935
17659284076
17659289447
17659295368
17659301532
17659307025
17659312885
17659317951
17659323078
17659328449
17659333270
17659341327
17659346698
17659351947
17659358295
17659361652
17659368060
17659372943
17659378803
17659385272
17659390338
17659395282
17659401141
17659408893
17659414996
17659420490
17659425861
17659431598
17659436298
17659441302
17659447284
17659454486
17659460101
17659465289
17659470477
17659475482
17659480914
17659486102
17659492755
17659499103
17659505389
17659511065
17659516070
17659521380
17659527362
17659532000
17659536700
17659543902
17659549029
17659556353
17659561419
17659567035
17659575213
17659581012
17659586749
17659592364
17659597491
17659602374
17659608233
17659614276
17659620684
17659627825
17659634112
17659641314
17659645770
17659651446
17659657977
17659664630
17659671954
17659677813
17659683550
17659689593
17659694903
17659700213
17659706744
17659711871
17659716937
17659721819
17659729998
17659735247
17659740557
17659747698
17659753069
17659758562
17659764666
17659770342
17659775469
17659781573
17659788714
17659793780
17659798907
17659805865
17659810930
17659816912
17659823443
17659829546
17659834795
17659840166
17659845964
17659852373
17659858538
17659865557
17659871599
17659876604
17659882036
17659889666
17659895830
17659902056
17659907976
17659913530
17659919084
17659925310
17659930071
17659935747
17659941057
17659949419
17659954424
17659959062
17659965105
17659970415
17659976885
17659982622
17659988237
17659993547
17659998796
17660004472
17660010637
17660016618
17660023149
17660027910
17660033159
17660040178
17660045244
17660052385
17660058183
17660063982
17660069597
17660075395
17660080644
17660086015
17660091142
17660096635
17660101762
17660106584
17660113786
17660119645
17660124894
17660130998
17660137162
17660141801
17660147661
17660155534
17660160905
17660166459
17660172685
17660178239
17660183488
17660190446
17660196122
17660201554
17660208940
17660216081
17660221391
17660226152
17660231278
17660237077
17660242814
17660248979
17660254899
17660261369
17660266740
17660271562
17660277055
17660282182
17660289567
17660294816
17660299394
17660304581
17660309403
17660314896
17660319962
17660327897
17660333329
17660339005
17660344681
17660350785
17660356339
17660363114
17660368119
17660373246
17660377579
17660382767
17660389115
17660393937
17660400101
17660403702
17660413041
17660419144
17660424576
17660430008
17660435135
17660440751
17660445939
17660451493
17660457352
17660463150
17660469071
17660475479
17660480362
17660485062
17660492752
17660498246
17660503617
17660509964
17660514298
17660518875
17660524979
17660530411
17660533280
17660543228
17660549149
17660554703
17660559403
17660564407
17660569718
17660574844
17660582291
17660587418
17660592362
17660599197
17660604569
17660610672
17660615738
17660621414
17660627823
17660632339
17660637833
17660645584
17660651993
17660656814
17660664017
17660670914
17660676102
17660682571
17660689285
17660694595
17660700577
17660708816
17660714859
17660722915
17660727798
17660733841
17660740554
17660746963
17660754104
17660759597
17660766677
17660772720
17660778823
17660784439
17660790115
17660796340
17660802383
17660808792
17660814590
17660819534
17660824478
17660829360
17660834548
17660842056
17660846084
17660853225
17660860366
17660865371
17660870742
17660876785
17660883804
17660889480
17660894912
17660900100
17660905837
17660911147
17660917922
17660924148
17660929153
17660935683
17660941360
17660947646
17660953567
17660960342
17660966018
17660972060
17660977187
17660981582
17660987136
17660993606
17660998488
17661002700
17661008986
17661013869
17661020705
17661027175
17661032424
17661039382
17661044692
17661049758
17661055373
17661060683
17661065810
17661071730
17661078261
17661084182
17661089308
17661096328
17661100905
17661106459
17661113478
17661120070
17661125380
17661130385
17661136305
17661142531
17661148512
17661154982
17661159987
17661164992
17661170119
17661176100
17661181899
17661186842
17661194289
17661200270
17661206557
17661212111
17661218153
17661225294
17661229933
17661234633
17661241408
17661247633
17661254652
17661260695
17661266798
17661272352
17661276869
17661283095
17661291823
17661295424
17661301893
17661309889
17661314955
17661319227
17661325636
17661331495
17661336683
17661341383
17661347792
17661352186
17661357862
17661365736
17661371901
17661377211
17661383070
17661387709
17661393995
17661398939
17661406935
17661412123
17661418470
17661424696
17661430860
17661436415
17661441480
17661446485
17661451307
17661456495
17661462965
17661467970
17661474195
17661479932
17661484510
17661491285
17661496961
17661503675
17661509595
17661515882
17661521253
17661525526
17661532056
17661536634
17661541517
17661548841
17661554639
17661559766
17661566175
17661571302
17661577100
17661582349
17661587781
17661593885
17661600110
17661606092
17661610792
17661616041
17661622327
17661628248
17661635633
17661640943
17661645643
17661651502
17661656568
17661664197
17661670240
17661675855
17661681714
17661686841
17661693494
17661698316
17661703809
17661709302
17661714307
17661720044
17661725842
17661732984
17661737195
17661743726
17661748792
17661754346
17661759107
17661767224
17661773389
17661779492
17661785107
17661790784
17661797009
17661802625
17661808606
17661814465
17661822156
17661828686
17661834485
17661839673
17661847485
17661853528
17661859387
17661865491
17661870556
17661875134
17661880261
17661885083
17661892102
17661897961
17661903821
17661910290
17661913769
17661921765
17661928296
17661933606
17661939221
17661943921
17661949963
17661955029
17661960888
17661966259
17661972485
17661978405
17661984326
17661991223
17661997082
17662002331
17662008679
17662013867
17662020092
17662027111
17662033459
17662039379
17662044384
17662048718
17662053967
17662060375
17662066418
17662072949
17662078503
17662083202
17662088268
17662093090
17662098278
17662104259
17662111523
17662116772
17662122326
17662127575
17662135143
17662141125
17662146618
17662151928
17662156689
17662163097
17662168102
17662173900
17662178905
17662186168
17662192333
17662197582
17662204052
17662207653
17662214916
17662220531
17662224926
17662230907
17662236095
17662240978
17662247265
17662253917
17662259777
17662265819
17662271129
17662275707
17662282177
17662288768
17662293468
17662298534
17662305553
17662310619
17662318920
17662324291
17662329540
17662335948
17662343273
17662349376
17662354747
17662359874
17662365611
17662374522
17662381297
17662387584
17662394725
17662402965
17662408214
17662414806
17662421275
17662426768
17662431895
17662437022
17662442210
17662449046
17662454234
17662460582
17662466075
17662472606
17662477794
17662482493
17662488902
17662492686
17662500377
17662506114
17662511424
17662517466
17662523997
17662529673
17662535533
17662541026
17662546641
17662553477
17662558543
17662563304
17662568614
17662574107
17662579844
17662586070
17662591990
17662598399
17662602915
17662610606
17662616526
17662622447
17662628001
17662633250
17662639414
17662645396
17662651866
17662657786
17662663096
17662668589
17662674143
17662679331
17662685191
17662690745
17662696726
17662702036
17662708689
17662715342
17662720103
17662726023
17662732127
17662736765
17662741831
17662747324
17662752573
17662758616
17662764414
17662770334
17662775217
17662782480
17662786204
17662794382
17662799997
17662804941
17662811594
17662817515
17662823313
17662828684
17662835154
17662841074
17662846567
17662854746
17662860910
17662868418
17662874765
17662879404
17662887216
17662895212
17662901010
17662909006
17662917063
17662923532
17662930429
17662937570
17662944589
17662949533
17662955148
17662961069
17662966867
17662973825
17662979746
17662985178
17662991647
17662997324
17663002145
17663009042
17663016061
17663021005
17663026987
17663034433
17663039743
17663044870
17663051095
17663057016
17663062631
17663069772
17663076120
17663081918
17663086923
17663091501
17663096200
17663102731
17663108529
17663115243
17663120919
17663126779
17663131906
17663136544
17663142404
17663148324
17663153695
17663158517
17663165292
17663170175
17663175302
17663182138
17663188729
17663194100
17663200204
17663207223
17663212899
17663218759
17663224069
17663231332
17663236825
17663242074
17663248300
17663254220
17663259591
17663266183
17663271554
17663277840
17663282784
17663288949
17663295541
17663300362
17663305611
17663311654
17663317635
17663323678
17663329598
17663335946
17663341317
17663347787
17663353219
17663359810
17663365121
17663369881
17663374886
17663384408
17663390877
17663398507
17663405159
17663411263
17663417244
17663423775
17663432930
17663439461
17663449654
17663458321
17663464669
17663473091
17663481331
17663486824
17663493904
17663500130
17663509346
17663516609
17663521553
17663527718
17663533394
17663540291
17663547371
17663554207
17663560066
17663566170
17663569588
17663577339
17663583260
17663588326
17663595100
17663601875
17663606636
17663613228
17663620247
17663625252
17663631660
17663638496
17663643806
17663650947
17663657478
17663663765
17663668892
17663675422
17663682075
17663689461
17663696113
17663702583
17663708564
17663713875
17663720283
17663725471
17663732124
17663738411
17663744941
17663752143
17663757209
17663764106
17663771125
17663777534
17663783454
17663790107
17663796882
17663803230
17663809883
17663814887
17663821784
17663826850
17663832221
17663839240
17663844734
17663853462
17663858955
17663864631
17663870612
17663877387
17663883247
17663889899
17663897407
17663902473
17663909064
17663914863
17663920173
17663927009
17663932563
17663939338
17663947578
17663953254
17663958686
17663967170
17663972114
17663979133
17663986823
17663992743
17664000312
17664015021
17664027350
17664036444
17664044562
17664053962
17664062751
17664070868
17664079535
17664088141
17664096198
17664103278
17664108832
17664115058
17664121649
17664126654
17664133063
17664139777
17664146063
17664152655
17664158392
17664164862
17664170355
17664176947
17664183051
17664189581
17664195624
17664201544
17664207220
17664213385
17664219122
17664224860
17664231451
17664238592
17664243963
17664250311
17664257269
17664261786
17664268988
17664273993
17664281012
17664287542
17664293158
17664298590
17664305792
17664311834
17664317694
17664325079
17664331610
17664336554
17664343145
17664349493
17664355597
17664362249
17664368109
17664373419
17664379949
17664385260
17664391424
17664398077
17664405218
17664411566
17664416754
17664423589
17664429571
17664434515
17664440862
17664447637
17664453985
17664460455
17664466436
17664472967
17664477667
17664485967
17664491766
17664498540
17664503851
17664513433
17664518926
17664525518
17664531805
17664540349
17664546453
17664553472
17664560796
17664567022
17664575567
17664581609
17664587774
17664592962
17664599981
17664605657
17664610418
17664615300
17664624700
17664630254
17664643682
17664649175
17664655767
17664661809
17664668035
17664674016
17664681340
17664686345
17664691838
17664699651
17664705388
17664713140
17664719304
17664724797
17664731755
17664736821
17664742742
17664748479
17664754887
17664760198
17664766606
17664772038
17664779057
17664783635
17664790227
17664796819
17664804875
17664809880
17664815861
17664823186
17664828252
17664835820
17664841130
17664850224
17664856572
17664861943
17664868962
17664875065
17664882084
17664887944
17664893620
17664899418
17664906193
17664911381
17664918034
17664923222
17664929631
17664936283
17664942326
17664947636
17664954228
17664961918
17664967411
17664973332
17664980229
17664986332
17664991520
17664998051
17665003666
17665011173
17665016911
17665022404
17665028690
17665035221
17665041813
17665048588
17665054447
17665062260
17665067936
17665075199
17665080692
17665086185
17665093998
17665102299
17665108341
17665116154
17665121586
17665127689
17665134281
17665140079
17665145756
17665152408
17665157718
17665163639
17665168888
17665175602
17665181278
17665190128
17665197147
17665202274
17665208316
17665214847
17665220829
17665226261
17665232853
17665239322
17665244937
17665249881
17665257144
17665263187
17665268192
17665273075
17665281314
17665286563
17665292240
17665297733
17665304325
17665309696
17665315128
17665322086
17665328861
17665334415
17665339786
17665347659
17665354984
17665360294
17665367374
17665373050
17665380557
17665384219
17665392337
17665395633
17665403873
17665411319
17665416873
17665422793
17665428287
17665434329
17665440799
17665447513
17665452334
17665458865
17665463870
17665469790
17665474795
17665481875
17665489261
17665494754
17665501956
17665508731
17665513797
17665519534
17665525882
17665533267
17665538882
17665545291
17665551760
17665556216
17665563967
17665568667
17665574649
17665581607
17665588320
17665594424
17665599978
17665605654
17665613040
17665620730
17665627871
17665634585
17665640261
17665646060
17665653506
17665658205
17665667239
17665672549
17665679018
17665685915
17665692202
17665697390
17665703616
17665708498
17665714602
17665720705
17665725954
17665732180
17665746462
17665753054
17665757815
17665764589
17665771792
17665776735
17665783816
17665789797
17665795229
17665801333
17665806582
17665813295
17665818300
17665824099
17665831789
17665837038
17665843080
17665848391
17665854372
17665861574
17665866274
17665873232
17665879946
17665886782
17665892519
17665899538
17665906740
17665912172
17665917787
17665923647
17665929506
17665936952
17665943422
17665948488
17665955324
17665961610
17665967043
17665972170
17665977480
17665984499
17665990175
17665996034
17666001894
17666008302
17666013246
17666019411
17666024904
17666031801
17666038454
17666043214
17666049623
17666055299
17666062318
17666067384
17666073915
17666080873
17666086244
17666091981
17666098634
17666103517
17666109926
17666116761
17666121522
17666128541
17666133973
17666140504
17666145936
17666152345
17666159059
17666165956
17666172975
17666179261
17666185670
17666190980
17666196656
17666204164
17666211244
17666216615
17666222596
17666229676
17666236817
17666242005
17666248658
17666254517
17666260316
17666266846
17666272462
17666278443
17666283692
17666289429
17666294862
17666303712
17666310853
17666315552
17666322938
17666328248
17666334473
17666339966
17666346070
17666352845
17666358033
17666363526
17666370728
17666377320
17666382264
17666388428
17666395264
17666401123
17666406922
17666413575
17666418824
17666424866
17666430176
17666435974
17666441468
17666448975
17666455017
17666461609
17666467163
17666472473
17666477722
17666484986
17666491150
17666496460
17666502136
17666507569
17666514343
17666519837
17666527771
17666534729
17666540283
17666546326
17666553040
17666558350
17666563843
17666569946
17666575867
17666582764
17666587585
17666593689
17666599853
17666604553
17666611755
17666618225
17666624756
17666630432
17666637756
17666642944
17666648071
17666654846
17666660156
17666667969
17666672607
17666678833
17666683532
17666690796
17666696411
17666702942
17666708252
17666714233
17666720886
17666726196
17666731445
17666738952
17666746704
17666752441
17666761108
17666768920
17666775756
17666782409
17666787902
17666795410
17666801147
17666806884
17666812438
17666818298
17666825256
17666830383
17666837402
17666842712
17666849975
17666854797
17666861144
17666869262
17666875121
17666882812
17666888732
17666895446
17666900451
17666907592
17666913695
17666919189
17666923888
17666930846
17666938048
17666943847
17666950500
17666956054
17666961486
17666967406
17666973388
17666980895
17666986083
17666992736
17666998107
17667003234
17667010375
17667016906
17667022094
17667027526
17667033629
17667040831
17667044921
17667051635
17667056823
17667064635
17667069823
17667075987
17667080931
17667087462
17667094786
17667100829
17667106017
17667112059
17667119017
17667123717
17667130919
17667137389
17667142210
17667149229
17667155211
17667160399
17667167174
17667171873
17667178465
17667184142
17667190672
17667196410
17667203368
17667210509
17667217100
17667222349
17667228758
17667234923
17667239622
17667245360
17667252745
17667258482
17667263975
17667270201
17667277464
17667283384
17667289854
17667295042
17667302244
17667309263
17667314573
17667320616
17667327513
17667334715
17667341978
17667354612
17667359190
17667366392
17667371763
17667378660
17667384825
17667390318
17667396726
17667402036
17667408872
17667414549
17667421140
17667426023
17667434568
17667443174
17667447813
17667455137
17667460752
17667467344
17667472593
17667477964
17667485471
17667490537
17667497068
17667501951
17667509702
17667514890
17667521482
17667526365
17667532834
17667539609
17667545347
17667551328
17667557371
17667564084
17667569639
17667575437
17667580686
17667587522
17667593564
17667598508
17667604612
17667610166
17667617246
17667622190
17667628720
17667633664
17667640256
17667645566
17667651181
17667659238
17667664853
17667671506
17667676328
17667682736
17667687985
17667694150
17667700620
17667706540
17667712644
17667718015
17667723935
17667730588
17667735288
17667742429
17667747861
17667755002
17667759457
17667766049
17667772153
17667775876
17667782834
17667789304
17667794492
17667801938
17667807675
17667814206
17667819577
17667825619
17667830807
17667837216
17667843075
17667849057
17667854672
17667861508
17667867917
17667872616
17667879513
17667887021
17667892270
17667899716
17667906796
17667913388
17667921261
17667928158
17667933712
17667938595
17667945248
17667950192
17667956967
17667963803
17667970211
17667975888
17667982052
17667988705
17667994076
17668002621
17668008175
17668014645
17668019589
17668026974
17668032711
17668038876
17668044125
17668049923
17668056576
17668063656
17668069332
17668075680
17668080685
17668086483
17668091366
17668098263
17668104183
17668112057
17668118160
17668123470
17668130062
17668135982
17668141720
17668147152
17668154903
17668159725
17668166805
17668173336
17668177852
17668184566
17668193966
17668199825
17668206478
17668212886
17668217952
17668225154
17668230709
17668235591
17668242000
17668248775
17668254268
17668259944
17668266292
17668273006
17668278133
17668283382
17668291255
17668296199
17668304012
17668311153
17668316768
17668322933
17668329524
17668334407
17668339839
17668347102
17668352473
17668357051
17668363582
17668369807
17668375240
17668382564
17668388728
17668393550
17668399165
17668405574
17668412044
17668417415
17668424251
17668428889
17668436030
17668441951
17668448970
17668454341
17668460322
17668468745
17668475520
17668482112
17668487239
17668494197
17668500544
17668506648
17668513057
17668519343
17668524592
17668529841
17668535701
17668542231
17668547602
17668555598
17668561885
17668566828
17668573603
17668579890
17668588374
17668598078
17668605036
17668615412
17668620417
17668626276
17668632807
17668637995
17668643122
17668649287
17668654780
17668660883
17668665522
17668672175
17668679255
17668684809
17668691035
17668696772
17668703120
17668708369
17668714960
17668719599
17668725764
17668733271
17668738642
17668745417
17668752314
17668758722
17668764765
17668771784
17668778498
17668784296
17668790217
17668797419
17668802485
17668807795
17668815485
17668821222
17668826288
17668832636
17668839655
17668845636
17668851007
17668857233
17668862604
17668869013
17668875604
17668880487
17668887628
17668893122
17668899164
17668904596
17668911188
17668916803
17668923761
17668930353
17668935907
17668942804
17668948358
17668954523
17668959894
17668966180
17668972162
17668977167
17668982416
17668991449
17668997674
17669004755
17669010065
17669015619
17669023248
17669028497
17669035760
17669040521
17669047845
17669053705
17669060602
17669065606
17669072198
17669077935
17669084222
17669092462
17669097650
17669104547
17669110223
17669116449
17669124383
17669129388
17669135369
17669143060
17669150567
17669156182
17669162347
17669169488
17669175530
17669183526
17669190179
17669197076
17669203362
17669207757
17669217889
17669228204
17669236260
17669244561
17669254632
17669263543
17669271783
17669280755
17669288689
17669298943
17669307793
17669315667
17669323846
17669332574
17669341424
17669350701
17669359917
17669369439
17669378289
17669386406
17669395073
17669405083
17669413689
17669423210
17669431328
17669440728
17669448540
17669456963
17669466179
17669475884
17669485588
17669493401
17669502556
17669510246
17669518913
17669527886
17669537285
17669544731
17669554558
17669564201
17669572136
17669580803
17669588982
17669598564
17669606499
17669615654
17669625114
17669631279
17669644584
17669663139
17669681450
17669700187
17669718132
17669735954
17669754997
17669773124
17669790763
17669808341
17669821952
17669830985
17669839469
17669851554
17669868766
17669886771
17669905814
17669919608
17669930717
17669940177
17669948234
17669958671
17669968497
17669977286
17669987662
17669996756
17670005545
17670014884
17670022818
17670033255
17670042899
17670050772
17670059928
17670069083
17670077567
17670087088
17670094229
17670102713
17670113822
17670123160
17670131278
17670139578
17670149771
17670157278
17670165396
17670177298
17670188406
17670196158
17670205923
17670214224
17670224234
17670233450
17670241324
17670250296
17670260611
17670267019
17670275747
17670284658
17670294485
17670303885
17670312735
17670320913
17670330862
17670341604
17670349844
17670357534
17670365835
17670374807
17670384207
17670394583
17670402761
17670411794
17670420705
17670429250
17670437368
17670444875
17670453847
17670462392
17670470693
17670478933
17670488821
17670497121
17670506948
17670513601
17670526784
17670534719
17670544484
17670554311
17670563772
17670573110
17670583242
17670592885
17670600698
17670612600
17670621328
17670628286
17670637441
17670647451
17670654409
17670663808
17670672963
17670680104
17670689748
17670699330
17670709706
17670720631
17670728566
17670738576
17670746022
17670753529
17670764638
17670772511
17670783559
17670793812
17670803456
17670812306
17670821339
17670831654
17670839406
17670848256
17670856495
17670866200
17670872914
17670878285
17670882924
17670890919
17670895924
17670901783
17670908619
17670913380
17670920338
17670925038
17670930897
17670935902
17670942311
17670948109
17670954518
17670959217
17670965077
17670969593
17670976612
17670982411
17670987782
17670994496
17670998890
17671003590
17671010182
17671016834
17671021473
17671028675
17671034229
17671040943
17671047413
17671053516
17671057667
17671063465
17671068226
17671074757
17671080921
17671085621
17671090198
17671096912
17671101856
17671107960
17671114918
17671119068
17671124805
17671129200
17671135669
17671140003
17671145740
17671152698
17671158008
17671162769
17671169849
17671175098
17671180713
17671186023
17671192554
17671199695
17671204639
17671212024
17671218250
17671223133
17671228504
17671235401
17671239490
17671244129
17671249195
17671253833
17671257801
17671264331
17671269580
17671275623
17671280811
17671284351
17671289295
17671295093
17671299060
17671302234
17671307544
17671311450
17671315906
17671319690
17671324695
17671328845
17671332690
17671337268
17671342334
17671345447
17671350024
17671357043
17671364307
17671369189
17671373706
17671379260
17671384387
17671388293
17671392932
17671399158
17671403369
17671407580
17671412341
17671416308
17671420398
17671425342
17671431689
17671435779
17671439380
17671445544
17671448596
17671454089
17671458423
17671464099
17671468554
17671471667
17671476428
17671480700
17671486255
17671492419
17671495898
17671501086
17671505786
17671511401
17671514941
17671519519
17671527575
17671533679
17671538073
17671544421
17671549365
17671553942
17671559497
17671563708
17671569384
17671573351
17671578784
17671583239
17671588244
17671592822
17671599291
17671604113
17671609484
17671614672
17671619067
17671624865
17671631213
17671635790
17671640490
17671646655
17671651171
17671656420
17671660448
17671666186
17671671496
17671675890
17671681017
17671686510
17671690417
17671698290
17671703539
17671707812
17671713610
17671718065
17671723070
17671726916
17671732287
17671737108
17671742174
17671746508
17671751391
17671757067
17671762011
17671767077
17671772020
17671777269
17671781481
17671786058
17671790941
17671795885
17671800585
17671805590
17671812914
17671818529
17671822679
17671828356
17671834093
17671838365
17671844652
17671847826
17671854723
17671860521
17671865038
17671871202
17671874742
17671880358
17671884630
17671889696
17671896654
17671903124
17671909349
17671914415
17671921190
17671926378
17671931810
17671935960
17671943834
17671948534
17671953355
17671957933
17671963853
17671968492
17671974290
17671979661
17671985033
17671989305
17671995531
17672000047
17672005235
17672010789
17672015123
17672021959
17672027757
17672033067
17672042222
17672048631
17672055650
17672060960
17672067491
17672075914
17672082444
17672089524
17672096421
17672102586
17672109239
17672114427
17672125352
17672129808
17672135972
17672142137
17672146348
17672150498
17672158006
17672163560
17672167283
17672170152
17672175340
17672181199
17672186448
17672192063
17672202866
17672208299
17672212876
17672218186
17672222886
17672228440
17672233201
17672238938
17672243150
17672247300
17672253037
17672258225
17672263352
17672268479
17672273728
17672277695
17672283066
17672287827
17672293503
17672297593
17672303574
17672309617
17672314561
17672319443
17672324021
17672328232
17672333909
17672338364
17672344468
17672348557
17672354538
17672359238
17672364426
17672368943
17672375351
17672380173
17672385239
17672390793
17672396958
17672401535
17672408127
17672412644
17672418747
17672424424
17672429428
17672434738
17672440110
17672445359
17672450180
17672455857
17672461289
17672466904
17672471909
17672478745
17672483383
17672488327
17672492966
17672498337
17672506577
17672510056
17672516647
17672523117
17672527695
17672533188
17672538193
17672544052
17672549973
17672557541
17672561630
17672567978
17672574203
17672580978
17672587509
17672594528
17672601303
17672607345
17672613693
17672619552
17672626022
17672633529
17672637802
17672645736
17672652328
17672657638
17672663742
17672667404
17672673996
17672679733
17672685958
17672690353
17672696640
17672701767
17672707016
17672712814
17672720687
17672727218
17672734115
17672739425
17672744491
17672749252
17672754562
17672760482
17672767440
17672770736
17672778243
17672782455
17672787765
17672794662
17672799545
17672805953
17672810531
17672817855
17672824203
17672829086
17672834518
17672840194
17672845382
17672850021
17672855209
17672863265
17672867110
17672873519
17672878829
17672883895
17672889144
17672894759
17672901290
17672908675
17672915816
17672921126
17672926497
17672931319
17672937118
17672942244
17672948958
17672954879
17672960372
17672966475
17672972579
17672978377
17672984664
17672990828
17672994490
17673002547
17673009627
17673015792
17673019454
17673026168
17673032271
17673038802
17673046187
17673052779
17673056990
17673064681
17673068892
17673076338
17673082625
17673088484
17673093855
17673099959
17673106429
17673111678
17673118086
17673123579
17673129805
17673135115
17673142500
17673148970
17673157515
17673164107
17673171187
17673177168
17673182905
17673189375
17673196028
17673201765
17673207808
17673215864
17673223616
17673228254
17673236555
17673240645
17673248640
17673254377
17673262068
17673267561
17673273420
17673278791
17673285078
17673292402
17673299665
17673306074
17673314314
17673319258
17673325117
17673332136
17673336531
17673342878
17673348677
17673353315
17673358747
17673363691
17673369367
17673375471
17673381696
17673387678
17673393354
17673399091
17673404340
17673409345
17673414961
17673420881
17673426801
17673431684
17673439313
17673444257
17673450361
17673455488
17673461103
17673466840
17673472272
17673479658
17673485151
17673490888
17673496442
17673501996
17673507856
17673514326
17673519330
17673525861
17673531476
17673538312
17673546064
17673550336
17673553876
17673562665
17673569440
17673576276
17673580610
17673587690
17673594709
17673599652
17673602948
17673610028
17673617475
17673621869
17673628949
17673635053
17673641095
17673645246
17673652020
17673663007
17673669782
17673675519
17673682172
17673686627
17673692609
17673698224
17673703717
17673709393
17673715009
17673720929
17673726788
17673733075
17673739117
17673745648
17673752240
17673758832
17673764691
17673771039
17673777203
17673782941
17673788067
17673796002
17673802777
17673806988
17673814923
17673822979
17673828656
17673834332
17673838116
17673844952
17673851178
17673858075
17673863812
17673868145
17673874127
17673879986
17673886151
17673894329
17673901776
17673907208
17673913616
17673919781
17673925152
17673931500
17673935101
17673943035
17673948528
17673953594
17673957318
17673964642
17673971539
17673977154
17673983624
17673989483
17673994793
17674002483
17674007732
17674014690
17674020367
17674025677
17674031231
17674036785
17674043743
17674049358
17674056133
17674061138
17674067486
17674073772
17674079937
17674086284
17674092937
17674097942
17674105144
17674109966
17674115581
17674121807
17674127971
17674134441
17674140056
17674146526
17674152874
17674159588
17674165874
17674172283
17674178020
17674184185
17674188884
17674197246
17674203044
17674209392
17674215374
17674221355
17674226482
17674232280
17674238994
17674245342
17674252483
17674258220
17674265361
17674269695
17674277751
17674284770
17674292217
17674299236
17674304790
17674310649
17674316386
17674322551
17674328288
17674335368
17674341838
17674351054
17674357707
17674365520
17674371318
17674381511
17674387858
17674399028
17674407634
17674415324
17674423259
17674432536
17674444499
17674452922
17674459636
17674472148
17674477641
17674487223
17674494853
17674503825
17674510844
17674516703
17674527079
17674533488
17674542643
17674549662
17674559428
17674565653
17674575663
17674584513
17674592997
17674604472
17674613139
17674621806
17674627787
17674639140
17674648234
17674660136
17674666910
17674673563
17674680582
17674688273
17674695170
17674699869
17674708780
17674721537
17674727335
17674734720
17674743387
17674750162
17674757120
17674766031
17674770853
17674779581
17674786722
17674794474
17674800150
17674808878
17674816080
17674823648
17674833292
17674838724
17674848001
17674854898
17674863443
17674870889
17674879678
17674885721
17674892191
17674901224
17674907144
17674917642
17674923441
17674933023
17674939310
17674947000
17674955606
17674964273
17674970132
17674979410
17674989541
17674997781
17675002420
17675013040
17675019265
17675028238
17675036783
17675045816
17675052591
17675061685
17675069253
17675078530
17675085977
17675094522
17675100381
17675108560
17675118020
17675125833
17675133340
17675142678
17675149148
17675155251
17675164712
17675170632
17675180032
17675190896
17675196816
17675206216
17675216286
17675223428
17675230935
17675239968
17675249795
17675258767
17675265664
17675276528
17675284157
17675294350
17675302590
17675309426
17675321084
17675329751
17675338540
17675346840
17675356911
17675365273
17675374916
17675384316
17675390663
17675398903
17675408058
17675412453
17675424538
17675429543
17675438820
17675445839
17675454628
17675460915
17675470558
17675479469
17675488075
17675500893
17675510414
17675520973
17675528175
17675537209
17675543800
17675549171
17675558937
17675565590
17675573585
17675579628
17675587562
17675595070
17675606178
17675613746
17675621071
17675630348
17675636390
17675644996
17675656654
17675665260
17675671180
17675680458
17675687904
17675697547
17675704994
17675712196
17675722816
17675728675
17675735572
17675746009
17675755164
17675763526
17675769752
17675777808
17675784766
17675789649
17675803016
17675811012
17675819556
17675829261
17675838233
17675844825
17675853919
17675863746
17675870093
17675880775
17675887916
17675898169
17675903602
17675912513
17675921851
17675927710
17675937293
17675945227
17675955726
17675963172
17675971900
17675978186
17675985633
17675995459
17676003089
17676012976
17676019202
17676031470
17676038916
17676048255
17676055152
17676063208
17676073035
17676079566
17676085669
17676097388
17676104407
17676111182
17676122839
17676131445
17676140662
17676147009
17676156409
17676163794
17676173681
17676182226
17676193518
17676203039
17676211828
17676218786
17676229773
17676239050
17676245703
17676257544
17676264013
17676272619
17676283789
17676292456
17676302038
17676311437
17676319006
17676327551
17676338598
17676345983
17676351293
17676360510
17676368444
17676376440
17676383581
17676392614
17676398595
17676408422
17676426672
17676436193
17676443578
17676452123
17676458105
17676467626
17676474340
17676482458
17676491247
17676496923
17676503759
17676512792
17676519567
17676525914
17676533056
17676541906
17676549108
17676556310
17676561376
17676569799
17676577855
17676582738
17676590673
17676599889
17676606786
17676612950
17676622106
17676629613
17676636998
17676645482
17676652074
17676661534
17676671910
17676678014
17676685765
17676694554
17676700841
17676711278
17676713780
17676727208
17676736607
17676744481
17676754674
17676762486
17676769810
17676777684
17676783543
17676793736
17676799779
17676808018
17676817845
17676826573
17676834568
17676841404
17676851292
17676858494
17676865391
17676871434
17676878636
17676888951
17676894871
17676904026
17676912510
17676919590
17676925266
17676933872
17676939060
17676948643
17676957432
17676963657
17676971653
17676980869
17676989353
17676997715
17677004063
17677012058
17677019871
17677026524
17677035007
17677042087
17677051426
17677057468
17677066868
17677073582
17677085239
17677092563
17677103245
17677112705
17677118808
17677124180
17677135593
17677142368
17677155979
17677163913
17677174411
17677185459
17677195346
17677203891
17677211521
17677220249
17677226230
17677234531
17677242343
17677249362
17677258884
17677266757
17677273410
17677283115
17677290927
17677300754
17677308932
17677316318
17677331576
17677336642
17677344882
17677352389
17677359042
17677367160
17677374667
17677383029
17677389621
17677397983
17677403537
17677410861
17677419955
17677425326
17677435092
17677440951
17677449191
17677457003
17677466220
17677473361
17677482150
17677490451
17677496737
17677505892
17677514620
17677521090
17677528048
17677537814
17677546114
17677555270
17677565768
17677572665
17677582797
17677589388
17677598727
17677605624
17677615145
17677625094
17677634005
17677643282
17677650912
17677659029
17677668917
17677676485
17677687044
17677695833
17677710909
17677715426
17677725313
17677730623
17677739412
17677747042
17677756258
17677767672
17677774569
17677780794
17677788484
17677795870
17677804476
17677813265
17677818575
17677829805
17677836092
17677845674
17677854280
17677859834
17677867403
17677875887
17677882845
17677891939
17677897249
17677906709
17677916719
17677924715
17677931489
17677938509
17677948213
17677956514
17677964387
17677970247
17677980073
17677989107
17677996492
17678003328
17678012544
17678018709
17678028901
17678034822
17678043184
17678051423
17678062287
17678071077
17678078523
17678088899
17678099153
17678101411
17678113069
17678118928
17678127717
17678136323
17678143403
17678152986
17678159943
17678166413
17678173615
17678180146
17678188569
17678195283
17678204316
17678212556
17678222687
17678231354
17678239045
17678245392
17678251313
17678255463
17678264680
17678270722
17678278168
17678281647
17678288727
17678293671
17678299653
17678304902
17678311188
17678317292
17678323029
17678328156
17678335053
17678340973
17678347077
17678354584
17678363068
17678368317
17678376068
17678383026
17678388581
17678395294
17678400727
17678408356
17678416229
17678423065
17678429291
17678434784
17678441803
17678448029
17678451935
17678459625
17678466644
17678472748
17678478668
17678483673
17678491058
17678496368
17678502533
17678506500
17678511749
17678517120
17678522919
17678529022
17678534637
17678540680
17678547211
17678553314
17678559234
17678563751
17678569855
17678575897
17678581695
17678588104
17678593902
17678599457
17678604034
17678612518
17678616913
17678622162
17678627533
17678635406
17678641266
17678646576
17678653350
17678660430
17678667511
17678673431
17678678741
17678685028
17678689971
17678696929
17678703582
17678707488
17678716461
17678723113
17678726776
17678735015
17678741729
17678747894
17678754302
17678760528
17678766143
17678771575
17678777374
17678782562
17678788177
17678792754
17678798125
17678803802
17678810699
17678815704
17678822417
17678829314
17678835845
17678844390
17678850066
17678855254
17678860015
17678866302
17678871734
17678877105
17678882537
17678888335
17678893706
17678898955
17678905120
17678910125
17678916167
17678921599
17678927581
17678933928
17678939727
17678944487
17678951323
17678956755
17678962676
17678969634
17678976287
17678982268
17678986357
17678993010
17678999297
17679005278
17679011443
17679016448
17679023772
17679029204
17679035002
17679041167
17679045073
17679051726
17679057341
17679065093
17679070525
17679077116
17679082121
17679088103
17679094450
17679099638
17679105925
17679112151
17679118193
17679123747
17679129057
17679135283
17679141753
17679146940
17679152861
17679159514
17679166228
17679171416
17679177702
17679183439
17679187773
17679193632
17679199553
17679205656
17679212187
17679218290
17679224455
17679231840
17679237577
17679242033
17679248503
17679254911
17679260710
17679267363
17679273161
17679279570
17679283842
17679290800
17679296415
17679304533
17679311857
17679317716
17679325163
17679330717
17679339140
17679343778
17679351469
17679359342
17679364591
17679370329
17679375700
17679381132
17679386747
17679392912
17679401395
17679405790
17679415189
17679422758
17679429227
17679435026
17679440397
17679443571
17679452482
17679457120
17679464078
17679469327
17679475431
17679481229
17679486844
17679492887
17679498624
17679503690
17679511075
17679515470
17679521085
17679528348
17679532438
17679540128
17679546720
17679551908
17679559171
17679565213
17679569364
17679576139
17679581449
17679587064
17679594327
17679599820
17679605008
17679610684
17679615811
17679622769
17679630338
17679634732
17679641385
17679646451
17679652982
17679658719
17679664151
17679669888
17679676785
17679684232
17679689359
17679695218
17679700955
17679707059
17679713101
17679718960
17679725613
17679731595
17679737088
17679743130
17679748257
17679754300
17679759549
17679765591
17679771329
17679778714
17679783352
17679789090
17679794827
17679800259
17679805813
17679813626
17679820523
17679826931
17679832058
17679839138
17679843045
17679848416
17679857144
17679864956
17679872280
17679877896
17679883572
17679890286
17679897183
17679902798
17679910183
17679918118
17679925015
17679931729
17679936978
17679943142
17679948513
17679954617
17679961453
17679966824
17679972500
17679978115
17679982632
17679988369
17679993740
17680001125
17680009487
17680016140
17680021877
17680026394
17680033657
17680039333
17680045681
17680053188
17680058071
17680065944
17680071987
17680077236
17680083217
17680089809
17680094936
17680102138
17680110927
17680117519
17680124538
17680131496
17680137233
17680144252
17680151332
17680159511
17680166103
17680171657
17680177211
17680182155
17680187526
17680193508
17680200038
17680207118
17680213893
17680219020
17680225307
17680231410
17680236476
17680240199
17680246486
17680251674
17680260036
17680265407
17680270778
17680277431
17680281032
17680288600
17680306972
17680313258
17680316798
17680324367
17680330165
17680334743
17680342128
17680347682
17680353419
17680359401
17680364955
17680370021
17680375880
17680381190
17680386989
17680392543
17680397731
17680404445
17680409938
17680415492
17680421962
17680426539
17680440333
17680463771
17680491053
17680508082
17680518092
17680526820
17680536524
17680544947
17680551234
17680558314
17680563868
17680570826
17680576319
17680581995
17680589381
17680595606
17680600184
17680605250
17680610621
17680615870
17680621058
17680626185
17680633143
17680637354
17680644190
17680652430
17680659083
17680663965
17680670130
17680675379
17680682032
17680686792
17680691675
17680696741
17680701563
17680708521
17680713160
17680720972
17680724451
17680731897
17680738489
17680743311
17680750025
17680753809
17680761682
17680767786
17680772486
17680777307
17680782556
17680787683
17680793726
17680799341
17680804041
17680812097
17680817468
17680822351
17680828211
17680833215
17680837915
17680843347
17680848474
17680855493
17680860559
17680865808
17680870996
17680876245
17680881494
17680888696
17680894800
17680901392
17680907983
17680912927
17680918909
17680924341
17680928918
17680934961
17680941125
17680949609
17680955041
17680962121
17680967798
17680973718
17680978906
17680983911
17680990869
17680996667
17681004419
17681009851
17681015588
17681021631
17681026818
17681033960
17681041162
17681046960
17681052575
17681058618
17681065332
17681069238
17681076806
17681082299
17681087915
17681095178
17681099877
17681105432
17681110131
17681118066
17681125207
17681133141
17681139123
17681145165
17681151513
17681156579
17681162560
17681168664
17681174767
17681181542
17681186242
17681192162
17681198144
17681203393
17681208947
17681214196
17681219750
17681228844
17681237145
17681242028
17681246911
17681251610
17681256676
17681261742
17681266564
17681272545
17681279198
17681284081
17681292321
17681296959
17681302575
17681307824
17681313439
17681319054
17681325158
17681330773
17681336815
17681341942
17681347741
17681352562
17681358055
17681363915
17681371361
17681376366
17681381188
17681387047
17681392357
17681398094
17681403160
17681409142
17681414147
17681419762
17681424889
17681430260
17681436791
17681442040
17681448631
17681454491
17681459801
17681465843
17681471153
17681477135
17681482567
17681485680
17681492393
17681497948
17681507408
17681514000
17681524559
17681531273
17681539268
17681548912
17681554588
17681561119
17681566307
17681570579
17681575157
17681579857
17681585350
17681590355
17681596153
17681602195
17681607628
17681613304
17681618675
17681623802
17681629295
17681634605
17681640770
17681646263
17681651756
17681656639
17681662254
17681668113
17681673606
17681678306
17681686119
17681692283
17681697227
17681703819
17681709190
17681715843
17681723045
17681728111
17681732383
17681738792
17681744956
17681749961
17681754600
17681759788
17681765403
17681769859
17681775352
17681782798
17681788596
17681793540
17681799583
17681804893
17681811301
17681816733
17681821372
17681826377
17681831504
17681837913
17681841514
17681848899
17681853354
17681859885
17681863975
17681868735
17681873557
17681879538
17681885947
17681891440
17681896567
17681903098
17681907370
17681912070
17681916831
17681922263
17681930686
17681937339
17681942588
17681945151
17681952170
17681957541
17681963584
17681969565
17681975302
17681981772
17681987265
17681991233
17681997153
17682000815
17682006430
17682011984
17682016501
17682022482
17682027915
17682032614
17682039389
17682043540
17682050070
17682054953
17682061301
17682066489
17682071616
17682076437
17682082053
17682086813
17682091696
17682098227
17682103171
17682109762
17682114157
17682118613
17682123129
17682128378
17682135397
17682141684
17682146811
17682152121
17682157492
17682162680
17682167563
17682174032
17682181540
17682187155
17682192831
17682197470
17682203756
17682207846
17682213705
17682221518
17682228598
17682234701
17682240011
17682245138
17682250692
17682255026
17682260031
17682267416
17682272665
17682278280
17682283346
17682288229
17682292929
17682298361
17682306112
17682314413
17682319845
17682325033
17682330526
17682336630
17682342977
17682349081
17682354818
17682360067
17682365133
17682370687
17682376363
17682382406
17682386617
17682392110
17682399251
17682403951
17682409261
17682414754
17682420003
17682424825
17682431417
17682435323
17682441854
17682446615
17682452230
17682458883
17682464132
17682470357
17682475606
17682480489
17682486287
17682491964
17682498555
17682504232
17682509786
17682514486
17682521077
17682528646
17682533528
17682540303
17682544942
17682552816
17682558126
17682563436
17682567830
17682574788
17682582906
17682588582
17682594625
17682602986
17682609273
17682615376
17682621297
17682630086
17682635823
17682640767
17682645589
17682651082
17682657613
17682662740
17682669942
17682676228
17682681416
17682686604
17682692891
17682697468
17682704060
17682710835
17682716328
17682722371
17682727193
17682733845
17682740132
17682746846
17682752339
17682757405
17682763020
17682770772
17682776509
17682782063
17682789143
17682795002
17682802754
17682809407
17682814900
17682820149
17682827961
17682833882
17682839619
17682845784
17682851338
17682860432
17682864033
17682870930
17682878132
17682886189
17682895710
17682901325
17682907490
17682913166
17682919392
17682925007
17682930866
17682937031
17682942890
17682950092
17682954853
17682962360
17682968403
17682974018
17682978535
17682985493
17682989521
17682995869
17683002460
17683007343
17683013386
17683018452
17683024494
17683029926
