17617935610
17617941104
17617945864
17617950442
17617955874
17617960513
17617965701
17617970950
17617975283
17617980288
17617984866
17617989809
17617995364
17618000735
17618005618
17618011233
17618016177
17618020693
17618027102
17618032046
17618037234
17618041628
17618046694
17618052614
17618058779
17618065127
17618069887
17618075930
17618080752
17618085451
17618091250
17618097170
17618102846
17618109682
17618116457
17618122866
17618130312
17618137941
17618144655
17618152224
17618157839
17618165590
17618172548
17618177858
17618185121
17618192324
17618200136
17618206240
17618217714
17618224977
17618232240
17618239015
17618247194
17618252382
17618260256
17618268495
17618273561
17618279970
17618287355
17618294435
17618301698
17618307314
17618313783
17618320680
17618328737
17618337221
17618343385
17618349794
17618356996
17618363038
17618371217
17618378541
17618386415
17618394960
17618400270
17618409059
17618414857
17618421205
17618428773
17618438600
17618451539
17618461000
17618474000
17618484498
17618495606
17618507081
17618515870
17618526063
17618537782
17618549561
17618559754
17618569459
17618579591
17618590943
17618602052
17618612977
17618624512
17618636597
17618647217
17618657471
17618666871
17618678223
17618687928
17618698304
17618709107
17618718628
17618730347
17618739869
17618750672
17618759766
17618773011
17618783570
17618795532
17618807312
17618818237
17618829773
17618840637
17618851807
17618859863
17618872192
17618885559
17618894714
17618907410
17618916382
17618928833
17618939270
17618951477
17618963440
17618972412
17618984375
17618993774
17619006592
17619019226
17619029724
17619039306
17619050415
17619058960
17619073913
17619085205
17619095092
17619107604
17619116760
17619129028
17619140807
17619150512
17619161559
17619173888
17619183410
17619196105
17619205505
17619216552
17619226195
17619237121
17619249084
17619262694
17619271728
17619283751
17619295897
17619304747
17619318236
17619328734
17619339598
17619348998
17619359862
17619368651
17619382018
17619394103
17619403990
17619419188
17619428710
17619439086
17619449950
17619461119
17619472533
17619483824
17619493956
17619503966
17619514342
17619525633
17619537047
17619546019
17619558409
17619568785
17619579893
17619589171
17619601439
17619612303
17619623167
17619634825
17619645750
17619655821
17619664366
17619676084
17619684996
17619699217
17619711485
17619723448
17619732664
17619744444
17619756468
17619764951
17619777036
17619789304
17619801633
17619810545
17619823423
17619832639
17619843809
17619855955
17619867490
17619876218
17619887388
17619898740
17619910520
17619920408
17619932676
17619943662
17619955075
17619966977
17619976987
17619988767
17619997800
17620009152
17620019650
17620028256
17620040524
17620048459
17620055844
17620062131
17620070554
17620079953
17620086057
17620094052
17620099850
17620107846
17620114072
17620121884
17620130612
17620137936
17620144040
17620152218
17620158444
17620164425
17620172726
17620182370
17620188168
17620195981
17620202145
17620208004
17620216000
17620221676
17620230099
17620238339
17620245236
17620253048
17620259518
17620266415
17620274166
17620281124
17620288204
17620297299
17620303463
17620310482
17620318539
17620324703
17620333370
17620340328
17620348446
17620354916
17620360836
17620369381
17620377316
17620386532
17620393673
17620401546
17620407467
17620413876
17620421139
17620427425
17620437252
17620444149
17620452205
17620459041
17620464840
17620472835
17620480221
17620489071
17620498348
17620504512
17620512142
17620518551
17620526302
17620533199
17620540645
17620549129
17620555904
17620563289
17620569515
17620577327
17620584712
17620592464
17620600948
17620607967
17620614864
17620624812
17620631465
17620639461
17620646114
17620654414
17620661311
17620668269
17620675655
17620679500
17620689693
17620697932
17620707149
17620716304
17620721919
17620728816
17620736384
17620745662
17620752864
17620762019
17620769893
17620777400
17620784846
17620794490
17620801814
17620809565
17620817134
17620827143
17620832759
17620842036
17620849849
17620856684
17620864619
17620871455
17620881159
17620888728
17620896479
17620904475
17620912165
17620924250
17620933527
17620942866
17620952021
17620959773
17620966181
17620974604
17620983942
17620990168
17620996210
17621002558
17621007624
17621013544
17621020197
17621025812
17621031245
17621036738
17621041987
17621047541
17621053034
17621058527
17621064997
17621070490
17621076655
17621082697
17621088007
17621094111
17621100824
17621106867
17621112299
17621118525
17621124506
17621130304
17621136225
17621141840
17621146173
17621152399
17621160517
17621165766
17621173029
17621178888
17621184198
17621190790
17621196283
17621202204
17621207636
17621214960
17621219782
17621226679
17621231439
17621237909
17621242609
17621249017
17621253900
17621260553
17621266595
17621271112
17621277094
17621283319
17621287836
17621294855
17621300043
17621306329
17621311090
17621316644
17621323358
17621329156
17621333917
17621340021
17621346673
17621351983
17621357355
17621362237
17621367425
17621373529
17621378534
17621385431
17621390313
17621396600
17621405755
17621411798
17621417047
17621424920
17621430169
17621436517
17621441644
17621447808
17621452630
17621459710
17621465814
17621472711
17621477777
17621484307
17621491143
17621497430
17621504571
17621510735
17621517755
17621523858
17621529168
17621535577
17621542962
17621548577
17621553765
17621559991
17621565362
17621571832
17621576653
17621582513
17621589349
17621596062
17621603020
17621608453
17621613335
17621619805
17621625237
17621632134
17621636590
17621643304
17621648675
17621654717
17621660027
17621665947
17621672783
17621678643
17621683892
17621689446
17621696343
17621701714
17621707451
17621712883
17621719170
17621726982
17621732354
17621739312
17621744194
17621750786
17621755303
17621761956
17621767266
17621773979
17621779289
17621785942
17621790764
17621796990
17621801872
17621808403
17621815361
17621822075
17621827568
17621833061
17621838432
17621843987
17621849480
17621855461
17621860893
17621867180
17621872917
17621877617
17621884819
17621891411
17621896416
17621902214
17621909477
17621914421
17621921257
17621926506
17621932487
17621937736
17621943718
17621949089
17621955375
17621962272
17621966789
17621973442
17621978386
17621983757
17621988762
17621995659
17622001396
17622006279
17622012016
17622018242
17622023063
17622029777
17622035331
17622042961
17622050102
17622056144
17622062187
17622068717
17622074699
17622081413
17622087577
17622094291
17622100578
17622107597
17622112907
17622119499
17622124381
17622129875
17622137504
17622142631
17622149711
17622155448
17622161857
17622167106
17622174064
17622179435
17622184562
17622191093
17622195853
17622202811
17622207084
17622213737
17622219901
17622224845
17622231559
17622236747
17622242484
17622249198
17622254264
17622260917
17622265677
17622273307
17622278800
17622285636
17622291312
17622297660
17622302848
17622308097
17622315299
17622319999
17622326773
17622331839
17622338614
17622343680
17622350577
17622355826
17622362662
17622367911
17622374137
17622379325
17622384574
17622390006
17622395499
17622402152
17622408316
17622413931
17622419486
17622424857
17622430716
17622435904
17622441641
17622447379
17622454825
17622460013
17622466910
17622472098
17622476797
17622483267
17622487906
17622495230
17622501028
17622507681
17622513235
17622519461
17622524710
17622530508
17622536307
17622542227
17622549063
17622553457
17622559988
17622564688
17622571280
17622577078
17622582083
17622588247
17622593435
17622601492
17622606802
17622614370
17622619619
17622627859
17622634817
17622643667
17622649649
17622656179
17622663442
17622668569
17622675527
17622680410
17622687368
17622692312
17622698782
17622703298
17622709829
17622714529
17622719595
17622725393
17622732229
17622737600
17622743826
17622749197
17622754751
17622761343
17622766286
17622772939
17622778982
17622783865
17622790762
17622795583
17622801931
17622808156
17622814992
17622820608
17622825918
17622832754
17622838552
17622843496
17622850088
17622855398
17622862295
17622868642
17622873769
17622879018
17622885671
17622890249
17622897878
17622903371
17622909475
17622914785
17622919728
17622925954
17622930898
17622937307
17622942800
17622947499
17622953054
17622957509
17622964772
17622969350
17622975759
17622981679
17622986867
17622993276
17622998219
17623004689
17623009267
17623015859
17623023305
17623028371
17623034169
17623038991
17623043752
17623049855
17623054433
17623061330
17623067067
17623073354
17623078603
17623086476
17623092091
17623098317
17623105458
17623111745
17623117116
17623122792
17623129872
17623135121
17623140553
17623146473
17623154713
17623160573
17623167103
17623173268
17623181141
17623186940
17623193837
17623201527
17623207753
17623213551
17623219166
17623224842
17623231739
17623237049
17623242543
17623248463
17623253773
17623261402
17623266285
17623273060
17623277882
17623284840
17623291249
17623296070
17623302357
17623307362
17623314442
17623318653
17623325428
17623331593
17623337086
17623343372
17623348743
17623353443
17623359486
17623365589
17623371998
17623378040
17623384693
17623390369
17623396778
17623402698
17623408069
17623415516
17623420643
17623427479
17623432789
17623439014
17623444874
17623451221
17623456592
17623462024
17623468616
17623474598
17623479786
17623486744
17623492115
17623499012
17623504993
17623509632
17623516101
17623520801
17623525684
17623531665
17623538318
17623543628
17623549304
17623555896
17623561450
17623566883
17623572315
17623579456
17623584949
17623592395
17623596851
17623604297
17623608997
17623613941
17623620838
17623627734
17623633472
17623639392
17623644824
17623651111
17623656787
17623663318
17623669116
17623674487
17623681201
17623686572
17623692004
17623697253
17623705005
17623711841
17623720630
17623727283
17623736438
17623742297
17623748645
17623755481
17623761340
17623767627
17623773303
17623778613
17623785693
17623792163
17623797473
17623804065
17623809069
17623815051
17623821399
17623826831
17623832568
17623838061
17623844409
17623850024
17623855761
17623861437
17623867663
17623874621
17623880602
17623886462
17623891039
17623897692
17623902758
17623909350
17623916735
17623922595
17623927844
17623932360
17623938891
17623944750
17623949999
17623954943
17623961596
17623966601
17623971972
17623978503
17623983813
17623989489
17623994982
17624000963
17624008166
17624012926
17624018725
17624025194
17624029955
17624036303
17624043688
17624049303
17624054857
17624061632
17624066820
17624072680
17624079149
17624085558
17624090746
17624097521
17624103197
17624108568
17624115404
17624121752
17624126329
17624131273
17624139025
17624144335
17624149584
17624155565
17624161058
17624165819
17624172472
17624178819
17624184252
17624190843
17624196642
17624201952
17624208666
17624212938
17624219591
17624224168
17624230882
17624235338
17624241991
17624246996
17624253893
17624259325
17624266832
17624275743
17624282457
17624289171
17624295518
17624303453
17624309679
17624316270
17624324449
17624331041
17624335985
17624341417
17624348680
17624353807
17624361314
17624368089
17624374193
17624379258
17624385179
17624390672
17624395738
17624402635
17624408372
17624414781
17624421373
17624426683
17624431871
17624438707
17624444322
17624451036
17624457749
17624461656
17624468370
17624474534
17624479356
17624485948
17624491624
17624498643
17624502793
17624509446
17624514817
17624519822
17624525803
17624531297
17624538743
17624545152
17624549912
17624555955
17624560288
17624566941
17624571946
17624578110
17624584580
17624588853
17624595444
17624601182
17624606492
17624611191
17624618333
17624623948
17624629319
17624636216
17624641892
17624646958
17624652512
17624657456
17624664048
17624669297
17624674729
17624680161
17624685410
17624691575
17624697007
17624701767
17624708847
17624713486
17624719834
17624725083
17624730149
17624735581
17624742539
17624749008
17624754074
17624760849
17624765854
17624770188
17624777085
17624781967
17624789047
17624794418
17624799973
17624806992
17624813889
17624821213
17624825729
17624833603
17624840561
17624846603
17624853806
17624860092
17624865646
17624875290
17624880539
17624885910
17624890793
17624896835
17624903183
17624909653
17624916916
17624924057
17624929428
17624934799
17624941330
17624947006
17624952011
17624957992
17624962692
17624970565
17624975937
17624982040
17624986251
17624992416
17624997665
17625003036
17625009506
17625014267
17625020126
17625024704
17625030746
17625035202
17625042160
17625049545
17625054855
17625060592
17625066146
17625072189
17625078597
17625084274
17625090927
17625098373
17625105148
17625111556
17625118636
17625126449
17625133224
17625139632
17625145248
17625152267
17625157333
17625164535
17625171676
17625178023
17625183883
17625191024
17625196883
17625204757
17625213241
17625219893
17625228316
17625234481
17625241683
17625248275
17625253951
17625258529
17625264022
17625268783
17625275069
17625281966
17625288558
17625293074
17625299239
17625303450
17625309737
17625314620
17625320052
17625327193
17625333297
17625337874
17625344405
17625349105
17625355391
17625362044
17625368941
17625376143
17625383650
17625389754
17625397078
17625402449
17625408431
17625417220
17625422713
17625429366
17625434859
17625440657
17625445845
17625452742
17625459151
17625464705
17625470625
17625477034
17625482893
17625490889
17625496443
17625503218
17625508223
17625514876
17625518477
17625525313
17625532942
17625538313
17625546065
17625551802
17625556868
17625563643
17625570051
17625575789
17625580610
17625587263
17625594221
17625600080
17625605574
17625610579
17625616682
17625622663
17625627729
17625633894
17625640730
17625645918
17625652571
17625657514
17625664411
17625669660
17625676496
17625682112
17625688459
17625694013
17625699445
17625705915
17625711591
17625716963
17625721967
17625728986
17625734052
17625740949
17625746809
17625751630
17625758100
17625763593
17625771711
17625777814
17625783674
17625789838
17625795209
17625800153
17625806684
17625811750
17625818403
17625823896
17625829206
17625833906
17625840619
17625845258
17625852155
17625857648
17625865094
17625870343
17625875287
17625881269
17625887433
17625892255
17625898420
17625903241
17625909467
17625916242
17625921186
17625928510
17625934552
17625940595
17625947614
17625953168
17625960126
17625965985
17625972821
17625980023
17625985394
17625990704
17625998822
17626004804
17626010541
17626015973
17626022687
17626028363
17626033917
17626039899
17626046613
17626051678
17626056439
17626063214
17626067975
17626074139
17626079327
17626087201
17626093548
17626099347
17626104657
17626111432
17626117230
17626122967
17626127972
17626134686
17626140484
17626145672
17626152142
17626158734
17626163495
17626168499
17626174481
17626181500
17626186993
17626192547
17626199688
17626205059
17626210247
17626216900
17626222271
17626227215
17626233807
17626238140
17626244244
17626249981
17626255413
17626262188
17626268597
17626273663
17626278729
17626283672
17626289471
17626296185
17626302532
17626307720
17626312420
17626318951
17626323956
17626330120
17626334820
17626339764
17626347454
17626352337
17626358623
17626363262
17626368267
17626374615
17626379925
17626386394
17626392986
17626397014
17626403362
17626407879
17626414593
17626420452
17626425152
17626432964
17626438030
17626442974
17626448406
17626454693
17626459697
17626465252
17626472881
17626480205
17626485698
17626492473
17626497234
17626502422
17626510540
17626518474
17626525432
17626530132
17626536968
17626542644
17626548198
17626553874
17626559978
17626565837
17626572124
17626576763
17626582744
17626588054
17626593791
17626599773
17626606731
17626612285
17626617046
17626622112
17626628520
17626634380
17626639323
17626644878
17626649638
17626655986
17626661540
17626666484
17626671794
17626677104
17626685771
17626690898
17626695476
17626702251
17626707561
17626712626
17626718608
17626725261
17626731303
17626737712
17626743693
17626750285
17626755046
17626760234
17626764811
17626770060
17626777446
17626782389
17626788493
17626793620
17626798869
17626805461
17626813395
17626819133
17626824198
17626829447
17626835978
17626841349
17626845561
17626851542
17626857768
17626862895
17626869364
17626875102
17626881754
17626887003
17626892130
17626898112
17626902628
17626910075
17626916117
17626921427
17626926615
17626932475
17626938639
17626944071
17626950053
17626955546
17626960245
17626965128
17626971598
17626976359
17626981486
17626987955
17626994059
17626999369
17627004374
17627010477
17627016947
17627022623
17627029825
17627036661
17627043741
17627050272
17627055826
17627063334
17627069620
17627075785
17627081095
17627087870
17627094583
17627100077
17627105143
17627110758
17627116007
17627122293
17627127787
17627134195
17627139505
17627144571
17627151285
17627156778
17627162149
17627168436
17627176615
17627181803
17627186258
17627191629
17627198343
17627204385
17627210672
17627217020
17627222025
17627227274
17627233438
17627238321
17627244546
17627248270
17627254922
17627259683
17627266153
17627271890
17627278421
17627283853
17627289895
17627296182
17627301614
17627307229
17627312295
17627317727
17627323038
17627327493
17627334695
17627339029
17627346353
17627352762
17627358133
17627362954
17627368936
17627373452
17627379495
17627384744
17627392923
17627398477
17627402932
17627407937
17627413552
17627418740
17627424661
17627430276
17627436746
17627443643
17627448342
17627454446
17627459512
17627466165
17627472207
17627479226
17627484353
17627489846
17627495156
17627500100
17627505898
17627512429
17627518716
17627524636
17627529824
17627534280
17627540627
17627545632
17627552163
17627556863
17627561928
17627567361
17627574563
17627581399
17627587868
17627593606
17627598733
17627606179
17627612343
17627618325
17627623513
17627630593
17627635232
17627640175
17627645730
17627652199
17627657448
17627663613
17627668984
17627675148
17627681069
17627687661
17627693825
17627699684
17627704995
17627710244
17627716164
17627723366
17627729042
17627733986
17627741799
17627746254
17627751747
17627756569
17627763161
17627768288
17627773598
17627778847
17627786415
17627792091
17627797768
17627802956
17627808693
17627813515
17627818275
17627825478
17627830971
17627837807
17627843300
17627848549
17627855324
17627860268
17627865456
17627873939
17627879555
17627884132
17627889137
17627895241
17627900490
17627905128
17627910499
17627917396
17627923439
17627928810
17627935890
17627941505
17627946083
17627951942
17627958046
17627963112
17627968116
17627974891
17627978981
17627983497
17627989479
17627994178
17628001503
17628007240
17628012916
17628017921
17628023048
17628028907
17628034278
17628042030
17628047645
17628054359
17628059486
17628065040
17628071266
17628077857
17628082496
17628088844
17628094093
17628100135
17628105567
17628111793
17628118385
17628124732
17628132178
17628137183
17628143775
17628150306
17628156287
17628163184
17628170814
17628176673
17628182777
17628188148
17628193702
17628199439
17628205543
17628211585
17628217811
17628224158
17628228980
17628234290
17628240882
17628246558
17628251868
17628257239
17628262366
17628269324
17628275000
17628281287
17628287207
17628293555
17628299475
17628304480
17628309912
17628315711
17628321082
17628327307
17628333167
17628338233
17628344336
17628351966
17628357642
17628364050
17628369299
17628374976
17628382178
17628387000
17628393408
17628398413
17628404211
17628409766
17628416235
17628422278
17628427710
17628433203
17628438269
17628444800
17628449499
17628454748
17628461035
17628466040
17628472143
17628476904
17628481421
17628488135
17628492773
17628499304
17628505224
17628510657
17628515967
17628523047
17628528723
17628534704
17628540625
17628547278
17628553259
17628558752
17628565405
17628569616
17628575598
17628582617
17628588232
17628593603
17628600256
17628605688
17628613073
17628619177
17628625280
17628630346
17628635412
17628642553
17628648290
17628653234
17628658666
17628663915
17628670263
17628675512
17628683691
17628689306
17628695959
17628702795
17628708166
17628714208
17628722082
17628727331
17628733923
17628738622
17628745580
17628751623
17628757604
17628762792
17628768713
17628773900
17628780126
17628785863
17628791295
17628797277
17628802160
17628808629
17628813207
17628818456
17628824926
17628830602
17628837316
17628842870
17628847936
17628853978
17628858495
17628864415
17628869664
17628875158
17628880346
17628886632
17628891820
17628896459
17628901647
17628907445
17628913243
17628919957
17628926610
17628932897
17628938573
17628943944
17628951207
17628956517
17628962926
17628968175
17628972997
17628979100
17628985021
17628990392
17628995946
17629001012
17629006810
17629012425
17629017491
17629024632
17629029576
17629035985
17629043675
17629048802
17629053502
17629060399
17629065404
17629072667
17629078648
17629084141
17629089451
17629094212
17629099705
17629106602
17629112584
17629118748
17629124058
17629128575
17629134800
17629138890
17629145665
17629150914
17629156346
17629163121
17629168736
17629174961
17629179966
17629187230
17629193760
17629199314
17629205479
17629210850
17629218052
17629223301
17629230381
17629237339
17629245640
17629251194
17629257115
17629264561
17629271092
17629277012
17629284763
17629293369
17629300144
17629306004
17629312290
17629318577
17629323582
17629328648
17629334995
17629342075
17629347446
17629352207
17629357334
17629362034
17629366611
17629373691
17629379490
17629385044
17629391453
17629397678
17629403477
17629410068
17629415561
17629420871
17629427158
17629433078
17629439243
17629444126
17629452610
17629458957
17629465976
17629472995
17629480930
17629487217
17629492649
17629499301
17629505405
17629510837
17629517002
17629523288
17629529453
17629536594
17629543369
17629548679
17629554599
17629560825
17629567355
17629573764
17629580295
17629586643
17629592441
17629598483
17629604526
17629611545
17629618198
17629622348
17629629733
17629634616
17629641818
17629649264
17629655307
17629660983
17629667270
17629674228
17629679538
17629685702
17629691379
17629697543
17629703525
17629709994
17629714084
17629723056
17629730319
17629738131
17629744845
17629752658
17629760592
17629766208
17629775668
17629783297
17629790316
17629796481
17629802096
17629808505
17629815829
17629821505
17629828280
17629834445
17629840731
17629847201
17629854037
17629860323
17629865756
17629871737
17629876071
17629882418
17629888644
17629893588
17629899508
17629905306
17629911898
17629918673
17629925021
17629929720
17629936068
17629942232
17629948458
17629953707
17629959811
17629965060
17629972689
17629977694
17629983553
17629989596
17629994906
17630001192
17630005526
17630013155
17630017794
17630023958
17630030367
17630036959
17630041781
17630049044
17630053988
17630060579
17630066744
17630072115
17630078035
17630084017
17630091158
17630097261
17630102999
17630109529
17630114290
17630120455
17630126924
17630133211
17630138460
17630145540
17630150789
17630157808
17630163912
17630170809
17630175935
17630182283
17630187959
17630194246
17630199373
17630206209
17630212984
17630219026
17630224031
17630230928
17630238435
17630243684
17630250764
17630260347
17630264741
17630272188
17630277559
17630283113
17630290498
17630299775
17630305635
17630310945
17630316865
17630323152
17630329561
17630335481
17630341645
17630347810
17630352998
17630358674
17630363557
17630368257
17630374482
17630380769
17630385163
17630391999
17630396516
17630402925
17630407868
17630414399
17630421052
17630426728
17630431611
17630438203
17630442842
17630449555
17630454133
17630460847
17630465913
17630472627
17630477631
17630484589
17630489777
17630496613
17630502168
17630508149
17630513398
17630519929
17630525483
17630531403
17630536591
17630542084
17630548859
17630553925
17630561066
17630565766
17630572480
17630577607
17630582307
17630587983
17630592988
17630598359
17630603242
17630609894
17630617341
17630621857
17630627778
17630632843
17630639496
17630644745
17630650971
17630656098
17630660126
17630665131
17630670380
17630675751
17630681549
17630688691
17630694123
17630699494
17630705536
17630710541
17630717438
17630724030
17630730377
17630734406
17630739411
17630745026
17630750153
17630755585
17630760834
17630768829
17630775910
17630782623
17630790741
17630795197
17630806732
17630813202
17630820770
17630828705
17630833710
17630839447
17630845001
17630850067
17630857208
17630861603
17630866730
17630873321
17630878326
17630883270
17630891327
17630896820
17630902069
17630907196
17630914703
17630921356
17630927032
17630933563
17630940338
17630944976
17630951080
17630955780
17630961456
17630969574
17630975555
17630983429
17630989044
17630995941
17631000823
17631007781
17631013763
17631019317
17631029632
17631038177
17631044708
17631051177
17631057464
17631062774
17631068939
17631074798
17631081268
17631087127
17631092620
17631097930
17631103851
17631109710
17631115508
17631121123
17631130096
17631135528
17631139678
17631148467
17631154204
17631160064
17631164825
17631171294
17631176543
17631183867
17631188750
17631195342
17631201323
17631206511
17631211333
17631217803
17631223357
17631228057
17631235808
17631241912
17631247161
17631251738
17631258391
17631264190
17631268828
17631274688
17631283110
17631288298
17631294646
17631300078
17631305998
17631311919
17631319060
17631326201
17631331084
17631338591
17631343962
17631351714
17631358244
17631364470
17631370818
17631377287
17631384001
17631389800
17631395293
17631400664
17631406157
17631412627
17631418486
17631423979
17631431059
17631436919
17631442107
17631447844
17631454924
17631459685
17631467009
17631472685
17631479704
17631485563
17631491179
17631496428
17631502714
17631508024
17631513823
17631520842
17631527311
17631532377
17631538481
17631543608
17631550383
17631557707
17631563200
17631569670
17631575468
17631582609
17631588224
17631594084
17631599455
17631605497
17631612333
17631618925
17631624540
17631631803
17631639860
17631646147
17631653593
17631659208
17631666227
17631671110
17631677519
17631682523
17631690763
17631697843
17631704618
17631710111
17631716764
17631721098
17631727994
17631734281
17631740629
17631745389
17631752592
17631758085
17631764615
17631770170
17631775907
17631782499
17631789457
17631795743
17631801236
17631808133
17631813321
17631819364
17631826261
17631832181
17631837247
17631844083
17631848844
17631854886
17631862821
17631868375
17631874967
17631882230
17631887296
17631895719
17631901578
17631908475
17631914029
17631919522
17631928494
17631935086
17631942594
17631947537
17631953946
17631960416
17631966885
17631972318
17631979092
17631985013
17631989896
17631997281
17632003018
17632009549
17632015103
17632021878
17632028226
17632033353
17632039151
17632045743
17632052090
17632058011
17632063443
17632069302
17632076016
17632081143
17632088528
17632093228
17632100613
17632105984
17632112088
17632117337
17632123440
17632130581
17632135830
17632142605
17632147122
17632153653
17632158718
17632165554
17632172390
17632178555
17632183621
17632189907
17632196682
17632203030
17632208889
17632215420
17632222012
17632227688
17632232998
17632239468
17632245449
17632252041
17632258755
17632265225
17632272244
17632278774
17632283840
17632291409
17632298977
17632304348
17632309963
17632317348
17632322109
17632329372
17632334804
17632341457
17632347683
17632353054
17632359707
17632366237
17632370571
17632377590
17632384853
17632391689
17632396938
17632404079
17632408352
17632417690
17632425441
17632431484
17632436977
17632444057
17632453823
17632459926
17632466274
17632472377
17632477443
17632483730
17632489284
17632493679
17632499172
17632505947
17632510585
17632515163
17632520046
17632526027
17632531581
17632536952
17632542568
17632549220
17632556056
17632560512
17632566921
17632571681
17632579005
17632584438
17632591518
17632600002
17632605739
17632613856
17632621608
17632629298
17632636989
17632644801
17632650722
17632655604
17632662318
17632667933
17632673671
17632679591
17632685145
17632690577
17632696254
17632702052
17632707484
17632713527
17632719508
17632725856
17632731837
17632736964
17632743739
17632747157
17632753932
17632760768
17632766993
17632772425
17632778529
17632783290
17632789332
17632795741
17632800868
17632807887
17632813380
17632818995
17632824366
17632830592
17632836634
17632841822
17632849513
17632855006
17632861109
17632866175
17632871851
17632878687
17632884547
17632890345
17632895350
17632901637
17632908167
17632914393
17632919459
17632925379
17632930628
17632939295
17632944849
17632953028
17632959437
17632964991
17632972498
17632979029
17632984522
17632993372
17632998987
17633005030
17633010523
17633016810
17633022181
17633028528
17633035608
17633040674
17633047449
17633052149
17633059046
17633064722
17633070154
17633077478
17633082605
17633088282
17633093164
17633099512
17633106775
17633112146
17633117945
17633123743
17633130152
17633136011
17633141992
17633148706
17633153528
17633160852
17633169641
17633176416
17633181482
17633188623
17633193994
17633200342
17633205713
17633212061
17633217615
17633223535
17633230188
17633234643
17633241479
17633246301
17633253381
17633259057
17633263940
17633269372
17633276391
17633283594
17633289209
17633294580
17633301294
17633308008
17633312768
17633319360
17633323877
17633331201
17633336389
17633341760
17633349084
17633355615
17633361962
17633368066
17633373559
17633379846
17633385217
17633392541
17633398156
17633404931
17633409936
17633416101
17633421105
17633428124
17633433434
17633440331
17633446313
17633452172
17633458642
17633465478
17633469994
17633476952
17633482018
17633488610
17633495324
17633501061
17633506921
17633512719
17633519921
17633526879
17633532067
17633538537
17633543908
17633550866
17633556298
17633561913
17633569909
17633574669
17633579735
17633587975
17633592675
17633599511
17633605492
17633611290
17633618126
17633623375
17633629052
17633635827
17633641259
17633646080
17633652855
17633658348
17633665062
17633671654
17633676720
17633682152
17633690453
17633695336
17633702049
17633708092
17633713463
17633720299
17633725853
17633731713
17633737511
17633744225
17633750206
17633755150
17633761803
17633767967
17633772850
17633779503
17633784386
17633791588
17633797386
17633804222
17633810142
17633815453
17633821312
17633826744
17633832481
17633839256
17633845848
17633850731
17633857017
17633863304
17633868187
17633875023
17633881553
17633888817
17633893821
17633900413
17633907371
17633912986
17633919212
17633924766
17633931480
17633936668
17633943687
17633948936
17633954795
17633961021
17633965599
17633972862
17633978538
17633985069
17633990501
17633997886
17634003684
17634009788
17634015464
17634022483
17634027732
17634034263
17634038963
17634044639
17634049156
17634054160
17634062827
17634068565
17634075340
17634083152
17634089561
17634095115
17634104453
17634110313
17634117393
17634124412
17634130088
17634137778
17634143577
17634148276
17634155234
17634162009
17634167441
17634173240
17634179221
17634185874
17634191062
17634196982
17634202903
17634209556
17634215659
17634220603
17634226645
17634231650
17634237571
17634242759
17634250815
17634256552
17634262473
17634270102
17634276267
17634282492
17634288596
17634295432
17634301535
17634307028
17634311911
17634318015
17634323569
17634328452
17634336997
17634342551
17634347495
17634353049
17634359091
17634363608
17634371298
17634376852
17634381308
17634388754
17634394797
17634400534
17634406210
17634411826
17634420065
17634426291
17634432089
17634439169
17634444968
17634451132
17634457602
17634463888
17634468649
17634474569
17634480551
17634487509
17634493002
17634498617
17634504416
17634511679
17634517050
17634523642
17634528585
17634534506
17634540243
17634546164
17634552694
17634558065
17634564901
17634569967
17634577352
17634583822
17634588705
17634594686
17634599508
17634606344
17634610372
17634619894
17634626791
17634635092
17634640096
17634648397
17634654318
17634662130
17634668173
17634673422
17634680563
17634686666
17634692220
17634697225
17634704610
17634710104
17634715353
17634719625
17634725179
17634732137
17634738790
17634744039
17634749166
17634755147
17634761922
17634766256
17634772298
17634777425
17634782186
17634789937
17634795247
17634800069
17634806173
17634811971
17634817464
17634824300
17634828756
17634835225
17634841573
17634855977
17634870381
17634880941
17634890157
17634899007
17634907308
17634915364
17634923482
17634932027
17634936665
17634942830
17634950581
17634958211
17634965535
17634971211
17634977620
17634984090
17634990804
17634996236
17635003499
17635009419
17635015950
17635022114
17635028584
17635034871
17635040791
17635047261
17635052510
17635057637
17635064229
17635069539
17635076130
17635081440
17635089131
17635094502
17635100239
17635105549
17635111897
17635116963
17635124104
17635129963
17635136189
17635141621
17635148518
17635153401
17635159138
17635166645
17635171589
17635181660
17635188923
17635197712
17635205281
17635214070
17635219868
17635227253
17635234455
17635240437
17635247944
17635253132
17635260334
17635267536
17635272724
17635280537
17635286640
17635291950
17635297932
17635303303
17635310627
17635317036
17635321674
17635328327
17635333820
17635338825
17635345722
17635351215
17635358661
17635365131
17635370685
17635376728
17635382099
17635388324
17635395527
17635400654
17635407306
17635412983
17635417865
17635424762
17635430072
17635436054
17635444049
17635449665
17635456501
17635462055
17635468280
17635475177
17635480548
17635485431
17635492450
17635497821
17635504535
17635509723
17635515338
17635522052
17635527423
17635534076
17635539325
17635544635
17635551288
17635556537
17635562396
17635569598
17635576373
17635581134
17635587970
17635593036
17635600116
17635605792
17635612140
17635617450
17635623675
17635629230
17635635455
17635640521
17635646258
17635651629
17635658465
17635664264
17635670855
17635677020
17635682696
17635688983
17635694232
17635701068
17635707965
17635713153
17635718280
17635725177
17635730975
17635739093
17635745806
17635757586
17635763079
17635772784
17635779559
17635784808
17635791888
17635797625
17635805987
17635811602
17635818316
17635823260
17635830157
17635836627
17635842486
17635850237
17635855120
17635861895
17635866656
17635873370
17635878130
17635886370
17635891741
17635899004
17635903399
17635910418
17635915362
17635921892
17635927935
17635933611
17635940569
17635946917
17635952532
17635957842
17635964922
17635970843
17635976702
17635982378
17635988909
17635993181
17635999956
17636006121
17636011492
17636018450
17636023882
17636030107
17636038164
17636044573
17636051348
17636058916
17636065508
17636076921
17636083940
17636090105
17636095293
17636103105
17636108660
17636114519
17636121111
17636127763
17636132890
17636139848
17636145036
17636152116
17636158342
17636163835
17636168901
17636175737
17636180132
17636186723
17636191667
17636198564
17636203386
17636210771
17636215715
17636222307
17636227678
17636233720
17636239091
17636244890
17636250688
17636258195
17636263505
17636268510
17636275712
17636280900
17636287370
17636293474
17636298478
17636304460
17636315629
17636320817
17636328508
17636334611
17636342302
17636348344
17636355607
17636361772
17636368058
17636377030
17636379960
17636388322
17636396073
17636401811
17636406266
17636412919
17636419450
17636424638
17636430253
17636437760
17636444474
17636450517
17636456132
17636462785
17636468095
17636473283
17636480119
17636484696
17636491288
17636495560
17636514481
17636520035
17636526871
17636533768
17636539017
17636544083
17636549210
17636555558
17636560990
17636565873
17636573441
17636579667
17636585831
17636590714
17636596879
17636601456
17636607926
17636615006
17636620743
17636626053
17636632035
17636638321
17636644364
17636649796
17636657669
17636663773
17636670182
17636676773
17636682572
17636689041
17636695450
17636701798
17636707230
17636715347
17636720535
17636727127
17636734146
17636740067
17636746475
17636753372
17636759354
17636766373
17636771133
17636777786
17636784073
17636789078
17636796768
17636802994
17636808243
17636814590
17636820450
17636826248
17636832901
17636838211
17636845047
17636849747
17636856705
17636864334
17636872757
17636879837
17636886184
17636892044
17636898941
17636904800
17636912613
17636918716
17636925735
17636930435
17636936904
17636943862
17636950210
17636955520
17636961868
17636969009
17636974685
17636981277
17636986099
17636991958
17636998733
17637005386
17637010879
17637016433
17637023269
17637029678
17637034560
17637040847
17637047744
17637054702
17637060622
17637066177
17637071792
17637078445
17637084670
17637091323
17637097610
17637103774
17637109145
17637114822
17637121780
17637126784
17637133803
17637140334
17637146316
17637151809
17637157729
17637165053
17637169997
17637175002
17637183364
17637188430
17637195022
17637201003
17637207778
17637212600
17637217788
17637224685
17637230605
17637237075
17637243605
17637249037
17637255507
17637263747
17637269118
17637275038
17637281691
17637286147
17637294631
17637301161
17637307875
17637314467
17637320632
17637325758
17637332228
17637339491
17637346327
17637352248
17637358778
17637364088
17637370863
17637375868
17637383376
17637388991
17637394728
17637401625
17637408644
17637414931
17637421156
17637429823
17637436171
17637443129
17637449782
17637457350
17637464552
17637470839
17637477430
17637484327
17637489760
17637494398
17637501356
17637507948
17637513136
17637519117
17637526197
17637531996
17637537001
17637542860
17637550001
17637555250
17637561903
17637567579
17637574476
17637579847
17637586927
17637591932
17637598585
17637604933
17637610243
17637616468
17637622816
17637627882
17637634718
17637639845
17637647779
17637653089
17637660291
17637666822
17637672742
17637679578
17637684949
17637691358
17637698499
17637704175
17637708936
17637715650
17637722364
17637728956
17637734876
17637741285
17637748121
17637754896
17637760755
17637767103
17637772718
17637779432
17637784681
17637792798
17637797620
17637804212
17637809217
17637815686
17637821424
17637828260
17637833509
17637840955
17637846143
17637851270
17637857495
17637863050
17637869458
17637875073
17637881970
17637886792
17637891736
17637897717
17637904187
17637909009
17637914380
17637920484
17637927991
17637933362
17637938794
17637944531
17637950757
17637957105
17637965283
17637973706
17637980359
17637986096
17637992139
17637999707
17638005017
17638012707
17638018017
17638022656
17638029065
17638035046
17638041211
17638048718
17638055371
17638060254
17638066235
17638073010
17638079052
17638084912
17638091931
17638096936
17638103772
17638108166
17638113659
17638120312
17638124829
17638131420
17638137646
17638143200
17638149304
17638155285
17638160046
17638167248
17638172253
17638180615
17638188610
17638193249
17638198437
17638204846
17638212109
17638216992
17638223827
17638229565
17638235241
17638240307
17638246899
17638253185
17638258068
17638264416
17638271862
17638275829
17638281933
17638285900
17638289440
17638294689
17638299023
17638303966
17638308056
17638313183
17638318188
17638322094
17638326855
17638330700
17638337353
17638341991
17638345836
17638350902
17638353954
17638358288
17638361828
17638365734
17638371776
17638374828
17638378917
17638383861
17638388683
17638392345
17638396129
17638402599
17638407360
17638411571
17638416027
17638420604
17638424511
17638428966
17638433361
17638438121
17638444408
17638450084
17638457592
17638462779
17638467906
17638474254
17638479259
17638485057
17638491771
17638496898
17638502269
17638506481
17638510997
17638515453
17638521068
17638528148
17638533458
17638538341
17638542796
17638547862
17638552379
17638556895
17638561900
17638567943
17638572826
17638577342
17638582164
17638588084
17638592418
17638596324
17638600474
17638604442
17638609630
17638613231
17638617686
17638623668
17638627635
17638632335
17638638072
17638642772
17638647899
17638653514
17638658885
17638663829
17638667796
17638671702
17638674815
17638679759
17638682811
17638688060
17638692027
17638696727
17638702586
17638705394
17638710643
17638714976
17638720347
17638724192
17638730235
17638734507
17638738414
17638742991
17638746592
17638750682
17638756602
17638760569
17638766001
17638771433
17638776194
17638781626
17638786326
17638791758
17638796885
17638802378
17638807566
17638812632
17638816660
17638822459
17638827403
17638834788
17638840037
17638845286
17638850108
17638853770
17638858164
17638863474
17638868357
17638873484
17638880015
17638884226
17638890269
17638895579
17638901743
17638906687
17638914438
17638920481
17638925547
17638934031
17638939524
17638943979
17638949289
17638955454
17638960093
17638965342
17638970957
17638976206
17638980539
17638985788
17638990549
17638995859
17639001963
17639007273
17639012094
17639017893
17639023996
17639028452
17639034128
17639039316
17639043894
17639047556
17639052683
17639057871
17639062998
17639068552
17639073984
17639080026
17639085825
17639091928
17639096872
17639103891
17639107980
17639114267
17639121774
17639126596
17639133310
17639139108
17639143503
17639148752
17639154672
17639159799
17639166391
17639172739
17639179147
17639185373
17639190439
17639196908
17639202219
17639208322
17639213998
17639219308
17639225107
17639229379
17639235849
17639241098
17639246286
17639251657
17639256479
17639263315
17639267526
17639274240
17639279306
17639285104
17639289926
17639295053
17639301461
17639307260
17639312570
17639320077
17639326730
17639332284
17639336557
17639343270
17639347482
17639355050
17639358712
17639365975
17639371285
17639377511
17639384042
17639390023
17639393868
17639402047
17639405648
17639415170
17639421151
17639425729
17639433358
17639438668
17639443795
17639450631
17639457284
17639461739
17639467599
17639474007
17639480111
17639485116
17639492806
17639498482
17639505685
17639511849
17639515694
17639527230
17639531624
17639539010
17639544991
17639548897
17639556893
17639561776
17639570137
17639576058
17639581612
17639587960
17639593392
17639596749
17639602242
17639608590
17639614937
17639619698
17639626290
17639631050
17639635750
17639639656
17639646370
17639649910
17639655403
17639662911
17639667916
17639672859
17639678536
17639683785
17639688606
17639692207
17639697395
17639703560
17639709358
17639715645
17639721016
17639726570
17639733040
17639738411
17639744087
17639750557
17639755745
17639763008
17639769356
17639777351
17639784492
17639789314
17639795784
17639801033
17639806282
17639811958
17639817695
17639825081
17639830879
17639836738
17639842659
17639849678
17639856148
17639862800
17639869331
17639872566
17639880378
17639887825
17639895271
17639899849
17639905281
17639911933
17639918037
17639923774
17639929267
17639936042
17639942207
17639948066
17639954292
17639959114
17639964668
17639969612
17639978401
17639983772
17639989997
17639996528
17640001716
17640008857
17640014289
17640020637
17640027229
17640032417
17640038764
17640043769
17640050239
17640057319
17640062263
17640067329
17640076911
17640086127
17640094367
17640101081
17640108893
17640114509
17640121345
17640127997
17640137031
17640141608
17640147956
17640153571
17640158515
17640165290
17640170661
17640176154
17640182624
17640187690
17640194587
17640200202
17640206488
17640213080
17640217658
17640224189
17640228644
17640235114
17640241706
17640247870
17640253913
17640259101
17640265021
17640271063
17640279303
17640286810
17640292792
17640298529
17640305365
17640311896
17640317084
17640322821
17640330328
17640336798
17640342413
17640349432
17640355475
17640361090
17640367987
17640373297
17640378729
17640386236
17640392035
17640399969
17640405951
17640412604
17640419134
17640425238
17640432257
17640440130
17640445990
17640451117
17640457281
17640465521
17640471380
17640479681
17640487860
17640493353
17640500860
17640506353
17640511663
17640519781
17640525335
17640533209
17640539190
17640545172
17640552740
17640559027
17640567510
17640573553
17640581671
17640587713
17640593633
17640602545
17640609136
17640617681
17640623663
17640628851
17640638311
17640645940
17640651434
17640662725
17640669622
17640677190
17640685918
17640692327
17640699651
17640709234
17640715948
17640721746
17640728216
17640735174
17640740911
17640746343
17640751836
17640758062
17640763067
17640768804
17640775274
17640782048
17640787664
17640794133
17640800115
17640805730
17640812444
17640820134
17640825627
17640832585
17640838628
17640844731
17640850713
17640855413
17640863042
17640869573
17640874944
17640880986
17640888982
17640894719
17640901982
17640907475
17640914433
17640920232
17640926640
17640932805
17640937932
17640945195
17640952519
17640958684
17640965764
17640974736
17640980839
17640986333
17640992619
17641000065
17641006474
17641014409
17641020390
17641026616
17641032963
17641040959
17641047307
17641052311
17641059575
17641065739
17641073002
17641080937
17641086247
17641092778
17641099553
17641105534
17641112492
17641121525
17641127873
17641133305
17641139775
17641147282
17641153691
17641158756
17641165348
17641173649
17641180851
17641186588
17641193791
17641201298
17641208073
17641214237
17641220402
17641226322
17641237431
17641244511
17641252445
17641260502
17641267277
17641273868
17641279179
17641285709
17641292789
17641300236
17641305729
17641314152
17641321720
17641326786
17641333683
17641340641
17641349247
17641355411
17641363468
17641368717
17641373844
17641380008
17641386722
17641394107
17641398197
17641404605
17641411747
17641416629
17641423282
17641430545
17641436710
17641442630
17641448368
17641455814
17641462711
17641468814
17641474979
17641484134
17641489993
17641496524
17641501651
17641507266
17641513858
17641519229
17641525211
17641530643
17641539066
17641544559
17641550357
17641557132
17641562686
17641568607
17641575503
17641583560
17641589725
17641596194
17641601626
17641610477
17641614261
17641622256
17641629886
17641637210
17641643191
17641650271
17641656802
17641663699
17641669864
17641676516
17641685489
17641692569
17641699588
17641705386
17641711062
17641718020
17641723269
17641732852
17641739688
17641745852
17641751956
17641759463
17641765383
17641771731
17641778079
17641783816
17641791567
17641797183
17641805789
17641812380
17641818362
17641823977
17641831179
17641839419
17641846682
17641853518
17641859988
17641870180
17641876650
17641883791
17641890627
17641898012
17641903445
17641909975
17641916201
17641923647
17641930239
17641936098
17641941469
17641947268
17641954409
17641961428
17641967714
17641972902
17641980104
17641987429
17641993044
17641998110
17642003908
17642011415
17642018007
17642024538
17642030275
17642036623
17642042360
17642048158
17642054201
17642062807
17642070192
17642077333
17642084291
17642090334
17642096193
17642102907
17642109071
17642115297
17642123109
17642130006
17642136537
17642142274
17642149477
17642153993
17642162477
17642168703
17642173952
17642181215
17642187196
17642195375
17642201906
17642209108
17642215761
17642223695
17642228944
17642233339
17642240907
17642248597
17642254518
17642260988
17642268556
17642275819
17642281434
17642290162
17642294679
17642301576
17642309205
17642315370
17642322450
17642329713
17642336427
17642342713
17642351502
17642358644
17642369203
17642379090
17642390138
17642399964
17642413453
17642421876
17642434449
17642444093
17642452271
17642461610
17642471802
17642482972
17642490906
17642498597
17642510316
17642518799
17642527588
17642541688
17642549927
17642558411
17642566346
17642575318
17642583313
17642592652
17642601075
17642610230
17642618714
17642626343
17642634156
17642643006
17642651612
17642658203
17642666809
17642674439
17642682739
17642691406
17642699585
17642707520
17642715454
17642723877
17642731506
17642739014
17642746216
17642754028
17642761475
17642771179
17642778992
17642786865
17642795471
17642802734
17642809997
17642819397
17642826172
17642835876
17642843750
17642849792
17642856506
17642865783
17642873474
17642880859
17642890258
17642898925
17642906677
17642912597
17642921997
17642930664
17642937866
17642948120
17642957824
17642965576
17642972228
17642981628
17642989318
17642996032
17643002685
17643013549
17643021301
17643029418
17643038818
17643046935
17643056213
17643061767
17643071410
17643083190
17643088439
17643101745
17643110045
17643118590
17643126037
17643132567
17643141967
17643150390
17643159545
17643167540
17643176329
17643186400
17643192931
17643199218
17643206176
17643212706
17643221251
17643232421
17643240538
17643252928
17643263121
17643272826
17643285216
17643296080
17643304442
17643312682
17643322630
17643327513
17643335631
17643343260
17643349974
17643356871
17643365538
17643374998
17643382567
17643390501
17643398131
17643406431
17643413939
17643420958
17643428160
17643436400
17643443907
17643452818
17643460325
17643467955
17643475584
17643483824
17643491148
17643499083
17643506590
17643513365
17643520750
17643529173
17643536680
17643543882
17643553404
17643559263
17643568662
17643576292
17643583189
17643591795
17643600767
17643607359
17643616636
17643623289
17643632688
17643640073
17643646909
17643653135
17643662778
17643670286
17643678647
17643686033
17643691099
17643697202
17643702085
17643706113
17643712644
17643717649
17643723935
17643727659
17643732175
17643738340
17643744016
17643748472
17643756406
17643761716
17643765805
17643770810
17643775754
17643779538
17643785825
17643791196
17643795530
17643801206
17643805234
17643811154
17643816648
17643824399
17643829404
17643835263
17643840451
17643845578
17643850095
17643856503
17643864194
17643873410
17643878110
17643883420
17643888913
17643895383
17643902707
17643909055
17643913388
17643918027
17643925107
17643929562
17643935483
17643939389
17643945065
17643950192
17643955746
17643961789
17643967038
17643971738
17643977780
17643983151
17643988644
17643995175
17644001156
17644006772
17644013058
17644018979
17644023068
17644030392
17644035153
17644041562
17644048886
17644055966
17644060360
17644066891
17644072567
17644077877
17644083249
17644090145
17644094845
17644100094
17644107907
17644112850
17644119137
17644125790
17644131466
17644135983
17644143307
17644148312
17644155087
17644160214
17644166805
17644172482
17644178097
17644184750
17644189816
17644196835
17644202267
17644207943
17644214535
17644219418
17644225460
17644231686
17644239071
17644244320
17644251583
17644259518
17644266231
17644271297
17644279476
17644284603
17644290829
17644296932
17644303036
17644311336
17644318355
17644323848
17644329586
17644336117
17644340511
17644348262
17644352657
17644360286
17644363948
17644370540
17644377681
17644384212
17644392391
17644397945
17644403499
17644411251
17644417720
17644423885
17644430049
17644438045
17644443782
17644449336
17644453365
17644459163
17644464229
17644469173
17644476924
17644482112
17644487361
17644494624
17644500484
17644505122
17644509334
17644516597
17644523677
17644530452
17644534053
17644540523
17644546138
17644552547
17644558406
17644564021
17644569697
17644574946
17644582332
17644587031
17644593623
17644598140
17644605464
17644612727
17644618953
17644625361
17644630916
17644637324
17644644099
17644649653
17644656428
17644663508
17644668574
17644674372
17644681025
17644686152
17644691462
17644697688
17644705989
17644712947
17644718867
17644723445
17644731318
17644737605
17644744258
17644751216
17644758479
17644764277
17644771662
17644777339
17644782954
17644790461
17644794917
17644800776
17644809809
17644814448
17644822138
17644827509
17644834040
17644840571
17644845881
17644852290
17644858149
17644866511
17644870783
17644878657
17644885309
17644889948
17644896296
17644903437
17644909418
17644915033
17644922236
17644927729
17644933405
17644939631
17644947138
17644954523
17644964838
17644971247
17644981745
17644988153
17644996698
17645005182
17645011286
17645019281
17645025751
17645032892
17645039118
17645044977
17645048822
17645056818
17645062372
17645069269
17645075800
17645080805
17645086481
17645091669
17645099603
17645105219
17645111627
17645117914
17645123407
17645127191
17645134149
17645140131
17645146539
17645152032
17645158807
17645164178
17645169855
17645178033
17645183099
17645191034
17645196649
17645203241
17645209833
17645215936
17645222223
17645228570
17645234185
17645240777
17645247186
17645254815
17645258905
17645265863
17645272638
17645276056
17645285150
17645291864
17645298211
17645304986
17645309320
17645317620
17645321710
17645328118
17645334222
17645341241
17645349542
17645355767
17645361321
17645368035
17645375176
17645380853
17645385735
17645392632
17645398858
17645405877
17645411675
17645418450
17645422784
17645429742
17645440850
17645449212
17645454034
17645460747
17645468804
17645473687
17645481133
17645487176
17645492241
17645500481
17645505364
17645511162
17645517022
17645523369
17645527581
17645533745
17645540154
17645546135
17645552483
17645559197
17645565850
17645569573
17645574883
17645583184
17645590081
17645595208
17645601738
17645609673
17645615349
17645620781
17645626824
17645634087
17645638542
17645646416
17645653374
17645660881
17645665886
17645669914
17645676750
17645681877
17645688591
17645693474
17645699272
17645704521
17645710014
17645715752
17645720268
17645726799
17645733086
17645738884
17645744499
17645750114
17645756279
17645762077
17645768547
17645774589
17645780693
17645787346
17645792778
17645799492
17645809257
17645816704
17645823478
17645829216
17645835502
17645841850
17645846916
17645853752
17645859001
17645867241
17645873222
17645879142
17645883049
17645890312
17645896171
17645902153
17645907524
17645913566
17645918754
17645923515
17645931632
17645937004
17645940788
17645947318
17645953544
17645959892
17645965507
17645972221
17645977958
17645981864
17645987479
17645993400
17646000053
17646007499
17646013786
17646020988
17646026176
17646030448
17646037223
17646043571
17646048026
17646053702
17646059928
17646066581
17646071830
17646077201
17646083304
17646089652
17646093619
17646100028
17646106803
17646112845
17646117972
17646124442
17646131034
17646137198
17646141837
17646148551
17646155082
17646161673
17646168204
17646172721
17646177848
17646184439
17646190543
17646196341
17646203971
17646209891
17646217520
17646224967
17646231742
17646239432
17646245596
17646252066
17646260245
17646266409
17646271842
17646277762
17646282828
17646288687
17646295218
17646300894
17646305655
17646310355
17646316824
17646320792
17646327811
17646332754
17646338003
17646343314
17646349295
17646354971
17646358816
17646365286
17646369192
17646375479
17646382071
17646388174
17646394827
17646401663
17646407522
17646411856
17646417410
17646424124
17646429617
17646436087
17646440420
17646449881
17646456289
17646461721
17646467337
17646474661
17646481008
17646488333
17646496389
17646502310
17646507803
17646513174
17646519583
17646524771
17646530691
17646536550
17646543691
17646548879
17646555715
17646561270
17646567373
17646572500
17646579153
17646583730
17646590688
17646594900
17646602895
17646608877
17646615957
17646620840
17646626699
17646632497
17646637685
17646644704
17646651479
17646657278
17646662527
17646667592
17646674123
17646680349
17646684926
17646690603
17646697378
17646703054
17646709707
17646715749
17646722402
17646729116
17646735280
17646740957
17646749074
17646755788
17646760244
17646766591
17646774648
17646781606
17646788442
17646794545
17646798390
17646805593
17646813649
17646820119
17646828115
17646832448
17646839772
17646847280
17646853932
17646862660
17646872731
17646880544
17646887746
17646894765
17646901479
17646906117
17646912526
17646918935
17646925404
17646930714
17646935780
17646941151
17646946889
17646954823
17646961659
17646968922
17646972035
17646979970
17646985768
17646991627
17646997731
17647003346
17647008900
17647014882
17647020436
17647027028
17647032338
17647038502
17647046559
17647052479
17647057728
17647063343
17647069020
17647075306
17647082753
17647088063
17647093922
17647101002
17647105152
17647111500
17647118702
17647123646
17647129200
17647135365
17647141102
17647147938
17647154408
17647160816
17647166065
17647173145
17647178577
17647185291
17647190723
17647195301
17647203114
17647208912
17647213917
17647220631
17647226124
17647233875
17647239674
17647246204
17647252796
17647259205
17647265186
17647270862
17647276417
17647282154
17647288074
17647294178
17647298877
17647309070
17647314258
17647320179
17647326587
17647333973
17647340503
17647345203
17647354175
17647360035
17647366565
17647373279
17647380481
17647386219
17647392932
17647399768
17647406177
17647412586
17647418933
17647421924
17647429004
17647436511
17647442798
17647448535
17647454456
17647461719
17647469531
17647476856
17647484241
17647490772
17647498462
17647505542
17647511951
17647521228
17647524097
17647531299
17647539416
17647545154
17647550586
17647556506
17647565906
17647570361
17647578540
17647582263
17647588183
17647593921
17647597522
17647605517
17647611682
17647618701
17647624926
17647629443
17647635119
17647638598
17647645739
17647650805
17647656054
17647661486
17647667041
17647672839
17647677905
17647684191
17647690722
17647694567
17647699694
17647707202
17647711413
17647717883
17647723986
17647729846
17647735888
17647742724
17647749316
17647754626
17647762927
17647772204
17647779833
17647787524
17647793383
17647800341
17647806017
17647811999
17647817004
17647821886
17647826159
17647831530
17647836352
17647841784
17647847033
17647852709
17647858996
17647862963
17647868395
17647873522
17647879381
17647883471
17647890673
17647894274
17647900866
17647906786
17647910448
17647917833
17647923204
17647928454
17647935473
17647942308
17647948717
17647954210
17647960558
17647966722
17647971239
17647978929
17647983080
17647989183
17647994860
17648001085
17648007982
17648011888
17648017320
17648024034
17648029527
17648035631
17648043382
17648048692
17648054491
17648060777
17648065843
17648073412
17648080370
17648084215
17648093065
17648100572
17648107774
17648112657
17648118578
17648125536
17648131822
17648137132
17648146348
17648151781
17648157274
17648160814
17648167344
17648171373
17648177598
17648183702
17648189866
17648196458
17648200914
17648207200
17648211351
17648216905
17648223741
17648228929
17648233934
17648240953
17648247178
17648251573
17648258165
17648263536
17648269151
17648275987
17648281663
17648286546
17648293992
17648299180
17648306626
17648310411
17648317369
17648321336
17648328843
17648335069
17648339646
17648347032
17648352403
17648358689
17648365220
17648369431
17648376023
17648381883
17648389146
17648397446
17648404649
17648408677
17648413804
17648416795
17648424302
17648428269
17648434861
17648440842
17648446885
17648452500
17648458665
17648465073
17648470017
17648475022
17648481247
17648486435
17648493027
17648497544
17648503098
17648507920
17648514267
17648517624
17648522446
17648529404
17648533554
17648540390
17648545823
17648552536
17648559189
17648564133
17648569321
17648574326
17648579941
17648585312
17648591660
17648595810
17648601120
17648607041
17648610642
17648616440
17648620163
17648628647
17648633652
17648640793
17648645432
17648648972
17648654648
17648661179
17648666489
17648672470
17648679062
17648688644
17648697922
17648708054
17648715134
17648726059
17648733627
17648742233
17648758591
17648767990
17648773788
17648785568
17648794845
17648800644
17648810165
17648819503
17648830063
17648840072
17648846725
17648854171
17648863021
17648867904
17648877487
17648884994
17648891647
17648900436
17648908065
17648914291
17648922164
17648930343
17648937667
17648946212
17648955184
17648964584
17648972823
17648979720
17648989120
17648995284
17649003219
17649008773
17649016769
17649025741
17649031966
17649042098
17649051742
17649059066
17649064071
17649075423
17649084884
17649092208
17649099227
17649109237
17649115401
17649126387
17649134688
17649140853
17649147994
17649157454
17649164901
17649173384
17649177962
17649187300
17649194930
17649200606
17649209395
17649217940
17649224593
17649232344
17649237776
17649245589
17649254378
17649263655
17649272810
17649279585
17649288924
17649295638
17649300093
17649311446
17649320235
17649327071
17649336165
17649343062
17649353132
17649361433
17649367354
17649375593
17649383223
17649392561
17649399275
17649405501
17649414534
17649424116
17649434187
17649443464
17649450972
17649460737
17649468000
17649476606
17649486311
17649493635
17649504377
17649510664
17649519636
17649528303
17649535627
17649545515
17649551557
17649561506
17649569624
17649577253
17649587324
17649600507
17649605573
17649618146
17649627851
17649637372
17649647504
17649656782
17649665571
17649672101
17649684614
17649695722
17649702924
17649713971
17649723371
17649731427
17649741681
17649747480
17649755719
17649764875
17649771588
17649779889
17649785810
17649793683
17649798688
17649804059
17649810163
17649817365
