17716352900
17716358271
17716364558
17716370234
17716376337
17716381586
17716387873
17716393427
17716398920
17716405146
17716411677
17716417475
17716424616
17716431879
17716437922
17716444513
17716450983
17716458246
17716463251
17716469965
17716473932
17716482294
17716488825
17716494806
17716501764
17716508661
17716513361
17716521601
17716529779
17716537287
17716544916
17716552545
17716559503
17716565729
17716571893
17716579950
17716586542
17716593317
17716600641
17716606073
17716613947
17716619562
17716628107
17716632318
17716642267
17716649957
17716655267
17716662836
17716668634
17716676935
17716681879
17716690912
17716697687
17716704706
17716711542
17716718744
17716725397
17716730584
17716740167
17716746393
17716754815
17716761712
17716768365
17716775140
17716782342
17716789544
17716796197
17716804071
17716811700
17716818963
17716825250
17716832696
17716838677
17716846551
17716852838
17716865289
17716873284
17716881463
17716889825
17716896539
17716905328
17716911492
17716921990
17716929131
17716936822
17716944939
17716952447
17716960320
17716967461
17716976495
17716982903
17716992303
17716996880
17717006951
17717014763
17717021782
17717031670
17717039055
17717045708
17717051690
17717060479
17717071404
17717078850
17717089043
17717097161
17717105767
17717112847
17717122734
17717130974
17717137688
17717148308
17717155144
17717162346
17717170464
17717176933
17717187004
17717196953
17717205315
17717215141
17717222160
17717231743
17717239983
17717248833
17717258171
17717265495
17717273979
17717281853
17717288872
17717296623
17717303947
17717309746
17717318596
17717324882
17717333488
17717337578
17717346550
17717354728
17717361686
17717369316
17717376579
17717384330
17717391838
17717398368
17717403678
17717412040
17717419548
17717427482
17717434989
17717442131
17717448356
17717456413
17717462272
17717470207
17717476249
17717484733
17717492301
17717501762
17717507621
17717514701
17717522208
17717529105
17717537894
17717546073
17717553397
17717559318
17717567496
17717573173
17717580558
17717586845
17717596793
17717604423
17717611808
17717619803
17717627189
17717632560
17717640922
17717650016
17717657706
17717668326
17717674125
17717683524
17717687491
17717698539
17717707389
17717716239
17717725211
17717733878
17717741751
17717750174
17717757865
17717765067
17717773795
17717784842
17717792410
17717801688
17717808829
17717816641
17717825064
17717834525
17717842825
17717851981
17717860586
17717865958
17717873709
17717881949
17717889578
17717895193
17717903921
17717910086
17717920706
17717927786
17717935293
17717941885
17717950979
17717957144
17717967459
17717975088
17717982718
17717990652
17717998404
17718004995
17718012625
17718020620
17718028433
17718036550
17718042166
17718050466
17718057974
17718066213
17718072622
17718083120
17718090627
17718097646
17718103262
17718113332
17718121328
17718129079
17718135793
17718143789
17718150075
17718157827
17718165945
17718172109
17718181142
17718189077
17718196340
17718204275
17718211660
17718219167
17718225942
17718233510
17718241506
17718250844
17718258718
17718266103
17718275686
17718281728
17718292714
17718300649
17718307851
17718319692
17718327199
17718334767
17718342214
17718351308
17718357594
17718365285
17718372487
17718380177
17718388112
17718396779
17718406911
17718414174
17718421681
17718428700
17718435658
17718442982
17718450795
17718458546
17718466603
17718474049
17718480580
17718489552
17718497426
17718508839
17718519276
17718528187
17718537343
17718544911
17718551625
17718560841
17718568104
17718577748
17718585255
17718592884
17718599964
17718604054
17718613270
17718624012
17718629505
17718639881
17718649647
17718657093
17718666310
17718672535
17718682545
17718687061
17718696644
17718701099
17718711720
17718719654
17718727528
17718736927
17718743458
17718753773
17718758533
17718768787
17718775623
17718783436
17718791492
17718801624
17718810047
17718817371
17718823841
17718829639
17718835438
17718841175
17718847706
17718854541
17718860035
17718868274
17718870166
17718880176
17718887256
17718892994
17718899952
17718907215
17718912769
17718917774
17718923938
17718929492
17718937488
17718941089
17718948535
17718955982
17718962146
17718968433
17718974719
17718985462
17718990894
17718997302
17719002551
17719008777
17719013477
17719019763
17719025317
17719032642
17719037219
17719043140
17719046313
17719052905
17719058826
17719064136
17719071216
17719075793
17719081531
17719087268
17719093127
17719098742
17719103625
17719108142
17719115344
17719119311
17719128711
17719134387
17719140918
17719147326
17719152820
17719158618
17719163440
17719170825
17719177356
17719183215
17719189013
17719194262
17719200000
17719205920
17719211474
17719218005
17719223986
17719229235
17719236987
17719243579
17719249560
17719255297
17719261645
17719267138
17719273364
17719279833
17719286181
17719291552
17719297656
17719303637
17719309618
17719315539
17719322619
17719327685
17719334826
17719340868
17719346606
17719352648
17719357104
17719363756
17719370165
17719376879
17719383105
17719388781
17719394945
17719400255
17719406603
17719412951
17719417833
17719424914
17719430773
17719436632
17719442614
17719448107
17719452990
17719460436
17719466600
17719472033
17719476854
17719483690
17719487108
17719494249
17719500536
17719506273
17719511949
17719518053
17719523729
17719528673
17719535997
17719539659
17719547838
17719553880
17719559130
17719564623
17719569017
17719578111
17719583849
17719589342
17719596544
17719601854
17719609850
17719616930
17719621935
17719629381
17719635423
17719641038
17719648485
17719653978
17719661607
17719666978
17719677659
17719684312
17719689134
17719695909
17719701829
17719707628
17719714830
17719720628
17719725938
17719731553
17719737596
17719743455
17719750291
17719754503
17719763841
17719769517
17719775499
17719781846
17719787767
17719794969
17719799424
17719805894
17719811875
17719817674
17719822373
17719827989
17719834641
17719840745
17719846604
17719851975
17719855515
17719863938
17719869004
17719874925
17719880906
17719886277
17719892381
17719897935
17719903733
17719909898
17719916550
17719921494
17719928269
17719933213
17719940110
17719945908
17719951096
17719956589
17719961716
17719967576
17719971848
17719980576
17719985825
17719991074
17719996140
17720002183
17720006699
17720012803
17720019639
17720025559
17720030320
17720036057
17720041550
17720047471
17720053086
17720059311
17720064743
17720070420
17720075302
17720079941
17720086045
17720091050
17720097763
17720103745
17720109726
17720113694
17720119736
17720126023
17720131760
17720138046
17720142746
17720150498
17720156540
17720161301
17720166306
17720172836
17720178208
17720189438
17720206711
17720213547
17720226852
17720235764
17720241501
17720247971
17720252060
17720260361
17720265732
17720270798
17720276962
17720281845
17720287216
17720292465
17720299057
17720305282
17720311325
17720318344
17720324997
17720330856
17720335556
17720343734
17720348251
17720354904
17720357895
17720364975
17720370834
17720375961
17720382614
17720389816
17720394699
17720399032
17720406662
17720409713
17720417404
17720422775
17720427780
17720433456
17720438705
17720444686
17720449264
17720454879
17720459274
17720466415
17720471237
17720477035
17720482650
17720488693
17720496261
17720501144
17720507613
17720512130
17720519820
17720525558
17720530990
17720537948
17720542831
17720550094
17720554305
17720560714
17720565902
17720571822
17720578780
17720583907
17720591475
17720596236
17720602584
17720607467
17720613631
17720619246
17720625350
17720630477
17720635665
17720641524
17720647323
17720652572
17720656966
17720664046
17720666854
17720674300
17720680892
17720686019
17720691329
17720696456
17720702193
17720706221
17720712203
17720717940
17720723433
17720728011
17720734236
17720739119
17720747298
17720750716
17720759017
17720765608
17720770674
17720776900
17720782454
17720787276
17720793074
17720799300
17720804488
17720810652
17720816451
17720821455
17720826704
17720831892
17720839705
17720844282
17720851851
17720856428
17720862898
17720867049
17720873823
17720876875
17720884871
17720889631
17720894819
17720900801
17720905928
17720912275
17720916060
17720923201
17720928816
17720934309
17720938887
17720944929
17720950544
17720955854
17720962873
17720968061
17720973494
17720978804
17720983992
17720989668
17720995344
17721000044
17721006147
17721009443
17721016706
17721022261
17721027693
17721033857
17721037519
17721044233
17721049970
17721056379
17721061384
17721066328
17721071638
17721076826
17721083296
17721088789
17721095014
17721100690
17721105329
17721110700
17721115766
17721122663
17721128339
17721134321
17721139692
17721145002
17721150190
17721155561
17721161054
17721168317
17721171613
17721178327
17721183698
17721189863
17721194868
17721200117
17721206769
17721212568
17721218000
17721222516
17721229047
17721235517
17721241376
17721248578
17721254743
17721261213
17721268110
17721273359
17721280133
17721287091
17721291974
17721299543
17721305097
17721309980
17721316693
17721320661
17721328412
17721336041
17721341474
17721344769
17721352643
17721355695
17721363629
17721369916
17721375165
17721381940
17721387921
17721393720
17721398114
17721403851
17721408002
17721415387
17721420758
17721426190
17721432111
17721437787
17721443890
17721447980
17721452985
17721457379
17721465130
17721468426
17721475506
17721481610
17721487103
17721492901
17721498578
17721505841
17721510541
17721516705
17721521954
17721527081
17721533001
17721538311
17721544598
17721550335
17721555767
17721562664
17721568402
17721574932
17721580609
17721586468
17721592083
17721597576
17721601910
17721608685
17721614056
17721619244
17721624554
17721629681
17721635784
17721641461
17721647503
17721655071
17721662029
17721668621
17721673992
17721679241
17721684490
17721690105
17721695660
17721700970
17721706402
17721713970
17721718914
17721723980
17721729351
17721734539
17721739239
17721745342
17721751018
17721755657
17721761577
17721764873
17721773784
17721780620
17721791240
17721797771
17721806316
17721812114
17721817486
17721822063
17721827312
17721834087
17721840557
17721846172
17721851604
17721855205
17721862712
17721870830
17721879009
17721884502
17721892253
17721898296
17721903606
17721909343
17721916301
17721922161
17721928447
17721933269
17721939983
17721945842
17721952068
17721958415
17721966045
17721972148
17721978496
17721984721
17721990093
17721997295
17722000652
17722008281
17722014751
17722020854
17722027202
17722032573
17722037639
17722043803
17722048076
17722053569
17722057719
17722065349
17722072001
17722077373
17722083232
17722088542
17722093242
17722097514
17722105693
17722110942
17722115580
17722120707
17722126140
17722131572
17722136760
17722144023
17722148478
17722154887
17722160380
17722165385
17722170146
17722174784
17722181681
17722185893
17722191386
17722195842
17722201762
17722206706
17722211955
17722218974
17722224284
17722228922
17722234171
17722239726
17722244486
17722250956
17722256754
17722261942
17722268534
17722274943
17722281840
17722286845
17722293253
17722298624
17722303996
17722311259
17722315226
17722322001
17722328287
17722334513
17722340494
17722347147
17722353373
17722360270
17722367350
17722375345
17722381449
17722386698
17722393046
17722398783
17722404520
17722410807
17722415018
17722423563
17722430826
17722435770
17722443399
17722449442
17722455240
17722460001
17722464640
17722471598
17722478311
17722483377
17722489786
17722495523
17722501688
17722508524
17722513834
17722519083
17722525980
17722530618
17722538004
17722545084
17722550699
17722556009
17722562479
17722568155
17722574320
17722580911
17722586832
17722593668
17722601053
17722607278
17722615518
17722620950
17722627603
17722632547
17722639017
17722645059
17722650064
17722658243
17722663614
17722669473
17722676370
17722682474
17722688516
17722694620
17722699197
17722705667
17722712259
17722717019
17722723489
17722729654
17722734781
17722740152
17722747354
17722753030
17722761880
17722768472
17722774881
17722784280
17722790200
17722795999
17722803628
17722808145
17722816384
17722820596
17722827188
17722834146
17722839211
17722844949
17722851357
17722860574
17722867349
17722873757
17722879434
17722885720
17722889932
17722896645
17722900735
17722907204
17722911538
17722918252
17722921181
17722927651
17722934487
17722939980
17722945962
17722951516
17722957558
17722961892
17722967690
17722970681
17722980324
17722985268
17722990517
17722995644
17723001198
17723006264
17723010415
17723016945
17723022622
17723028237
17723033486
17723038491
17723044533
17723049721
17723056374
17723062661
17723067604
17723073220
17723078713
17723085915
17723090676
17723097512
17723102516
17723108498
17723114784
17723119057
17723126137
17723132546
17723138222
17723145729
17723150673
17723156410
17723162026
17723167030
17723175636
17723180519
17723186867
17723192055
17723198036
17723203896
17723211159
17723215614
17723223122
17723228554
17723234901
17723241554
17723248512
17723254555
17723261329
17723267799
17723274696
17723283668
17723287880
17723294899
17723299843
17723305397
17723312355
17723318458
17723324073
17723328834
17723338050
17723343971
17723352882
17723362159
17723371131
17723379188
17723386451
17723396217
17723404335
17723413246
17723422645
17723432899
17723440345
17723449867
17723457984
17723465919
17723475318
17723483619
17723493507
17723501197
17723510902
17723518958
17723526588
17723533607
17723542640
17723550452
17723559119
17723566504
17723575233
17723582068
17723590857
17723598243
17723605445
17723614173
17723621802
17723629187
17723637183
17723644446
17723651648
17723658911
17723666907
17723674353
17723681922
17723688697
17723694800
17723703406
17723709510
17723720191
17723727515
17723735632
17723741980
17723753088
17723761572
17723770545
17723780676
17723785437
17723796973
17723806555
17723815527
17723825903
17723834936
17723842993
17723853613
17723865515
17723873694
17723883642
17723890539
17723902258
17723907141
17723921240
17723929541
17723938147
17723947119
17723956152
17723964392
17723974096
17723987951
17723994482
17724003332
17724010839
17724020788
17724030309
17724036230
17724045568
17724053442
17724061071
17724070898
17724077123
17724087072
17724097204
17724105810
17724112402
17724119176
17724126195
17724131200
17724141149
17724148900
17724157873
17724166173
17724174718
17724185583
17724194311
17724201696
17724209569
17724218908
17724225744
17724251989
17724261022
17724270116
17724277867
17724286840
17724294225
17724302098
17724311437
17724319615
17724327855
17724336217
17724344884
17724353246
17724362096
17724368199
17724378697
17724389073
17724397069
17724404942
17724412877
17724423741
17724430577
17724439976
17724449315
17724457066
17724466649
17724475438
17724484837
17724491490
17724503209
17724512303
17724521275
17724528904
17724537388
17724547276
17724556187
17724564610
17724574253
17724583348
17724591587
17724598606
17724608738
17724615940
17724626194
17724635044
17724643101
17724651219
17724659397
17724670261
17724679844
17724687717
17724696995
17724707249
17724715427
17724724522
17724733738
17724742039
17724748447
17724754673
17724761814
17724766514
17724773655
17724780002
17724786594
17724793918
17724800449
17724807163
17724812473
17724818821
17724823337
17724830234
17724836948
17724842929
17724848484
17724856296
17724861667
17724865757
17724872470
17724876987
17724883457
17724888095
17724896091
17724899631
17724907260
17724912692
17724918125
17724923557
17724929294
17724935703
17724941379
17724948459
17724952853
17724958957
17724963413
17724969699
17724974094
17724980624
17724985446
17724991855
17724997104
17725003513
17725009006
17725014316
17725019870
17725025180
17725031833
17725036410
17725042453
17725048495
17725053500
17725057956
17725066073
17725069308
17725076022
17725081393
17725086581
17725091708
17725098300
17725104220
17725110019
17725116793
17725121371
17725127536
17725131930
17725137606
17725142184
17725151339
17725155062
17725162265
17725165438
17725173007
17725178805
17725184054
17725190280
17725196261
17725201266
17725207064
17725212435
17725218051
17725223727
17725228121
17725234835
17725240389
17725245638
17725251437
17725257479
17725263461
17725269564
17725275912
17725281588
17725288302
17725294711
17725299837
17725306856
17725312777
17725315951
17725325533
17725331454
17725336031
17725343111
17725347262
17725353731
17725357821
17725365694
17725372103
17725377901
17725381258
17725389559
17725394564
17725399874
17725406283
17725411776
17725417452
17725423128
17725428621
17725434237
17725438875
17725444796
17725451570
17725456575
17725464144
17725470125
17725475374
17725479647
17725484896
17725492525
17725498873
17725504061
17725509798
17725515230
17725519686
17725526277
17725531038
17725537935
17725543733
17725548982
17725552095
17725560518
17725565645
17725570894
17725577242
17725582918
17725589815
17725594575
17725605196
17725611543
17725616792
17725623018
17725628999
17725634859
17725639375
17725645662
17725650423
17725657014
17725661775
17725669038
17725672639
17725679048
17725684663
17725689729
17725695955
17725701265
17725707979
17725713777
17725718965
17725724641
17725729646
17725734224
17725741487
17725746308
17725753999
17725759370
17725764375
17725769807
17725774995
17725780793
17725786042
17725791963
17725798066
17725804231
17725810029
17725816987
17725822236
17725828767
17725833894
17725840730
17725846711
17725852143
17725857087
17725864350
17725868928
17725874238
17725881562
17725887360
17725892243
17725896699
17725902985
17725907685
17725915498
17725921723
17725928864
17725934662
17725940461
17725946259
17725951020
17725957612
17725962311
17725970612
17725974030
17725980256
17725985810
17725990937
17725997223
17726002411
17726008210
17726014008
17726020234
17726024323
17726030426
17726036103
17726042206
17726046967
17726054535
17726060517
17726065766
17726071259
17726076508
17726080597
17726086396
17726096100
17726103180
17726110138
17726116791
17726123017
17726130768
17726135590
17726142975
17726149567
17726155609
17726161713
17726168060
17726173676
17726180145
17726188446
17726191864
17726199371
17726206024
17726211761
17726217621
17726223297
17726230621
17726236542
17726243378
17726249176
17726254974
17726262115
17726268402
17726274872
17726281463
17726287140
17726293304
17726299164
17726306244
17726313018
17726318573
17726325286
17726331085
17726336700
17726342681
17726349578
17726355865
17726363372
17726369903
17726379119
17726385406
17726390167
17726397003
17726402923
17726410552
17726417571
17726422515
17726430084
17726435638
17726441253
17726448211
17726457122
17726463470
17726470916
17726474883
17726482146
17726487579
17726494231
17726499908
17726505767
17726510589
17726517058
17726522185
17726527740
17726535247
17726540252
17726547942
17726551299
17726559783
17726565215
17726571074
17726578399
17726584258
17726589995
17726594939
17726603118
17726608794
17726614592
17726620574
17726626189
17726632415
17726638518
17726644255
17726650420
17726656951
17726664031
17726669585
17726675322
17726681487
17726688628
17726695098
17726701079
17726709441
17726714751
17726721221
17726725981
17726732878
17726735991
17726744292
17726751189
17726756682
17726762297
17726767912
17726773222
17726778838
17726785612
17726791899
17726796538
17726802641
17726809660
17726813261
17726820708
17726825957
17726832060
17726837492
17726844328
17726849882
17726855192
17726860136
17726865141
17726869963
17726875029
17726881987
17726888701
17726894316
17726897856
17726906645
17726909819
17726917692
17726921721
17726930571
17726935636
17726940886
17726946745
17726951017
17726957853
17726963713
17726970854
17726976591
17726981718
17726987638
17726992948
17726997892
17727003507
17727010587
17727016508
17727023649
17727028227
17727034635
17727039152
17727045316
17727050199
17727058378
17727061674
17727069181
17727075468
17727081144
17727086271
17727091581
17727097990
17727104215
17727109220
17727114957
17727120512
17727125272
17727132535
17727138761
17727144620
17727151151
17727156827
17727162443
17727166471
17727172391
17727177579
17727184537
17727189603
17727196195
17727200773
17727207181
17727210477
17727218168
17727222989
17727231046
17727233121
17727240934
17727246549
17727252103
17727258939
17727263272
17727270352
17727276395
17727282010
17727286710
17727293302
17727298245
17727305203
17727308438
17727317777
17727323453
17727328702
17727334012
17727339322
17727344815
17727350491
17727358365
17727363126
17727369229
17727373807
17727379788
17727384366
17727392178
17727395230
17727404446
17727409695
17727415005
17727420010
17727425442
17727431241
17727437771
17727445157
17727449063
17727457303
17727463894
17727469082
17727472378
17727479092
17727485562
17727491604
17727498013
17727503689
17727508633
17727514309
17727519436
17727523892
17727531277
17727534817
17727544278
17727550076
17727555569
17727561001
17727566677
17727573086
17727579373
17727585781
17727590237
17727596401
17727600857
17727606228
17727610684
17727619595
17727623196
17727630093
17727635342
17727640591
17727646633
17727652004
17727658169
17727664333
17727669949
17727675564
17727681423
17727685940
17727691616
17727696072
17727704494
17727709194
17727714443
17727720363
17727726650
17727731899
17727737148
17727743862
17727749965
17727755581
17727761257
17727766018
17727771511
17727777553
17727782131
17727788723
17727794826
17727800197
17727805263
17727810451
17727815822
17727821498
17727828212
17727834072
17727840663
17727845668
17727851894
17727856349
17727862087
17727866359
17727874782
17727878261
17727885646
17727891506
17727897121
17727902858
17727907985
17727913539
17727919582
17727926051
17727930080
17727936061
17727941798
17727947109
17727951686
17727959682
17727964503
17727971950
17727978114
17727985561
17727991725
17727997584
17728005214
17728011561
17728016383
17728022243
17728027736
17728032680
17728040858
17728047084
17728053004
17728059169
17728064784
17728070399
17728075587
17728082179
17728088954
17728096644
17728100123
17728108485
17728111720
17728119471
17728125331
17728130641
17728136561
17728143824
17728148951
17728155116
17728159815
17728165919
17728171534
17728175868
17728184413
17728190516
17728195094
17728200587
17728205775
17728212000
17728217188
17728222376
17728228053
17728234095
17728239832
17728244715
17728250391
17728255640
17728261927
17728269862
17728274805
17728280909
17728286158
17728291834
17728297755
17728303309
17728308802
17728314600
17728319544
17728325403
17728330958
17728336573
17728341822
17728346277
17728354029
17728359278
17728365015
17728370325
17728375635
17728381006
17728386438
17728392725
17728398523
17728405237
17728409510
17728416407
17728420984
17728427637
17728432459
17728439661
17728443323
17728450281
17728454920
17728462305
17728467249
17728472498
17728479517
17728485559
17728491175
17728495630
17728501001
17728507166
17728513880
17728520410
17728527185
17728535120
17728541895
17728549036
17728555383
17728562952
17728570093
17728575891
17728582239
17728587183
17728595850
17728601892
17728606958
17728612939
17728619958
17728623254
17728630823
17728636011
17728643823
17728648828
17728655603
17728661096
17728666589
17728673303
17728677697
17728684778
17728689355
17728694909
17728700708
17728707360
17728713037
17728718286
17728721948
17728729577
17728735437
17728740808
17728747522
17728753625
17728758386
17728764123
17728769372
17728773706
17728779931
17728784265
17728791589
17728797631
17728802697
17728808557
17728813683
17728818810
17728824059
17728832299
17728836938
17728842675
17728846886
17728853661
17728857995
17728864098
17728868798
17728876427
17728882043
17728887170
17728893334
17728898461
17728903832
17728907738
17728915063
17728921044
17728930688
17728936852
17728944542
17728951256
17728957543
17728965294
17728970604
17728976159
17728981591
17728987206
17728993126
17728998803
17729004296
17729010765
17729016503
17729022423
17729028160
17729032921
17729038903
17729043724
17729052147
17729057701
17729063133
17729066490
17729073876
17729080834
17729086327
17729092919
17729099388
17729104576
17729110253
17729116295
17729121361
17729128258
17729132530
17729142113
17729147728
17729152977
17729158226
17729163902
17729169579
17729175865
17729182396
17729189537
17729195335
17729201012
17729206322
17729209373
17729217064
17729224022
17729229393
17729235313
17729241173
17729246666
17729250877
17729258018
17729262291
17729270714
17729275535
17729282310
17729287437
17729293419
17729297447
17729303367
17729309471
17729315452
17729321373
17729327049
17729332420
17729338157
17729343589
17729348411
17729356712
17729362205
17729367942
17729371299
17729378318
17729384422
17729389549
17729392967
17729401512
17729406394
17729412193
17729418907
17729423057
17729429160
17729435020
17729442344
17729447288
17729453330
17729458152
17729464683
17729469016
17729476096
17729483298
17729488731
17729493674
17729499168
17729505210
17729510886
17729516685
17729522727
17729528953
17729533652
17729540122
17729544761
17729552207
17729558310
17729563987
17729567038
17729575400
17729580710
17729590964
17729596213
17729600852
17729610129
17729616355
17729623374
17729630515
17729638755
17729645041
17729651938
17729657981
17729664328
17729671652
17729677634
17729680869
17729689108
17729695517
17729701560
17729707663
17729713950
17729721274
17729726218
17729734152
17729740805
17729746848
17729753989
17729760031
17729765890
17729772116
17729778036
17729785055
17729790121
17729795004
17729804220
17729809775
17729815512
17729822165
17729828390
17729833395
17729839316
17729846518
17729851523
17729858175
17729863485
17729870443
17729876486
17729882284
17729888876
17729893148
17729900900
17729905661
17729912313
17729918783
17729924581
17729930441
17729936178
17729943746
17729948629
17729955953
17729961447
17729967733
17729974142
17729979879
17729986593
17729992636
17729999105
17730006429
17730012228
17730019369
17730025655
17730031332
17730036153
17730043905
17730050741
17730056295
17730063253
17730069418
17730076009
17730083211
17730088766
17730095541
17730100057
17730108602
17730114278
17730120382
17730127401
17730130575
17730137716
17730145284
17730151449
17730157125
17730162801
17730170614
17730174276
17730183309
17730192037
17730196859
17730203939
17730209859
17730215902
17730219319
17730227132
17730234517
17730239949
17730245931
17730251973
17730257772
17730262776
17730268819
17730276082
17730283772
17730287129
17730296163
17730303243
17730307759
17730314473
17730320516
17730326619
17730332784
17730340291
17730345296
17730351643
17730359456
17730365803
17730372517
17730381184
17730386067
17730392293
17730397114
17730403462
17730409993
17730414998
17730422505
17730425862
17730433552
17730439534
17730445393
17730451863
17730458149
17730467366
17730471821
17730479573
17730484395
17730491414
17730496602
17730503254
17730506611
17730515950
17730521748
17730527363
17730532612
17730538166
17730544880
17730549153
17730556294
17730560505
17730567402
17730573872
17730579548
17730585774
17730591145
17730595783
17730603596
17730610371
17730615620
17730621052
17730626789
17730632649
17730639729
17730645771
17730650471
17730657734
17730661274
17730670307
17730673969
17730681538
17730688801
17730694477
17730700275
17730706074
17730712604
17730719135
17730724506
17730730915
17730738971
17730744526
17730757038
17730768451
17730775837
17730781574
17730784870
17730793232
17730800983
17730805683
17730811725
17730816547
17730823017
17730827777
17730835651
17730842853
17730851764
17730858173
17730863788
17730870990
17730875995
17730880573
17730887348
17730890766
17730898395
17730902118
17730909992
17730916522
17730921832
17730926349
17730931476
17730934711
17730941119
17730944232
17730951495
17730958270
17730963519
17730968768
17730973529
17730980121
17730984454
17730990741
17730997516
17731002643
17731007220
17731014178
17731018085
17731026263
17731031573
17731037188
17731042621
17731048114
17731054583
17731059161
17731065753
17731070575
17731076068
17731083087
17731089740
17731094989
17731101214
17731104815
17731112262
17731115680
17731122576
17731128741
17731134539
17731140582
17731146807
17731152056
17731158282
17731163714
17731167987
17731174334
17731179766
17731186846
17731193011
17731197283
17731203021
17731207537
17731211932
17731219317
17731225359
17731230120
17731235003
17731242999
17731246355
17731254900
17731261004
17731266619
17731273028
17731280840
17731288286
17731294878
17731304278
17731309710
17731315264
17731321062
17731326067
17731330645
17731337298
17731342058
17731350115
17731355547
17731361528
17731366106
17731371477
17731378801
17731388018
17731393999
17731400408
17731407061
17731413408
17731416521
17731423906
17731431291
17731436907
17731442644
17731446794
17731452898
17731459368
17731464678
17731470293
17731476274
17731481584
17731488298
17731494341
17731503069
17731508318
17731513628
17731521684
17731526750
17731533952
17731538408
17731543962
17731547502
17731556047
17731559526
17731568742
17731574907
17731581377
17731587297
17731593400
17731599992
17731604509
17731612138
17731618181
17731623369
17731627641
17731634965
17731640031
17731645830
17731650590
17731657548
17731662553
17731670427
17731675615
17731682573
17731686052
17731694596
17731701310
17731706803
17731712297
17731718522
17731724687
17731729509
17731736894
17731741777
17731748490
17731752885
17731759355
17731763932
17731769670
17731774125
17731780229
17731785294
17731790360
17731794877
17731800980
17731804154
17731810746
17731814042
17731821915
17731829789
17731834855
17731841203
17731847245
17731853287
17731858048
17731865189
17731870499
17731877824
17731881119
17731888688
17731892045
17731899003
17731902360
17731909440
17731915360
17731921952
17731927628
17731934159
17731940873
17731945389
17731951188
17731957596
17731964127
17731968461
17731974381
17731979386
17731985611
17731988907
17731996048
17732002274
17732007767
17732013199
17732019364
17732021134
17732031266
17732037003
17732043167
17732048416
17732052872
17732058853
17732063736
17732070999
17732077103
17732083145
17732086685
17732094315
17732098282
17732106400
17732112869
17732119095
17732125015
17732129410
17732135635
17732139725
17732146805
17732151199
17732156509
17732163040
17732168961
17732176956
17732182022
17732188003
17732194961
17732200332
17732206009
17732214248
17732220169
17732225967
17732229996
17732237747
17732243789
17732250076
17732255630
17732260879
17732267471
17732270462
17732278274
17732284011
17732291275
17732297073
17732302200
17732309768
17732314773
17732320266
17732323745
17732332839
17732337661
17732343887
17732350601
17732357131
17732363357
17732370315
17732376846
17732384292
17732389602
17732400710
17732407974
17732413162
17732419875
17732422927
17732431106
17732440688
17732446365
17732455459
17732463576
17732470473
17732476821
17732485793
17732493239
17732499221
17732507827
17732513564
17732517898
17732523513
17732528701
17732534987
17732541335
17732547439
17732555373
17732562636
17732568740
17732576125
17732582106
17732587600
17732593825
17732600783
17732605849
17732612075
17732616713
17732625624
17732631972
17732637831
17732644118
17732649672
17732655104
17732660781
17732667494
17732673903
17732680007
17732686171
17732690993
17732696913
17732701918
17732706130
17732713881
17732720290
17732725295
17732728651
17732734999
17732738478
17732746779
17732752821
17732758681
17732763930
17732769301
17732774672
17732780470
17732785536
17732789992
17732796828
17732803480
17732809157
17732814161
17732820997
17732825758
17732832228
17732838637
17732843214
17732849135
17732854811
17732858229
17732866346
17732872938
17732877577
17732885939
17732890699
17732896742
17732901869
17732908033
17732913160
17732919386
17732924635
17732932081
17732936109
17732944349
17732950880
17732957228
17732963636
17732968397
17732976820
17732981642
17732986707
17732990797
17732995496
17732999342
17733004652
17733009779
17733013868
17733017896
17733022169
17733027357
17733033033
17733037794
17733042738
17733046766
17733050672
17733055494
17733059522
17733063245
17733067213
17733071058
17733075635
17733080152
17733084302
17733087232
17733091260
17733095655
17733099561
17733102796
17733108350
17733112806
17733116590
17733120130
17733124097
17733127759
17733132398
17733137769
17733142591
17733147718
17733151380
17733156507
17733160108
17733165845
17733169263
17733175794
17733178846
17733184705
17733187207
17733191724
17733195142
17733200147
17733205274
17733210584
17733215222
17733219983
17733224500
17733228528
17733233472
17733238721
17733243787
17733247815
17733254773
17733259412
17733264478
17733268811
17733273755
17733278882
17733283826
17733289075
17733292554
17733298047
17733302197
17733307690
17733311780
17733317883
17733322034
17733327588
17733332898
17733338269
17733341382
17733347241
17733352307
17733357251
17733362073
17733366772
17733371655
17733377270
17733382092
17733388745
17733395398
17733401196
17733405469
17733410229
17733414441
17733419262
17733424878
17733429699
17733434033
17733438305
17733443310
17733448132
17733452649
17733457348
17733464062
17733468518
17733473950
17733479443
17733484997
17733490002
17733493359
17733499890
17733505200
17733509533
17733514477
17733518811
17733523144
17733528271
17733532788
17733538891
17733542126
17733548413
17733553112
17733558483
17733562878
17733569164
17733574963
17733579296
17733584728
17733590038
17733595959
17733601086
17733603954
17733611889
17733614880
17733621899
17733627453
17733632763
17733635876
17733643200
17733646008
17733652538
17733655407
17733663158
17733669079
17733674084
17733676891
17733682629
17733687328
17733694774
17733698131
17733706798
17733710460
17733717235
17733720470
17733726818
17733731945
17733736889
17733742443
17733748302
17733754284
17733758617
17733764293
17733769115
17733773388
17733779796
17733783886
17733789745
17733794628
17733801036
17733807933
17733809886
17733817760
17733823070
17733828563
17733831798
17733839427
17733843456
17733850902
17733855907
17733861278
17733866283
17733872264
17733878734
17733886607
17733892589
17733900768
17733910899
17733916820
17733923473
17733929088
17733936290
17733940196
17733945933
17733952220
17733958690
17733964000
17733968761
17733974742
17733979930
17733984447
17733990672
17733996654
17734002818
17734009044
17734013499
17734019175
17734027293
17734034434
17734038463
17734041514
17734049266
17734053721
17734058482
17734065135
17734069163
17734074717
17734078685
17734084422
17734088755
17734094371
17734097361
17734104136
17734109874
17734113597
17734118602
17734123118
17734128916
17734133555
17734136729
17734144786
17734151499
17734156382
17734162242
17734167307
17734171519
17734178660
17734183787
17734189280
17734194590
17734199534
17734205943
17734210764
17734216196
17734222849
17734224986
17734234934
17734240672
17734246409
17734248362
17734258250
17734263743
17734268442
17734272349
17734279490
17734284678
17734290232
17734294199
17734299387
17734303232
17734309702
17734313181
17734322336
17734327524
17734333017
17734338205
17734343882
17734349863
17734354502
17734362742
17734367563
17734373911
17734379038
17734384775
17734389109
17734394724
17734400644
17734406565
17734411142
17734416269
17734421945
17734427622
17734432382
17734440012
17734445139
17734452829
17734458017
17734464609
17734468088
17734474863
17734479440
17734485727
17734492929
17734497812
17734502695
17734508371
17734512705
17734518747
17734524057
17734529367
17734537607
17734544321
17734551584
17734556772
17734561899
17734569650
17734574777
17734579660
17734583932
17734590341
17734596261
17734601205
17734606332
17734611825
17734617441
17734624093
17734629403
17734635568
17734640939
17734647531
17734653085
17734658883
17734664438
17734671884
17734677438
17734683908
17734688485
17734694955
17734700021
17734705941
17734711007
17734714669
17734722848
17734726632
17734732553
17734737435
17734743051
17734749093
17734753366
17734757699
17734767220
17734772164
17734777535
17734782540
17734788827
17734792977
17734797799
17734803964
17734810983
17734815926
17734821725
17734825936
17734832162
17734837044
17734843026
17734848763
17734854439
17734860848
17734863106
17734871041
17734874520
17734881356
17734885262
17734891488
17734896187
17734903267
17734906991
17734912789
17734917367
17734923958
17734928048
17734934212
17734939156
17734945504
17734951668
17734957283
17734963082
17734968514
17734973397
17734976448
17734984810
17734988533
17734998848
17735003182
17735011727
17735018074
17735024178
17735030281
17735035408
17735041695
17735046028
17735051827
17735057442
17735062264
17735068062
17735073006
17735078926
17735084236
17735090950
17735097115
17735101814
17735109688
17735115059
17735121773
17735126961
17735135262
17735140755
17735145821
17735150398
17735155830
17735160591
17735167915
17735173775
17735179878
17735184578
17735190620
17735197334
17735199409
17735207710
17735211128
17735219490
17735226265
17735231086
17735234810
17735242256
17735245918
17735253669
17735257148
17735264656
17735268806
17735276374
17735281623
17735286567
17735291450
17735296211
17735302253
17735304023
17735312080
17735314094
17735323554
17735328681
17735335578
17735341499
17735346992
17735351692
17735356513
17735359565
17735369514
17735375556
17735380683
17735384040
17735390876
17735394477
17735400947
17735405830
17735412482
17735416023
17735422980
17735428352
17735432563
17735438239
17735443366
17735449348
17735455390
17735460090
17735465888
17735470344
17735476630
17735481574
17735487739
17735492866
17735499518
17735505744
17735512214
17735516547
17735522468
17735527594
17735534003
17735538154
17735543891
17735549384
17735554511
17735559882
17735564277
17735572089
17735577521
17735584906
17735591315
17735599189
17735605414
17735609137
17735614936
17735619879
17735626227
17735630377
17735637824
17735642157
17735648871
17735652594
17735659369
17735663092
17735670416
17735674506
17735682501
17735689032
17735697821
17735702582
17735708563
17735710699
17735719489
17735725043
17735731146
17735736761
17735742438
17735746222
17735753119
17735759222
17735763678
17735770087
17735775397
17735782049
17735787359
17735793707
17735797491
17735804815
17735808172
17735817694
17735821173
17735828375
17735831610
17735839056
17735843329
17735849798
17735853582
17735862432
17735867010
17735872076
17735878302
17735883856
17735887945
17735895452
17735899420
17735908819
17735913458
17735920599
17735924078
17735930487
17735934027
17735941351
17735946111
17735952642
17735957220
17735963751
17735968206
17735975103
17735979559
17735985418
17735991094
17735997808
17736003790
17736009466
17736014593
17736017828
17736025579
17736029058
17736036443
17736041204
17736047185
17736052557
17736058843
17736064764
17736070684
17736075689
17736081426
17736086309
17736092473
17736100286
17736106206
17736111822
17736118718
17736125188
17736131780
17736139470
17736146917
17736148992
17736161260
17736170476
17736177495
17736185735
17736195928
17736205205
17736211370
17736222661
17736230107
17736239507
17736247258
17736250554
17736263921
17736274297
17736282842
17736288030
17736296574
17736305302
17736314275
17736320073
17736322697
17736334233
17736339238
17736348515
17736353276
17736361333
17736365117
17736373723
17736377446
17736384831
17736388310
17736396184
17736400090
17736407719
17736411686
17736419377
17736425175
17736431096
17736436467
17736442387
17736445866
17736451786
17736457768
17736463749
17736466069
17736473759
17736476872
17736484257
17736487126
17736495426
17736500798
17736507206
17736512760
17736518681
17736523014
17736529423
17736533512
17736541691
17736547672
17736554386
17736560490
17736565495
17736571293
17736576786
17736582951
17736588322
17736594791
17736600468
17736605839
17736611515
17736613346
17736620914
17736624088
17736631229
17736637821
17736644352
17736650272
17736656620
17736661014
17736666813
17736672428
17736677311
17736682560
17736690311
17736695072
17736701175
17736706302
17736711002
17736717228
17736723148
17736727604
17736734745
17736739566
17736742801
17736750858
17736754398
17736762333
17736767276
17736772892
17736777835
17736784793
17736790164
17736795291
17736802310
17736807071
17736812198
17736819339
17736824832
17736832523
17736838077
17736845889
17736850589
17736856326
17736860172
17736864993
17736871463
17736876407
17736882816
17736886173
17736893375
17736897830
17736903323
17736908084
17736914005
17736918399
17736932864
17736939456
17736945499
17736951663
17736957217
17736961612
17736967349
17736973208
17736978824
17736983157
17736988528
17736993106
17736998782
17737005069
17737009341
17737014712
17737020633
17737026492
17737030642
17737036563
17737041201
17737045779
17737052005
17737057742
17737065615
17737069278
17737075808
17737079043
17737086123
17737091311
17737096377
17737100894
17737111087
17737115481
17737123416
17737126834
17737134219
17737138674
17737143679
17737149905
17737156985
17737160159
17737166873
17737173403
17737178347
17737182620
17737188601
17737194766
17737201785
17737207949
17737213625
17737219302
17737225649
17737230044
17737236025
17737240420
17737243655
17737254946
17737260561
17737265261
17737270937
17737277407
17737280581
17737288149
17737293581
17737300417
17737306093
17737312075
17737316958
17737322390
17737327150
17737333742
17737338259
17737341921
17737351381
17737357119
17737363527
17737368410
17737374392
17737377871
17737385012
17737388552
17737397402
17737404116
17737411135
17737420656
17737425539
17737434633
17737439821
17737445009
17737450685
17737456423
17737460695
17737466066
17737471986
17737473818
17737483644
17737489748
17737494447
17737498598
17737505800
17737509157
17737517702
17737522279
17737529359
17737535585
17737541566
17737546937
17737552431
17737557741
17737562257
17737565492
17737573183
17737575136
17737584962
17737589845
17737594850
17737598817
17737603822
17737608095
17737613099
17737616578
17737625856
17737632081
17737636781
17737641481
17737646791
17737652040
17737656861
17737663148
17737670228
17737675294
17737679994
17737684510
17737689820
17737695985
17737701234
17737705812
17737712098
17737717713
17737723023
17737727662
17737733155
17737739564
17737743348
17737748353
17737753480
17737761659
17737765504
17737771790
17737774537
17737782716
17737787415
17737793153
17737797852
17737805543
17737811402
17737815797
17737822449
17737827271
17737831422
17737837647
17737842591
17737848450
17737852967
17737859376
17737863587
17737869202
17737874024
17737879090
17737884583
17737889283
17737896851
17737900757
17737907349
17737911011
17737918519
17737923462
17737928406
17737934815
17737942200
17737946045
17737952088
17737958802
17737965149
17737970887
17737978455
17737986267
17737993347
17737998902
17738004639
17738011109
17738015625
17738020630
17738026612
17738031067
17738039795
17738044434
17738050171
17738055176
17738060852
17738066223
17738070618
17738076782
17738081421
17738089356
17738095154
17738101563
17738107727
17738114319
17738120483
17738125488
17738131470
17738137329
17738142578
17738148193
17738154480
17738159363
17738162842
17738170532
17738173889
17738181396
17738185241
17738191589
17738195190
17738202392
17738207092
17738212219
17738217468
17738224182
17738229614
17738234375
17738240722
17738245605
17738250488
17738254821
17738261169
17738267211
17738271789
17738277832
17738282653
17738288024
17738293579
17738297973
17738303955
17738307861
17738315978
17738319763
17738327148
17738330505
17738336852
17738342224
17738348388
17738351440
17738360656
17738364562
17738371581
17738375121
17738380798
17738386169
17738391418
17738395751
17738403014
17738408508
17738413879
17738418822
17738425048
17738432006
17738434325
17738443175
17738450194
17738459411
17738464355
17738472106
17738478271
17738481078
17738491576
17738496947
17738505675
17738513427
17738521422
17738529174
17738537780
17738545592
17738551146
17738557921
17738565856
17738571288
17738582274
17738587767
17738599120
17738606505
17738616942
17738626586
17738634886
17738641844
17738651610
17738659544
17738662413
17738673033
17738677550
17738686644
17738691283
17738701720
17738709532
17738717345
17738724364
17738732054
17738739195
17738744932
17738754637
17738762877
17738771483
17738778258
17738791441
17738796507
17738807982
17738812803
17738822325
17738828978
17738831480
17738844114
17738847776
17738855589
17738860167
17738873350
17738878477
17738881895
17738894285
17738899839
17738911558
17738917784
17738928404
17738933897
17738944334
17738953367
17738960264
17738967832
17738975889
17738979734
17738993040
17738999204
17739007322
17739015806
17739022825
17739029600
17739040037
17739048215
17739056760
17739060422
17739072446
17739079343
17739088132
17739097104
17739105588
17739113523
17739121885
17739129148
17739137265
17739145322
17739153684
17739161496
17739169370
17739172605
17739183835
17739192807
17739201718
17739206540
17739216001
17739222775
17739227841
17739238278
17739242673
17739256162
17739263852
17739266843
17739278195
17739283139
17739291013
17739297360
17739302487
17739310117
17739318600
17739325375
17739334103
17739339535
17739345395
17739353573
17739359921
17739365048
17739374325
17739382504
17739393185
17739398800
17739408566
17739416073
17739421933
17739429745
17739437130
17739444699
17739452206
17739460202
17739471615
17739477230
17739480587
17739495114
17739498348
17739508419
17739521969
17739529537
17739539120
17739551937
17739559445
17739568173
17739577023
17739584164
17739590755
17739599239
17739605282
17739609493
17739619015
17739624325
17739630733
17739634212
17739641903
17739645321
17739652828
17739658077
17739665462
17739670101
17739678646
17739685543
17739693783
17739699459
17739704708
17739709469
17739717830
17739722225
17739728084
17739734188
17739738338
17739745235
17739750362
17739755184
17739758602
17739768734
17739773006
17739779171
17739782955
17739790279
17739793880
17739799434
17739804561
17739811092
17739816463
17739822811
17739828060
17739833125
17739837825
17739842830
17739847469
17739853694
17739858394
17739864131
17739871150
17739875728
17739882930
17739884639
17739892574
17739898250
17739905635
17739909724
17739917415
17739923030
17739928706
17739934077
17739941890
17739946895
17739952815
17739960017
17739962214
17739971248
17739976191
17739982356
17739986384
17739994563
17740000544
17740006831
17740013240
17740018306
17740022883
17740027461
17740034236
17740038569
17740042842
17740049372
17740055537
17740061824
17740066340
17740078730
17740083491
17740089533
17740095393
17740100764
17740107112
17740112666
17740118830
17740123347
17740128657
17740133662
17740138728
17740142146
17740151057
17740158686
17740164790
17740179865
17740191157
17740199580
17740207453
17740211848
17740218867
17740225153
17740230219
17740235163
17740241205
17740248163
17740252436
17740259638
17740264765
17740271540
17740277094
17740284723
17740291559
17740297419
17740301386
17740309198
17740314875
17740319086
17740324640
17740329706
17740334711
17740340326
17740347040
17740350946
17740357050
17740361200
17740365534
17740369562
17740376093
17740379511
17740387018
17740390314
17740396906
17740402460
17740406793
17740412226
17740417963
17740424127
17740428583
17740433283
17740439203
17740444513
17740449213
17740456781
17740460382
17740466791
17740471552
17740479120
17740482233
17740488275
17740491266
17740498773
17740505243
17740510919
17740514825
17740520257
17740525201
17740528436
17740535699
17740541192
17740547784
17740552118
17740557062
17740562311
17740567010
17740572870
17740575982
17740583795
17740590265
17740595147
17740601739
17740605706
17740608880
17740615777
17740619012
17740627130
17740633599
17740638910
17740647332
17740653802
17740661492
17740666070
17740672784
17740677606
17740684136
17740688409
17740695062
17740699883
17740707086
17740711785
17740719842
17740726678
17740732049
17740738397
17740743646
17740749017
17740753838
17740759393
17740761102
17740770562
17740775506
17740781182
17740786736
17740791253
17740796380
17740801934
17740808587
17740813775
17740820489
17740826104
17740833306
17740839287
17740845330
17740850640
17740852776
17740862298
17740867486
17740872918
17740878289
17740882622
17740888909
17740894890
17740900139
17740905938
17740910820
17740916253
17740920708
17740926079
17740929192
17740936455
17740942131
17740946282
17740951104
17740958001
17740961235
17740967766
17740972344
17740978569
17740984062
17740989250
17740993584
17741000481
17741005486
17741011101
17741016899
17741021843
17741028191
17741031548
17741041008
17741046928
17741051628
17741056999
17741062859
17741067802
17741073296
17741080254
17741088005
17741093559
17741098564
17741102959
17741109428
17741114006
17741119438
17741125358
17741131157
17741137810
17741143608
17741147941
17741151359
17741159111
17741164116
17741170097
17741175224
17741182976
17741188286
17741193657
17741198173
17741204948
17741209404
17741216240
17741220573
17741227470
17741233451
17741239738
17741244316
17741250480
17741256279
17741260002
17741266471
17741272087
17741279411
17741285514
17741293510
17741298637
17741304191
17741311881
17741319633
17741323722
17741330985
17741334953
17741342399
17741346122
17741353629
17741358939
17741364616
17741370475
17741378959
17741383720
17741388847
17741393974
17741401725
17741406425
17741414054
17741419791
17741427787
17741433036
17741439628
17741445487
17741450248
17741457145
17741461905
17741465384
17741474540
17741476676
17741486197
17741489982
17741497611
17741501456
17741508841
17741514762
17741522574
17741528189
17741532279
17741536795
17741543631
17741549186
17741551200
17741558219
17741565787
17741572135
17741577262
17741581900
17741588431
17741592581
17741595877
17741602896
17741606314
17741615164
17741619010
17741625296
17741631278
17741637381
17741642203
17741648367
17741653372
17741659537
17741664664
17741670340
17741675772
17741681387
17741685477
17741690482
17741696646
17741702689
17741709219
17741714041
17741718985
17741725333
17741729666
17741732962
17741740591
17741744436
17741751944
17741758719
17741764090
17741767508
17741773611
17741778921
17741785086
17741789724
17741796866
17741801931
17741806997
17741812185
17741818899
17741823477
17741829336
17741836782
17741839102
17741850698
17741856924
17741864309
17741869070
17741876882
17741883962
17741891775
17741900198
17741907400
17741919607
17741924551
17741939199
17741944692
17741954519
17741962392
17741965505
17741975454
17741982473
17741994619
17742004262
17742012563
17742020681
17742026723
17742038198
17742045888
17742054250
17742061208
17742068410
17742076894
17742084096
17742098012
17742107900
17742115529
17742123525
17742132863
17742139089
17742143666
17742156057
17742160695
17742170644
17742179311
17742187612
17742194203
17742201467
17742208425
17742215383
17742218434
17742232716
17742239247
17742248525
17742256215
17742262502
17742270070
17742277943
17742287587
17742294728
17742301625
17742313527
17742316456
17742327138
17742334584
17742341420
17742348500
17742353749
17742364369
17742369801
17742378590
17742385670
17742393849
17742402150
17742404774
17742415883
17742420094
17742428151
17742436268
17742443837
17742453358
17742460316
17742466419
17742473194
17742478871
17742484852
17742492176
17742499623
17742506642
17742518421
17742525746
17742530933
17742537037
17742545033
17742551075
17742556263
17742565174
17742572376
17742579639
17742586781
17742595936
17742602405
17742607532
17742615223
17742622181
17742631946
17742640430
17742647632
17742656788
17742665699
17742673938
17742681812
17742685291
17742697254
17742705249
17742712879
17742721485
17742725025
17742737537
17742745777
17742753345
17742760181
17742768787
17742775562
17742780628
17742789051
17742795520
17742805347
17742813037
17742821033
17742827930
17742836902
17742844287
17742850513
17742864063
17742871753
17742879016
17742885669
17742891589
17742899036
17742907153
17742914844
17742920947
17742926745
17742931811
17742944446
17742949634
17742958240
17742965381
17742970691
17742976367
17742986682
17742999987
17743008960
17743017382
17743025317
17743030749
17743035449
17743044177
17743048999
17743055834
17743061145
17743068164
17743074084
17743080187
17743084887
17743090380
17743095141
17743101550
17743105883
17743112292
17743116992
17743123461
17743128588
17743134264
17743138293
17743144457
17743149401
17743152758
17743160510
17743164172
17743172228
17743177416
17743183947
17743187975
17743193957
17743197192
17743207262
17743211901
17743218249
17743221178
17743228564
17743232531
17743238878
17743243578
17743249621
17743254748
17743260485
17743265734
17743271166
17743275438
17743281054
17743285936
17743293810
17743298998
17743305773
17743310534
17743316942
17743321276
17743325914
17743331469
17743337816
17743343859
17743348864
17743353441
17743356920
17743364916
17743368456
17743375231
17743381029
17743388536
17743392748
17743399462
17743404650
17743409960
17743414720
17743421007
17743427538
17743434801
17743440843
17743446153
17743452135
17743456957
17743462755
17743466356
17743475023
17743482957
17743488451
17743491991
17743502061
17743508287
17743513353
17743519212
17743525499
17743529466
17743538133
17743542894
17743549180
17743554124
17743560899
17743566514
17743572435
17743577989
17743584092
17743589341
17743596605
17743604356
17743610337
17743616014
17743623826
17743632371
17743636460
17743643296
17743647081
17743655137
17743658982
17743665513
17743670945
17743678575
17743684007
17743690415
17743694200
17743700852
17743706223
17743712205
17743717088
17743725022
17743730393
17743735764
17743740464
17743745652
17743753953
17743758836
17743765672
17743772568
17743778245
17743783555
17743788743
17743794968
17743800034
17743806626
17743811143
17743817979
17743824570
17743829636
17743835679
17743839219
17743845933
17743849534
17743857468
17743862473
17743871201
17743873398
17743883530
17743887864
17743894700
17743899704
17743904160
17743910996
17743916245
17743921616
17743927536
17743933396
17743938645
17743944992
17743949143
17743955063
17743958603
17743969040
17743975510
17743980393
17743983750
17743991257
17743996689
17744002304
17744007858
17744014145
17744021225
17744025375
17744031662
17744035873
17744042465
17744048386
17744052780
17744056442
17744066269
17744070175
17744079086
17744082809
17744089828
17744095749
17744104904
17744109482
17744118027
17744122055
17744128586
17744134018
17744139633
17744144760
17744150070
17744154770
17744161728
17744168014
17744173446
17744178451
17744184127
17744189926
17744193588
17744202987
17744207687
17744215988
17744220016
17744227951
17744231369
17744239181
17744244125
17744249923
17744255111
17744262191
17744267562
17744272811
17744279037
17744284469
17744289169
17744294845
17744300582
17744307296
17744312362
17744319442
17744324020
17744327682
17744334945
17744338180
17744345565
17744350692
17744357040
17744363876
17744368209
17744373153
17744379134
17744385665
17744389876
17744395980
17744403609
17744408553
17744415084
17744419417
17744425216
17744431624
17744436629
17744442550
17744448348
17744454818
17744460372
17744464766
17744469588
17744475264
17744480697
17744487288
17744492232
17744499190
17744504622
17744509871
17744515792
17744521163
17744525496
17744528731
17744537215
17744540633
17744548323
17744552169
17744559798
17744563460
17744570296
17744575789
17744580794
17744585616
17744592452
17744597823
17744603560
17744609847
17744614913
17744619429
17744630843
17744636763
17744643904
17744650740
17744657820
17744662947
17744671553
17744676802
17744684553
17744691267
17744696638
17744706465
17744709578
17744720198
17744726729
17744732588
17744736311
17744746626
17744750410
17744760298
17744764509
17744773054
17744778303
17744784590
17744788679
17744797712
17744801802
17744809919
17744817183
17744822004
17744828962
17744834761
17744839338
17744843000
17744849531
17744853620
17744858137
17744863203
17744867536
17744871626
17744876020
17744879865
17744886823
17744892927
17744898847
17744900739
17744909345
17744912824
17744919660
17744926313
17744932539
17744937360
17744943037
17744946943
17744954145
17744959028
17744964887
17744970319
17744975690
17744982526
17744987653
17744992597
17744999189
17745004255
17745011274
17745017560
17745022504
17745028608
17745034589
17745039167
17745045637
17745050519
17745057050
17745062055
17745068647
17745075483
17745081647
17745086469
17745092389
17745096967
17745102948
17745109113
17745112531
17745121381
17745126813
17745132856
17745138166
17745143109
17745146527
17745155133
17745160443
17745167523
17745172894
17745178754
17745184003
17745189435
17745193524
17745199994
17745203778
17745211896
17745215680
17745223370
17745227399
17745234479
17745238080
17745245709
17745249310
17745257123
17745263226
17745269391
17745275189
17745281171
17745286786
17745293622
17745299237
17745306012
17745311017
17745317181
17745320599
17745327435
17745331280
17745337750
17745343548
17745349713
17745354962
17745361676
17745367047
17745372662
17745377179
17745384137
17745391400
17745400006
17745405011
17745412091
17745415692
17745422039
17745428448
17745433941
17745438763
17745444866
17745451458
17745455792
17745461895
17745467144
17745473004
17745477703
17745483929
17745487774
17745497601
17745501324
17745508343
17745513958
17745519207
17745523968
17745529827
17745534161
17745542583
17745548016
17745553875
17745558392
17745565105
17745569439
17745575970
17745582195
17745588543
17745595196
17745600506
17745605694
17745613811
17745618511
17745621990
17745629741
17745635052
17745641521
17745645305
17745651714
17745657268
17745663555
17745668071
17745674236
17745680095
17745685039
17745691997
17745697551
17745703777
17745708782
17745713237
17745716838
17745725383
17745729167
17745736614
17745741924
17745748638
17745753887
17745758281
17745764568
17745769084
17745775188
17745781536
17745788371
17745790264
17745799480
17745804790
17745810771
17745815044
17745821513
17745825053
17745834331
17745838237
17745846172
17745851726
17745856486
17745861980
17745868816
17745876811
17745884441
17745891582
17745898601
17745903239
17745910441
17745916667
17745922587
17745926921
17745930400
17745940043
17745944194
17745951762
17745957438
17745965678
17745969767
17745978251
17745982158
17745989360
17745994609
17746003154
17746007731
17746016948
17746021586
17746030314
17746033915
17746043009
17746047038
17746053446
17746058207
17746064067
17746068949
17746076151
17746080607
17746087748
17746092326
17746097941
17746104044
17746110087
17746114481
17746119669
17746126017
17746129557
17746138895
17746142863
17746150126
17746153483
17746160380
17746165446
17746171305
17746175577
17746186137
17746191691
17746196696
17746201578
17746206583
17746212748
17746217997
17746223734
17746228861
17746235758
17746242289
17746247965
17746253092
17746258890
17746262491
17746269693
17746275309
17746283060
17746287210
17746294474
17746299417
17746305155
17746310160
17746315897
17746321817
17746326334
17746332926
17746338541
17746344644
17746349405
17746355753
17746359354
17746366190
17746371622
17746378214
17746383890
17746390360
17746395303
17746400980
17746405435
17746412027
17746416483
17746422098
17746428751
17746434854
17746441934
17746446451
17746454202
17746458475
17746466653
17746471902
17746480264
17746485635
17746493143
17746498453
17746505044
17746513894
17746520486
17746526834
17746537271
17746542215
17746547403
17746553384
17746559793
17746564065
17746569680
17746575052
17746578103
17746586160
17746589456
17746596658
17746600198
17746606790
17746612405
17746620278
17746626809
17746635476
17746642190
17746649270
17746655313
17746662148
17746665322
17746674355
17746679605
17746686868
17746693459
17746700478
17746705972
17746712380
17746717934
17746723428
17746728555
17746735757
17746742104
17746747659
17746752724
17746758218
17746762856
17746769143
17746771889
17746779702
17746783669
17746792275
17746795754
17746803139
17746806313
17746815407
17746818825
17746828042
17746832985
17746838479
17746842446
17746848916
17746852517
17746861245
17746864663
17746873574
17746877358
17746884255
17746889443
17746895424
17746900246
17746905800
17746910378
17746918740
17746923745
17746929726
17746935585
17746941262
17746945717
17746952126
17746957131
17746964882
17746971291
17746977028
17746981362
17746986366
17746992958
17746998940
17747004433
17747009438
17747017311
17747022621
17747027016
17747033791
17747039162
17747043617
17747050026
17747054604
17747062050
17747068153
17747073036
17747079384
17747085426
17747090309
17747094093
17747100929
17747106850
17747116676
17747120949
17747130470
17747134804
