17359026910
17359030450
17359033807
17359037225
17359040399
17359043878
17359046991
17359050470
17359053644
17359057367
17359060785
17359066095
17359070734
17359074518
17359078607
17359082269
17359086969
17359091485
17359096490
17359101251
17359106927
17359112542
17359121698
17359127862
17359132623
17359139520
17359146783
17359152398
17359159600
17359165582
17359172845
17359178765
17359186517
17359196588
17359204827
17359212030
17359219232
17359226922
17359234368
17359243096
17359250543
17359258416
17359266961
17359271539
17359280938
17359290521
17359297967
17359306451
17359313348
17359321831
17359329400
17359338006
17359345208
17359352288
17359361687
17359371514
17359378899
17359386895
17359395806
17359403252
17359411309
17359417717
17359425164
17359430779
17359439507
17359449089
17359457512
17359465569
17359473809
17359481316
17359487786
17359495415
17359503044
17359511406
17359518975
17359527214
17359533318
17359543083
17359550652
17359557854
17359566887
17359573357
17359583916
17359592156
17359599602
17359606438
17359613823
17359621635
17359628410
17359635735
17359640861
17359648308
17359656608
17359665275
17359669121
17359677421
17359683403
17359691704
17359695610
17359706657
17359717216
17359725639
17359735649
17359743950
17359752555
17359761467
17359770195
17359778678
17359789970
17359795890
17359805900
17359810539
17359822013
17359829826
17359835380
17359844230
17359850395
17359858146
17359867301
17359875663
17359882621
17359894828
17359904960
17359911857
17359921683
17359926017
17359936698
17359947013
17359952689
17359960502
17359968497
17359975944
17359982291
17359991446
17359998527
17360008048
17360015860
17360023063
17360030021
17360037284
17360045523
17360052848
17360061576
17360067618
17360073844
17360081412
17360088797
17360094413
17360102347
17360108573
17360117362
17360125113
17360131827
17360139029
17360145804
17360152823
17360160147
17360167777
17360175528
17360181693
17360189017
17360196463
17360202017
17360209586
17360215628
17360224295
17360228628
17360237906
17360246451
17360253653
17360260245
17360267447
17360276297
17360284109
17360290091
17360295889
17360305594
17360312124
17360320425
17360327322
17360337332
17360342215
17360352041
17360358511
17360366995
17360373526
17360382070
17360389028
17360399343
17360407217
17360415762
17360424856
17360434744
17360444326
17360451711
17360460378
17360467825
17360480703
17360488699
17360497366
17360506216
17360513845
17360520620
17360528371
17360535635
17360544424
17360550039
17360558950
17360565053
17360574209
17360580251
17360590139
17360598501
17360605886
17360613393
17360621328
17360627858
17360635488
17360642385
17360647817
17360656240
17360663930
17360671315
17360680898
17360689382
17360697805
17360705129
17360712331
17360719655
17360726857
17360734365
17360743398
17360751210
17360758168
17360765920
17360772939
17360778981
17360788380
17360795033
17360803822
17360810658
17360817738
17360825490
17360833058
17360837208
17360848744
17360857350
17360863209
17360871693
17360879750
17360887440
17360893544
17360901112
17360907338
17360916127
17360922780
17360932667
17360939991
17360949513
17360956715
17360964772
17360972340
17360983815
17360991200
17360998341
17361007801
17361014881
17361026539
17361035694
17361044361
17361055531
17361060780
17361070667
17361079151
17361087269
17361093983
17361103138
17361110645
17361118153
17361126759
17361133839
17361142017
17361150257
17361159717
17361168018
17361178638
17361187183
17361199451
17361208851
17361217518
17361229725
17361238330
17361247608
17361254871
17361262317
17361270374
17361278553
17361286426
17361294178
17361301868
17361309864
17361318897
17361326282
17361335193
17361343494
17361350269
17361358386
17361365711
17361371753
17361380786
17361388355
17361397083
17361405811
17361412097
17361419727
17361427112
17361434619
17361442187
17361448840
17361455859
17361463306
17361470019
17361475696
17361484607
17361492602
17361499072
17361507983
17361514941
17361521228
17361527453
17361537158
17361542651
17361554248
17361562548
17361569690
17361575366
17361582385
17361587268
17361594409
17361600451
17361606494
17361612353
17361618273
17361623400
17361629931
17361635851
17361640490
17361646838
17361651476
17361658679
17361665209
17361671130
17361678271
17361683825
17361689867
17361695666
17361701586
17361706408
17361712511
17361719469
17361724840
17361730578
17361736254
17361742113
17361747790
17361753527
17361759203
17361765673
17361771227
17361777941
17361784105
17361790209
17361795641
17361802843
17361811327
17361817431
17361823717
17361829943
17361835375
17361842272
17361847826
17361855150
17361860826
17361864305
17361871141
17361877123
17361882433
17361888597
17361892870
17361900133
17361904772
17361911913
17361916735
17361923326
17361927904
17361932970
17361937547
17361944322
17361950182
17361955797
17361961473
17361966722
17361971727
17361977159
17361982591
17361988268
17361993883
17361998888
17362005663
17362010545
17362015977
17362022935
17362028856
17362032274
17362039781
17362045640
17362050767
17362055528
17362061143
17362068895
17362073289
17362079820
17362084947
17362090806
17362095750
17362102098
17362109056
17362115220
17362120713
17362126146
17362130845
17362136094
17362141465
17362147874
17362153855
17362158921
17362164354
17362170640
17362176194
17362181016
17362187242
17362195420
17362199815
17362205918
17362211106
17362216477
17362220689
17362227281
17362233628
17362238877
17362243577
17362249375
17362253831
17362259080
17362265733
17362271165
17362277085
17362281113
17362286973
17362292710
17362298081
17362303696
17362309434
17362314927
17362320542
17362327073
17362333726
17362338975
17362345994
17362351731
17362357834
17362364121
17362370530
17362377427
17362382126
17362388840
17362392808
17362398240
17362405320
17362410874
17362416245
17362422348
17362426987
17362434555
17362440415
17362446396
17362453171
17362457749
17362464157
17362468247
17362474839
17362479599
17362486252
17362491623
17362498215
17362501694
17362508530
17362511826
17362518723
17362522019
17362530075
17362536789
17362541123
17362547653
17362551743
17362558640
17362563828
17362570358
17362577377
17362583664
17362588425
17362594650
17362600388
17362604538
17362611130
17362615585
17362622299
17362626999
17362633407
17362638962
17362644028
17362648910
17362655746
17362659836
17362666366
17362671921
17362677719
17362683456
17362689071
17362694565
17362698776
17362704635
17362710495
17362715500
17362721969
17362727096
17362731491
17362739242
17362745529
17362750839
17362756454
17362762435
17362767746
17362773178
17362779159
17362783798
17362790206
17362795516
17362802108
17362806930
17362812911
17362818099
17362823409
17362828597
17362833724
17362839034
17362845016
17362850143
17362857467
17362864242
17362870406
17362876937
17362880599
17362890792
17362896651
17362902694
17362909408
17362915816
17362921432
17362927596
17362933333
17362939315
17362944137
17362950301
17362957931
17362962935
17362969161
17362975570
17362980208
17362985579
17362991500
17362995406
17363003158
17363009505
17363015853
17363021224
17363026290
17363032821
17363038375
17363043624
17363050338
17363055892
17363060530
17363065840
17363071822
17363078353
17363086653
17363091780
17363097640
17363103072
17363107527
17363115462
17363121626
17363128096
17363132674
17363139388
17363144209
17363149703
17363155318
17363161116
17363166121
17363173201
17363178267
17363183394
17363188948
17363195906
17363201155
17363207503
17363214217
17363219832
17363225630
17363231001
17363238325
17363244063
17363248091
17363253584
17363259321
17363265669
17363271467
17363275923
17363282881
17363288252
17363293745
17363299910
17363304548
17363311995
17363315474
17363321882
17363328596
17363332563
17363338667
17363344709
17363350019
17363357161
17363362348
17363370222
17363376631
17363383406
17363394331
17363400923
17363407636
17363413069
17363417829
17363423933
17363429487
17363433698
17363440901
17363446027
17363451276
17363456648
17363462873
17363469343
17363475080
17363482648
17363488386
17363493208
17363500715
17363507612
17363513288
17363518415
17363524946
17363530683
17363538190
17363544965
17363549543
17363556440
17363562726
17363567975
17363576215
17363581769
17363588178
17363595136
17363599958
17363605695
17363613874
17363620588
17363626447
17363632856
17363638532
17363643293
17363649457
17363656293
17363661664
17363669232
17363674970
17363680158
17363686383
17363692182
17363697736
17363703534
17363709638
17363712689
17363720746
17363726056
17363731366
17363738629
17363744306
17363749799
17363754254
17363760541
17363765973
17363772565
17363778241
17363784161
17363789044
17363793439
17363801129
17363806195
17363811200
17363817975
17363823773
17363829755
17363834027
17363840741
17363847027
17363854596
17363863812
17363870526
17363875592
17363884381
17363891217
17363897748
17363905072
17363911175
17363916668
17363922406
17363927960
17363934063
17363940228
17363947247
17363952130
17363959088
17363962384
17363970928
17363976788
17363982708
17363989056
17363995098
17364000103
17364004803
17364012982
17364019451
17364025799
17364033123
17364038983
17364044842
17364047833
17364056011
17364060650
17364065655
17364073895
17364078472
17364085125
17364092022
17364097210
17364103008
17364108440
17364115704
17364121929
17364126446
17364133160
17364138164
17364143596
17364148723
17364155803
17364160076
17364165996
17364172405
17364177410
17364183147
17364188579
17364195354
17364200054
17364205791
17364210064
17364217510
17364223980
17364230144
17364238262
17364243084
17364250591
17364257122
17364263042
17364269023
17364273784
17364282085
17364287151
17364292400
17364297954
17364303386
17364308757
17364316509
17364322124
17364328655
17364333537
17364338970
17364344280
17364350566
17364355266
17364363384
17364373088
17364380473
17364390300
17364395000
17364405742
17364414226
17364420207
17364426555
17364432353
17364438090
17364443645
17364448161
17364455485
17364461040
17364466228
17364471965
17364478007
17364483867
17364489055
17364495463
17364501078
17364506205
17364512492
17364518412
17364523600
17364529765
17364535197
17364540812
17364546000
17364551188
17364556987
17364562602
17364568156
17364573954
17364579081
17364585185
17364589579
17364597270
17364603190
17364608927
17364615214
17364619669
17364625956
17364632487
17364637919
17364644267
17364648295
17364655192
17364660319
17364666483
17364669962
17364678873
17364684977
17364689433
17364696390
17364702738
17364708231
17364713236
17364719034
17364725565
17364730692
17364736552
17364742533
17364746866
17364754618
17364760111
17364767740
17364773478
17364781229
17364787455
17364793009
17364800760
17364806070
17364813273
17364819193
17364827005
17364833353
17364836588
17364844400
17364850016
17364855265
17364861429
17364867655
17364873575
17364882547
17364890665
17364899149
17364906290
17364914346
17364924539
17364929849
17364935159
17364940958
17364947427
17364952737
17364957376
17364962869
17364972635
17364976663
17364984720
17364990762
17364995767
17365001443
17365006509
17365012674
17365018045
17365023843
17365028177
17365033670
17365040140
17365044656
17365051065
17365055276
17365061319
17365065896
17365072793
17365079324
17365084207
17365091958
17365096963
17365104776
17365111428
17365116739
17365122110
17365128396
17365134744
17365138955
17365146035
17365152200
17365157510
17365163613
17365168923
17365176675
17365183633
17365189004
17365194741
17365199075
17365206277
17365212380
17365217996
17365223794
17365230813
17365237161
17365243569
17365249001
17365254739
17365259988
17365267007
17365271340
17365277871
17365281106
17365288918
17365294839
17365300637
17365306435
17365311257
17365318337
17365323891
17365329507
17365335793
17365341042
17365346963
17365352761
17365358681
17365364480
17365370217
17365376076
17365381691
17365389382
17365394265
17365400795
17365409096
17365415932
17365419655
17365430336
17365438393
17365445473
17365450844
17365456032
17365461647
17365468544
17365474770
17365480141
17365485939
17365491677
17365496254
17365503212
17365509560
17365514992
17365520485
17365526405
17365532082
17365537392
17365543678
17365549477
17365556130
17365562416
17365568337
17365572792
17365579201
17365583778
17365590614
17365595375
17365602577
17365608559
17365613991
17365619179
17365624733
17365630714
17365638161
17365644020
17365648598
17365655250
17365660316
17365666664
17365673317
17365679176
17365685096
17365690468
17365696449
17365700843
17365708839
17365713295
17365719276
17365725441
17365731666
17365736488
17365743141
17365747657
17365754005
17365758644
17365764686
17365769325
17365777992
17365782997
17365788368
17365794532
17365798683
17365805335
17365811012
17365816810
17365821632
17365828773
17365833717
17365840064
17365845863
17365851234
17365858253
17365863990
17365870155
17365875648
17365880958
17365886390
17365892432
17365898780
17365904822
17365909766
17365915992
17365920753
17365928382
17365933753
17365943824
17365951392
17365962256
17365968909
17365975745
17365982398
17365989600
17365995154
17366000831
17366006690
17366012305
17366018225
17366024085
17366029639
17366034583
17366040686
17366047522
17366052527
17366058814
17366064673
17366070899
17366076514
17366080786
17366086035
17366091284
17366096472
17366102027
17366109168
17366116004
17366121253
17366128394
17366134375
17366139441
17366145178
17366149695
17366157813
17366162207
17366168005
17366173682
17366178503
17366183325
17366190039
17366196753
17366201941
17366207312
17366213049
17366219214
17366224524
17366232825
17366238623
17366246069
17366249914
17366256811
17366263403
17366269262
17366274756
17366280249
17366287268
17366291784
17366297949
17366302649
17366310217
17366315100
17366320471
17366328039
17366332678
17366339086
17366343725
17366351538
17366356359
17366362463
17366368566
17366374609
17366380895
17366384313
17366392370
17366397253
17366402746
17366410070
17366414648
17366420934
17366427038
17366432226
17366439062
17366443578
17366450170
17366454748
17366462499
17366467748
17366475317
17366479040
17366488012
17366496313
17366500646
17366508947
17366516576
17366522619
17366529760
17366535680
17366542516
17366548314
17366556005
17366560827
17366566991
17366573705
17366579442
17366585973
17366591466
17366597326
17366603612
17366608861
17366614721
17366620397
17366627355
17366633092
17366638646
17366644811
17366650060
17366655492
17366661412
17366666661
17366674108
17366678258
17366684545
17366690953
17366697606
17366702123
17366708470
17366713536
17366720372
17366725804
17366732213
17366739232
17366744847
17366750584
17366756444
17366762730
17366767308
17366773412
17366777989
17366785558
17366789098
17366797276
17366803807
17366809849
17366814610
17366820286
17366826573
17366831090
17366837620
17366843419
17366848729
17366854893
17366860631
17366866002
17366870457
17366877415
17366884007
17366889683
17366895115
17366900853
17366906895
17366911351
17366917881
17366924717
17366930088
17366936741
17366942295
17366948460
17366951634
17366959751
17366965367
17366970616
17366977391
17366981724
17366988987
17366992283
17367000279
17367004185
17367015415
17367024143
17367030430
17367036289
17367042332
17367048496
17367055943
17367060520
17367067234
17367072178
17367079807
17367083164
17367090794
17367097385
17367102817
17367109104
17367114963
17367119907
17367126255
17367131992
17367138706
17367144016
17367148899
17367155613
17367161045
17367166477
17367173252
17367179111
17367184665
17367190525
17367196262
17367202243
17367207615
17367214573
17367219760
17367224460
17367230991
17367236789
17367242160
17367248386
17367253818
17367259677
17367265598
17367271945
17367277805
17367283298
17367288181
17367295200
17367299899
17367307346
17367313754
17367319187
17367325473
17367330661
17367336093
17367341953
17367348605
17367353122
17367360080
17367364719
17367370395
17367376437
17367383395
17367386447
17367394137
17367401462
17367407199
17367412753
17367417880
17367425387
17367429904
17367435824
17367442599
17367447360
17367454806
17367459994
17367465426
17367471835
17367477878
17367483554
17367490085
17367495883
17367501376
17367506808
17367511874
17367520175
17367526156
17367530673
17367539584
17367544039
17367551242
17367557711
17367565402
17367573153
17367578890
17367584933
17367592318
17367598361
17367604098
17367609591
17367616122
17367620272
17367626376
17367632235
17367638522
17367643343
17367650790
17367655489
17367662691
17367668673
17367680086
17367686068
17367694125
17367702303
17367711214
17367717989
17367723910
17367729647
17367735628
17367741549
17367747469
17367752901
17367758639
17367764132
17367770296
17367775606
17367782381
17367788179
17367794161
17367799776
17367805941
17367811251
17367817842
17367820711
17367830049
17367835848
17367841524
17367848970
17367855196
17367860872
17367867037
17367871797
17367877596
17367884126
17367889864
17367895906
17367902254
17367907625
17367912874
17367919527
17367924959
17367930452
17367937105
17367941316
17367948518
17367953523
17367960054
17367964571
17367970796
17367975130
17367981966
17367988801
17367994295
17367999361
17368005220
17368011323
17368018465
17368023591
17368029756
17368035676
17368040803
17368045320
17368051790
17368056428
17368064363
17368068940
17368074373
17368080964
17368086519
17368092561
17368098787
17368105867
17368112336
17368118440
17368125520
17368131501
17368138032
17368145112
17368150727
17368157197
17368162690
17368168611
17368174043
17368178681
17368185273
17368190217
17368197175
17368203034
17368209748
17368214936
17368220490
17368226167
17368232514
17368238129
17368244050
17368250398
17368254975
17368261140
17368265717
17368273225
17368278535
17368283967
17368289399
17368294892
17368300690
17368306061
17368313019
17368319489
17368325043
17368331391
17368336518
17368341034
17368347077
17368353730
17368359345
17368366120
17368371674
17368377594
17368383515
17368389557
17368394989
17368401825
17368408234
17368414338
17368419159
17368425202
17368430817
17368437714
17368444306
17368449921
17368455780
17368461396
17368467621
17368473480
17368479828
17368484650
17368491486
17368496613
17368503082
17368510224
17368515595
17368520966
17368526581
17368532623
17368539154
17368544464
17368550385
17368556549
17368561249
17368567657
17368572540
17368578949
17368587128
17368591461
17368598846
17368603302
17368610016
17368615509
17368621185
17368628815
17368632904
17368639984
17368644867
17368652496
17368657379
17368664520
17368669952
17368678619
17368684295
17368690033
17368696014
17368701873
17368707611
17368713775
17368719818
17368725616
17368730926
17368737579
17368743194
17368748809
17368755950
17368761444
17368766937
17368773101
17368779449
17368785064
17368791046
17368796295
17368802703
17368808929
17368814117
17368819610
17368825164
17368832427
17368837676
17368843108
17368849273
17368855010
17368861053
17368866912
17368873016
17368877532
17368884551
17368889251
17368895965
17368899261
17368908355
17368914458
17368919951
17368925384
17368930938
17368939116
17368943450
17368950591
17368955291
17368961638
17368966338
17368973113
17368979705
17368985381
17368991484
17368996917
17369003569
17369007842
17369013823
17369022368
17369027556
17369032195
17369038603
17369043364
17369050872
17369058257
17369063750
17369069609
17369075163
17369080596
17369086150
17369091826
17369097991
17369104888
17369110075
17369116606
17369121245
17369127898
17369133391
17369139861
17369145659
17369152373
17369158598
17369164519
17369169951
17369175810
17369180937
17369186735
17369191618
17369199492
17369208281
17369215483
17369220610
17369226652
17369231352
17369238615
17369243803
17369253325
17369259001
17369264372
17369270414
17369276335
17369281584
17369287504
17369292875
17369299162
17369305387
17369310881
17369316435
17369322172
17369328093
17369335600
17369341032
17369347319
17369351530
17369358366
17369364591
17369370390
17369374845
17369381986
17369386869
17369392851
17369397611
17369405302
17369411161
17369416532
17369423246
17369428861
17369433744
17369439237
17369445646
17369451749
17369457426
17369463712
17369469816
17369474821
17369481412
17369486356
17369492521
17369497098
17369503629
17369509916
17369515348
17369521390
17369527372
17369533292
17369538602
17369545133
17369549405
17369555753
17369561979
17369568326
17369572904
17369579618
17369585294
17369592984
17369598844
17369604459
17369609830
17369615811
17369621915
17369627774
17369632596
17369638455
17369644193
17369651029
17369657071
17369660245
17369668180
17369674466
17369680325
17369686124
17369691434
17369698148
17369703702
17369709988
17369716519
17369721402
17369728116
17369733975
17369739896
17369745633
17369750699
17369758816
17369764249
17369772244
17369775906
17369785001
17369791165
17369797452
17369804043
17369809964
17369815762
17369822171
17369828274
17369832852
17369840054
17369843228
17369851773
17369857449
17369863430
17369869412
17369875454
17369881619
17369887417
17369893093
17369897183
17369903775
17369909878
17369915127
17369921475
17369927151
17369933132
17369938259
17369944790
17369950222
17369956387
17369962002
17369968716
17369974636
17369980557
17369986294
17369991787
17369998135
17370003689
17370009609
17370015041
17370021450
17370027004
17370033901
17370039272
17370045193
17370050686
17370056911
17370062832
17370067837
17370073574
17370079494
17370085354
17370092129
17370097988
17370102627
17370109463
17370115383
17370120144
17370127346
17370131618
17370139309
17370145473
17370151027
17370156826
17370163234
17370169765
17370175075
17370183132
17370186428
17370193386
17370199123
17370206020
17370211391
17370217067
17370223293
17370229213
17370234951
17370241237
17370246669
17370251247
17370257900
17370263271
17370269985
17370276821
17370283717
17370289699
17370293971
17370300929
17370307887
17370315089
17370319850
17370327113
17370332973
17370339503
17370346584
17370352382
17370359889
17370366542
17370372462
17370378749
17370384547
17370389003
17370394923
17370399684
17370407558
17370413417
17370419215
17370425075
17370430446
17370435939
17370441615
17370448024
17370454493
17370459926
17370466212
17370472621
17370477137
17370483729
17370490321
17370495692
17370501673
17370507411
17370513819
17370519740
17370525111
17370531947
17370539576
17370545497
17370551295
17370557215
17370562708
17370568934
17370575221
17370580348
17370586268
17370592249
17370596949
17370603358
17370608424
17370615382
17370620264
17370628138
17370633143
17370638758
17370644617
17370650599
17370657069
17370663660
17370669154
17370675928
17370682154
17370688929
17370694300
17370700587
17370706263
17370712671
17370718592
17370723902
17370729761
17370736292
17370741297
17370747889
17370751551
17370759180
17370763819
17370771570
17370777247
17370782801
17370788721
17370795191
17370799952
17370806177
17370812708
17370817774
17370823450
17370827783
17370833338
17370840418
17370845972
17370851221
17370856470
17370864160
17370874048
17370882654
17370890466
17370900049
17370906152
17370911768
17370918237
17370923975
17370928247
17370935693
17370940881
17370949243
17370957788
17370966821
17370974084
17370978662
17370987146
17370991968
17370999109
17371006128
17371009790
17371016382
17371021325
17371027002
17371032007
17371040063
17371046838
17371052697
17371058130
17371063867
17371068994
17371074060
17371079431
17371085351
17371090966
17371095483
17371101831
17371107263
17371113549
17371119775
17371125268
17371131982
17371137841
17371143701
17371147790
17371154138
17371158227
17371163659
17371169946
17371175439
17371180322
17371186486
17371190881
17371197167
17371202599
17371208032
17371214562
17371220605
17371226647
17371230920
17371236169
17371241784
17371246789
17371252831
17371258874
17371264184
17371270959
17371274255
17371281090
17371284325
17371292321
17371299218
17371303307
17371309472
17371315392
17371319604
17371326012
17371330956
17371336388
17371342919
17371348107
17371353905
17371358361
17371364586
17371370385
17371376549
17371384545
17371392907
17371401329
17371407860
17371415428
17371424156
17371430626
17371437401
17371442650
17371448937
17371454552
17371459801
17371466026
17371471581
17371476647
17371482750
17371488670
17371492760
17371498680
17371502709
17371510582
17371515770
17371522301
17371527306
17371532433
17371537865
17371544151
17371549889
17371556786
17371562889
17371568077
17371573814
17371579552
17371585716
17371590599
17371596580
17371602989
17371608787
17371613548
17371619041
17371625877
17371631248
17371637291
17371641685
17371647667
17371653282
17371658714
17371664573
17371670555
17371676597
17371682151
17371687584
17371692710
17371698875
17371703941
17371710166
17371715171
17371721702
17371728477
17371734214
17371739646
17371744834
17371749595
17371755882
17371761924
17371766929
17371772849
17371777976
17371784385
17371789390
17371795310
17371802696
17371808433
17371814536
17371820518
17371827720
17371833945
17371840232
17371845542
17371851646
17371856040
17371861961
17371866355
17371872459
17371878135
17371883323
17371889670
17371895530
17371901755
17371907737
17371914695
17371921042
17371930686
17371937461
17371943503
17371949302
17371952903
17371962119
17371969687
17371976645
17371981162
17371985617
17371991843
17371998496
17372004538
17372009421
17372014731
17372020652
17372026023
17372032431
17372037192
17372043540
17372049338
17372053610
17372059653
17372064902
17372069296
17372075766
17372081992
17372087790
17372093405
17372097311
17372104819
17372111227
17372116171
17372122031
17372127219
17372131613
17372137106
17372141867
17372149741
17372156210
17372161948
17372166952
17372172201
17372177634
17372183981
17372190268
17372195151
17372200400
17372206564
17372210959
17372215536
17372222983
17372228659
17372234091
17372237265
17372244528
17372247824
17372255514
17372260885
17372266562
17372274130
17372278891
17372285055
17372290487
17372296469
17372302389
17372308309
17372313436
17372318563
17372323873
17372327963
17372334677
17372338583
17372344808
17372349142
17372355978
17372360678
17372368246
17372371603
17372378439
17372384664
17372390646
17372397237
17372402548
17372408041
17372413473
17372418905
17372424764
17372429525
17372439596
17372446432
17372453634
17372457540
17372464376
17372471212
17372477254
17372484884
17372492818
17372498189
17372503377
17372509176
17372512227
17372521627
17372526632
17372531392
17372537313
17372542440
17372549276
17372553975
17372560567
17372566793
17372572530
17372578695
17372583211
17372589009
17372594136
17372599446
17372605550
17372610799
17372615254
17372622029
17372627034
17372632222
17372637654
17372643209
17372649434
17372654195
17372660481
17372666097
17372671040
17372675130
17372681294
17372687764
17372693807
17372697163
17372704427
17372707906
17372714192
17372719685
17372725056
17372730794
17372736348
17372741353
17372747212
17372752644
17372759785
17372764668
17372769734
17372776875
17372781331
17372787556
17372793599
17372799458
17372804707
17372810628
17372816426
17372822102
17372827168
17372832600
17372837422
17372842976
17372847920
17372853291
17372860310
17372864644
17372870259
17372875752
17372880940
17372884114
17372891133
17372897175
17372902424
17372908161
17372914631
17372920368
17372924946
17372931050
17372936787
17372943501
17372948750
17372954121
17372964131
17372970295
17372977192
17372982502
17372991291
17372998432
17373007282
17373013813
17373018940
17373025776
17373030354
17373035786
17373040852
17373046833
17373052753
17373058857
17373063923
17373070637
17373073933
17373080768
17373085773
17373091022
17373096332
17373102619
17373108661
17373113239
17373119098
17373124531
17373129657
17373135395
17373140583
17373146015
17373152301
17373156574
17373162555
17373168659
17373173786
17373178730
17373185199
17373190387
17373194843
17373200214
17373206073
17373211566
17373216815
17373223224
17373229328
17373234699
17373240924
17373246967
17373252887
17373258319
17373263507
17373271869
17373276386
17373283344
17373288715
17373293964
17373300067
17373304523
17373310687
17373316913
17373322772
17373329181
17373334796
17373340167
17373346698
17373352191
17373358844
17373364032
17373369281
17373373859
17373379779
17373385760
17373391803
17373397906
17373405047
17373410296
17373416156
17373422503
17373427630
17373431903
17373437701
17373442645
17373449054
17373454120
17373459369
17373462664
17373470477
17373476336
17373482684
17373492694
17373501849
17373507586
17373513629
17373523211
17373530718
17373536090
17373542986
17373548174
17373554095
17373560259
17373566424
17373571368
17373577288
17373583270
17373588641
17373595660
17373599078
17373605608
17373612872
17373618792
17373624957
17373628924
17373634722
17373640581
17373646136
17373651141
17373656817
17373661944
17373669451
17373672808
17373680681
17373685930
17373692400
17373698870
17373704485
17373710161
17373713274
17373720354
17373725908
17373730181
17373737688
17373741961
17373747881
17373754351
17373759844
17373764788
17373770403
17373774736
17373782061
17373788469
17373794329
17373800005
17373805254
17373809465
17373814836
17373820818
17373824846
17373830828
17373836748
17373841692
17373848100
17373854326
17373859331
17373865740
17373870744
17373875993
17373879167
17373886125
17373892656
17373899004
17373905168
17373911394
17373917009
17373923174
17373928911
17373934099
17373939836
17373944902
17373951128
17373956682
17373962663
17373968950
17373974992
17373980607
17373984636
17373995134
17373999467
17374006120
17374010454
17374017289
17374024003
17374037919
17374045060
17374055375
17374063432
17374067949
17374074357
17374078813
17374085038
17374091874
17374097123
17374102800
17374109880
17374115129
17374119523
17374126420
17374132401
17374137651
17374140824
17374149735
17374155473
17374159501
17374167314
17374171830
17374177934
17374183732
17374189469
17374195207
17374200761
17374206254
17374212357
17374217667
17374222062
17374228043
17374233353
17374239701
17374245011
17374250382
17374257157
17374262894
17374268632
17374276078
17374281571
17374287980
17374293778
17374299149
17374304337
17374311600
17374315384
17374322831
17374328751
17374334122
17374339737
17374345475
17374350419
17374357193
17374362870
17374368363
17374373673
17374379776
17374385208
17374391251
17374397599
17374402726
17374407181
17374415848
17374420792
17374426956
17374433182
17374437760
17374444840
17374450455
17374455582
17374458878
17374466324
17374472489
17374478531
17374483658
17374488236
17374495987
17374499161
17374505814
17374511185
17374517044
17374526443
17374532791
17374539383
17374547378
17374554275
17374559891
17374569351
17374574783
17374580398
17374587601
17374592483
17374599014
17374604629
17374610550
17374615921
17374621475
17374627517
17374632217
17374638321
17374641861
17374649673
17374655166
17374661026
17374665725
17374671524
17374681778
17374688858
17374694961
17374700210
17374705581
17374710952
17374717910
17374724014
17374729385
17374735732
17374741409
17374747878
17374751296
17374758743
17374764602
17374771255
17374776809
17374782058
17374788100
17374794753
17374800735
17374805984
17374812820
17374818496
17374823806
17374829177
17374835097
17374841262
17374847182
17374853835
17374859817
17374865493
17374872512
17374879165
17374887343
17374892348
17374897658
17374903640
17374908095
17374915053
17374921828
17374927688
17374932570
17374939406
17374944411
17374950332
17374956069
17374962966
17374968215
17374975417
17374981093
17374986403
17374992507
17374998854
17375004225
17375009535
17375015639
17375026320
17375036208
17375044631
17375053481
17375062087
17375068434
17375074049
17375080275
17375084609
17375090529
17375096144
17375101576
17375108168
17375114272
17375119887
17375126295
17375130690
17375136732
17375143385
17375149916
17375155043
17375162306
17375167799
17375172621
17375179762
17375184767
17375192457
17375199049
17375203871
17375208693
17375216871
17375221693
17375228102
17375233778
17375237379
17375245375
17375250746
17375255629
17375261854
17375267897
17375272963
17375278089
17375283155
17375289564
17375294386
17375300245
17375306349
17375312269
17375317640
17375322950
17375328687
17375335645
17375340711
17375347242
17375353224
17375359449
17375363111
17375369703
17375378065
17375384840
17375391248
17375397291
17375401991
17375408399
17375414014
17375419813
17375426771
17375432264
17375438001
17375445020
17375450147
17375455518
17375464490
17375469739
17375475110
17375481214
17375487989
17375492689
17375499708
17375505750
17375512647
17375517774
17375525403
17375532300
17375538953
17375547681
17375552869
17375559217
17375565137
17375570142
17375576917
17375582471
17375588269
17375594373
17375600843
17375606153
17375610242
17375616529
17375622144
17375628675
17375635022
17375640210
17375645215
17375652600
17375657361
17375662793
17375669324
17375674634
17375679761
17375684094
17375691357
17375696729
17375702527
17375709058
17375714734
17375721997
17375728711
17375735242
17375743298
17375751782
17375757641
17375765027
17375769726
17375775281
17375783276
17375788220
17375795300
17375800671
17375806164
17375811535
17375817029
17375824963
17375830395
17375837414
17375843518
17375850293
17375857922
17375864270
17375872326
17375877331
17375885205
17375892407
17375897717
17375906628
17375911511
17375918347
17375924694
17375930309
17375937451
17375944470
17375950573
17375956371
17375961376
17375967419
17375974438
17375979321
17375988171
17375994152
17375999706
17376005260
17376015392
17376019726
17376029064
17376036022
17376041027
17376047863
17376055065
17376061230
17376066784
17376071300
17376077282
17376082775
17376088878
17376093883
17376099804
17376106029
17376111461
17376117016
17376122265
17376128185
17376133861
17376139721
17376144848
17376151195
17376157970
17376163341
17376168773
17376172802
17376179332
17376185314
17376191295
17376195934
17376202342
17376205638
17376211986
17376215221
17376222606
17376233776
17376238109
17376245433
17376248729
17376255199
17376261485
17376267162
17376273204
17376279002
17376284496
17376288890
17376295055
17376301219
17376306651
17376312755
17376318736
17376324535
17376329051
17376335399
17376338389
17376345286
17376352733
17376357188
17376362803
17376368480
17376373363
17376378734
17376384471
17376390574
17376393870
17376402354
17376407786
17376412181
17376418040
17376424205
17376430430
17376437144
17376441600
17376447947
17376453929
17376460398
17376465525
17376469981
17376478282
17376484507
17376488475
17376494578
17376501780
17376513560
17376518016
17376525218
17376529551
17376536387
17376544383
17376554575
17376559763
17376566233
17376570506
17376576182
17376584422
17376589610
17376595042
17376600108
17376607127
17376611094
17376617442
17376623179
17376629954
17376634287
17376639841
17376645823
17376649851
17376654551
17376663401
17376668162
17376674265
17376679880
17376685007
17376690134
17376696787
17376702341
17376707895
17376711863
17376718699
17376723337
17376728586
17376735056
17376740610
17376746775
17376751535
17376756723
17376762094
17376769480
17376774729
17376780771
17376785044
17376791269
17376797190
17376803232
17376809824
17376816294
17376820810
17376826731
17376831735
17376837534
17376842905
17376849619
17376854990
17376860178
17376864755
17376868845
17376875864
17376883493
17376888803
17376894601
17376899911
17376904916
17376910898
17376917673
17376923776
17376929697
17376934335
17376939706
17376945383
17376951303
17376957956
17376963937
17376968881
17376974435
17376979562
17376985177
17376992441
17376998788
17377005136
17377012155
17377016671
17377024545
17377031015
17377036996
17377043710
17377049264
17377054818
17377063913
17377069406
17377074960
17377080087
17377086801
17377092599
17377098336
17377102304
17377108529
17377114144
17377119027
17377126534
17377131173
17377138253
17377143258
17377148629
17377154061
17377162118
17377168221
17377173898
17377178109
17377184884
17377190011
17377195199
17377201608
17377208565
17377213448
17377219064
17377224251
17377230355
17377237130
17377242867
17377248421
17377253792
17377259774
17377268014
17377276681
17377285103
17377291268
17377300240
17377308358
17377316964
17377325875
17377334237
17377343209
17377353829
17377361214
17377368782
17377375801
17377383370
17377392220
17377399605
17377407356
17377418282
17377425850
17377433541
17377442330
17377450569
17377459419
17377467659
17377475594
17377484505
17377492378
17377500435
17377510078
17377517525
17377527718
17377535164
17377546028
17377554390
17377562202
17377571724
17377576790
17377591072
17377600288
17377614448
17377624946
17377634651
17377647834
17377654304
17377664802
17377674629
17377683479
17377691841
17377701057
17377709419
17377718391
17377724738
17377737556
17377746528
17377754951
17377764289
17377772651
17377780158
17377789191
17377799201
17377807685
17377815681
17377825935
17377833442
17377840095
17377851142
17377861152
17377867682
17377876716
17377886176
17377893989
17377903022
17377912482
17377922248
17377930793
17377939399
17377948432
17377956000
17377964179
17377973395
17377980048
17377989569
17377998480
17378006598
17378015753
17378024237
17378033820
17378042487
17378050299
17378059638
17378064276
17378076666
17378085455
17378096869
17378105597
17378113654
17378121649
17378131171
17378138861
17378149786
17378159430
17378167792
17378176520
17378185064
17378194159
17378203924
17378213324
17378222906
17378231085
17378239691
17378247503
17378251226
17378261358
17378270391
17378278509
17378286260
17378295599
17378303045
17378312506
17378322088
17378330267
17378338567
17378347112
17378355108
17378363287
17378369329
17378380071
17378386907
17378394353
17378402776
17378417791
17378446783
17378458745
17378466741
17378472539
17378483098
17378489751
17378499822
17378509771
17378515325
17378525701
17378533208
17378544744
17378549138
17378559148
17378568608
17378575811
17378581670
17378587468
17378591802
17378595952
17378600408
17378605718
17378609563
17378615056
17378618108
17378624089
17378629582
17378634221
17378638799
17378643010
17378647405
17378653325
17378658086
17378661687
17378668462
17378670964
17378676091
17378681767
17378684880
17378690862
17378695439
17378700139
17378704472
17378709294
17378712041
17378716862
17378723881
17378728154
17378732854
17378737431
17378742253
17378745732
17378750493
17378755742
17378760930
17378765263
17378768376
17378773625
17378778447
17378782963
17378786747
17378792729
17378796818
17378801091
17378806218
17378810551
17378815434
17378819279
17378824650
17378827275
17378834538
17378837468
17378844731
17378849614
17378855351
17378862370
17378866825
17378871708
17378877262
17378881901
17378885258
17378890629
17378895878
17378900334
17378905033
17378909428
17378913761
17378918461
17378922672
17378927799
17378933109
17378937809
17378942326
17378946110
17378951420
17378954960
17378960270
17378965641
17378970158
17378974064
17378979862
17378984013
17378989567
17378993534
17378998417
17379003117
17379009098
17379013309
17379019596
17379022648
17379028812
17379032902
17379050663
17379055179
17379060245
17379064762
17379070438
17379074589
17379079105
17379083744
17379090214
17379095524
17379101566
17379106205
17379111637
17379116336
17379121830
17379126957
17379134647
17379140323
17379146061
17379150333
17379156192
17379160282
17379165897
17379170963
17379177738
17379181949
17379188297
17379192691
17379198184
17379202335
17379208194
17379213992
17379220279
17379226566
17379232486
17379238590
17379243228
17379248050
17379251590
17379261112
17379265445
17379271976
17379276126
17379282718
17379287784
17379295352
17379300052
17379305972
17379311099
17379318423
17379323672
17379328982
17379333865
17379339847
17379345889
17379352725
17379358645
17379368655
17379372439
17379380069
17379386111
17379392093
17379398196
17379402713
17379408511
17379416385
17379423404
17379428775
17379433230
17379439517
17379445010
17379451663
17379456240
17379463198
17379467715
17379474246
17379480471
17379486331
17379492922
17379497805
17379502749
17379510439
17379515933
17379520876
17379527407
17379532412
17379537661
17379543826
17379549807
17379554751
17379560366
17379567385
17379574709
17379579897
17379585818
17379591921
17379597597
17379603762
17379609927
17379614748
17379618777
17379628054
17379632021
17379641360
17379646975
17379653200
17379660647
17379667177
17379672426
17379678103
17379682802
17379689638
17379694216
17379700991
17379705813
17379714602
17379720217
17379723757
17379733034
17379737062
17379744326
17379749514
17379754885
17379760561
17379767092
17379772463
17379779787
17379785158
17379790346
17379795961
17379801637
17379806703
17379815920
17379820986
17379828371
17379833132
17379839540
17379845705
17379850404
17379856569
17379863710
17379868349
17379874635
17379879518
17379885927
17379891908
17379895876
17379902711
17379910036
17379916444
17379918519
17379927186
17379934267
17379938844
17379943544
17379951661
17379956911
17379965150
17379970643
17379978456
17379982606
17379991945
17379997865
17380003724
17380010194
17380017946
17380024415
17380031984
17380037843
17380043458
17380048463
17380052369
17380059754
17380064210
17380070314
17380075196
17380081239
17380086854
17380092652
17380096986
17380103639
17380109620
17380115052
17380119813
17380125794
17380131288
17380134644
17380142030
17380146241
17380154237
17380158631
17380164307
17380170167
17380177308
17380182130
17380186829
17380191346
17380199342
17380204591
17380209901
17380216431
17380221497
17380225953
17380231202
17380237183
17380245118
17380251221
17380257508
17380261536
17380267457
17380273743
17380277222
17380284791
17380292176
17380297364
17380302796
17380309143
17380314270
17380321289
17380326966
17380332032
17380336792
17380345154
17380350342
17380356446
17380363159
17380369019
17380374268
17380377747
17380385864
17380394592
17380399780
17380405213
17380411377
17380416626
17380422913
17380428101
17380435364
17380440491
17380447327
17380453369
17380460083
17380464844
17380471130
17380476257
17380483337
17380488403
17380497314
17380502624
17380509643
17380516846
17380521118
17380527038
17380532104
17380537659
17380543762
17380549438
17380556274
17380561767
17380568054
17380573120
17380579162
17380586731
17380594604
17380602417
17380609741
17380616089
17380623108
17380629150
17380635498
17380641601
17380649047
17380654296
17380661193
17380664794
17380671752
17380676574
17380682189
17380687255
17380695373
17380702331
17380706542
17380712646
17380718505
17380723083
17380728576
17380734741
17380741210
17380747314
17380753234
17380758178
17380764281
17380769958
17380773681
17380781554
17380789428
17380794738
17380798278
17380807067
17380810851
17380817382
17380822082
17380830138
17380837157
17380844909
17380852233
17380858397
17380863280
17380869262
17380873961
17380880736
17380887389
17380892943
17380899413
17380903869
17380910521
17380916930
17380923644
17380927855
17380934630
17380940184
17380947692
17380953795
17380960143
17380964659
17380971373
17380976622
17380982970
17380987792
17380995909
17381000975
17381004759
17381013793
17381017333
17381024596
17381031737
17381039244
17381048338
17381053709
17381061400
17381066466
17381071837
17381077940
17381083739
17381091307
17381097044
17381102537
17381107909
17381115233
17381119932
17381126158
17381132506
17381138487
17381144530
17381152891
17381158384
17381164366
17381169249
17381175474
17381181578
17381185362
17381193785
17381199278
17381206236
17381211729
17381217527
17381223570
17381230833
17381236570
17381242979
17381249144
17381256651
17381262693
17381267637
17381274534
17381280027
17381285093
17381289732
17381295713
17381303648
17381308592
17381315489
17381319822
17381325681
17381330320
17381337034
17381341367
17381348020
17381354185
17381359556
17381364011
17381369382
17381374815
17381378233
17381385496
17381391416
17381397520
17381400999
17381407835
17381412717
17381419065
17381423826
17381429319
17381434934
17381441770
17381447690
17381454221
17381459226
17381468686
17381472593
17381480771
17381487912
17381492246
17381499692
17381504514
17381511716
17381518552
17381523801
17381531369
17381537900
17381543027
17381550840
17381556699
17381563413
17381570310
17381572629
17381583005
17381588193
17381598142
17381603452
17381611997
17381616025
17381625363
17381631528
17381637509
17381644345
17381649228
17381655637
17381659970
17381666135
17381671933
17381675534
17381682126
17381688107
17381695676
17381700680
17381706967
17381712277
17381717709
17381722714
17381730466
17381735898
17381741879
17381748471
17381754880
17381760129
17381764035
17381771542
17381777585
17381783932
17381788998
17381795224
17381800351
17381807553
17381812924
17381818661
17381823788
17381830441
17381836666
17381845272
17381852352
17381857479
17381863583
17381872250
17381878475
17381883175
17381890682
17381896053
17381900204
17381906063
17381911190
17381918697
17381923336
17381928890
17381936459
17381943173
17381950008
17381954769
17381960995
17381965816
17381972347
17381977291
17381983211
17381991573
17381995907
17382002010
17382006100
17382011593
17382015926
17382021297
17382027401
17382032101
17382037655
17382042232
17382046566
17382052974
17382059444
17382063778
17382069576
17382078853
17382083187
17382088497
17382094844
17382100277
17382106136
17382110836
17382114925
17382120784
17382126339
17382129757
17382136104
17382140193
17382148799
17382152584
17382159236
17382164913
17382170528
17382176143
17382182247
17382186946
17382193294
17382197933
17382204646
17382209712
17382214168
17382222163
17382226619
17382232539
17382236385
17382244014
17382247676
17382254817
17382259944
17382265315
17382272639
17382278377
17382285457
17382291865
17382296992
17382301326
17382308467
17382315425
17382320430
17382326839
17382331721
17382337703
17382343501
17382349483
17382355708
17382361567
17382367610
17382372615
17382377742
17382384700
17382389827
17382396174
17382400752
17382408870
17382415644
17382419490
17382428828
17382433772
17382440669
17382444941
17382452204
17382459712
17382465083
17382471553
17382478816
17382485285
17382490046
17382496028
17382499812
17382506281
17382511042
17382517207
17382522273
17382528742
17382533747
17382540095
17382545039
17382552668
17382558955
17382565058
17382569819
17382575556
17382581416
17382588496
17382593928
17382598566
17382605036
17382609797
17382613581
17382622248
17382627253
17382632258
17382637873
17382644648
17382650141
17382656244
17382661982
17382669367
17382674006
17382679865
17382684687
17382691828
17382697443
17382704950
17382709894
17382713495
17382720636
17382724237
17382731501
17382736811
17382742853
17382747736
17382754694
17382759821
17382765009
17382769953
17382775202
17382782526
17382788080
17382793024
17382799982
17382804498
17382809870
17382816461
17382822931
17382827875
17382833673
17382839594
17382845209
17382854486
17382858636
17382865717
17382871027
17382876520
17382880853
17382887933
17382892755
17382898614
17382904901
17382909296
17382914972
17382920892
17382925470
17382931573
17382936334
17382942071
17382950067
17382953363
17382960687
17382965082
17382970941
17382976434
17382981073
17382988519
17382993707
17383000970
17383004510
17383011834
17383017083
17383023187
17383028314
17383036187
17383042352
17383052178
17383056756
17383064385
17383070550
17383077020
17383082574
17383089410
17383094964
17383102838
17383108025
17383114251
17383118890
17383125604
17383129937
17383135918
17383140984
17383148919
17383153985
17383159966
17383165887
17383170831
17383176446
17383178338
17383187249
17383191033
17383198846
17383202141
17383210442
17383213860
17383221123
17383225884
17383231927
17383238091
17383246209
17383251641
17383256218
17383263299
17383269341
17383273980
17383280755
17383285943
17383291069
17383300347
17383303765
17383310784
17383314263
17383323418
17383327263
17383334099
17383340386
17383346184
17383351433
17383357720
17383363030
17383369377
17383374748
17383379997
17383385063
17383394219
17383399101
17383405510
17383412590
17383418205
17383422539
17383428215
17383434685
17383440971
17383445732
17383452690
17383458061
17383462578
17383469475
17383475090
17383479546
17383486870
17383492912
17383498588
17383503410
17383508049
17383515434
17383518608
17383524650
17383532463
17383540947
17383544548
17383553703
17383559379
17383566276
17383568718
17383579826
17383584587
17383596122
17383601188
17383609428
17383614555
17383624443
17383631706
17383639213
17383645378
17383654533
17383663017
17383671501
17383678459
17383685295
17383697257
17383702751
17383714042
17383721671
17383729179
17383741142
17383747733
17383761649
17383767326
17383776542
17383783439
17383789847
17383798637
17383807487
17383816520
17383821342
17383829581
17383836844
17383842032
17383848441
17383856620
17383862723
17383868827
17383877860
17383885489
17383893180
17383900931
17383909598
17383917228
17383922721
17383931082
17383940482
17383949515
17383957266
17383965323
17383972708
17383978140
17383985587
17383992911
17383999564
17384008170
17384016226
17384027396
17384035147
17384042838
17384049429
17384055472
17384062735
17384070425
17384079275
17384086844
17384095938
17384103262
17384108938
17384118887
17384127127
17384135122
17384142996
17384145926
17384156119
17384165640
17384175833
17384181570
17384189383
17384196035
17384203360
17384210562
17384218069
17384226431
17384233816
17384244131
17384251516
17384254324
17384265982
17384270925
17384279287
17384286001
17384295400
17384302114
17384309866
17384317007
17384324026
17384331472
17384338308
17384346914
17384354177
17384359487
17384369375
17384377431
17384387380
17384395071
17384398122
17384409536
17384415517
17384424062
17384430898
17384440481
17384447316
17384454885
17384465932
17384474538
17384481252
17384488454
17384493886
17384503957
17384510793
17384519887
17384526784
17384538747
17384548757
17384551869
17384562612
17384570424
17384577687
17384584462
17384589772
17384601674
17384608510
17384622426
17384627187
17384636220
17384642628
17384652699
17384660023
17384666005
17384676320
17384685475
17384693471
17384700246
17384708485
17384714162
17384721669
17384726857
17384733876
17384738576
17384747181
17384753285
17384756886
17384765309
17384768605
17384775624
17384780873
17384786854
17384793263
17384798207
17384803517
17384809315
17384815785
17384821095
17384825428
17384831044
17384837513
17384843739
17384850453
17384856251
17384860890
17384866261
17384871998
17384877857
17384881886
17384887989
17384894154
17384899952
17384904652
17384911244
17384915577
17384920460
17384926563
17384932545
17384939503
17384944691
17384950733
17384955860
17384962025
17384968861
17384973804
17384982288
17384989368
17384995594
17385002918
17385008289
17385013355
17385020069
17385025623
17385031482
17385038624
17385043384
17385049183
17385056080
17385061634
17385066333
17385072010
17385078052
17385083362
17385089527
17385094776
17385101551
17385106739
17385113941
17385119434
17385124073
17385132984
17385145252
17385152149
17385157459
17385166370
17385173511
17385176685
17385189807
17385196033
17385204089
17385211536
17385222400
17385230335
17385233752
17385247791
17385251636
17385263354
17385272449
17385281848
17385290637
17385300342
17385308154
17385311572
17385323352
17385332019
17385343188
17385351916
17385355578
17385368640
17385378100
17385388232
17385399218
17385407214
17385417224
17385424975
17385433398
17385439013
17385449267
17385458178
17385466418
17385474291
17385481371
17385488024
17385497973
17385505175
17385510790
17385521899
17385527148
17385536913
17385544787
17385553210
17385559924
17385567614
17385576769
17385584521
17385591967
17385599474
17385603625
17385617174
17385622362
17385630602
17385637072
17385644335
17385651720
17385657091
17385667955
17385673143
17385684801
17385692186
17385700060
17385706957
17385712145
17385720201
17385726854
17385734545
17385744188
17385754198
17385761217
17385764086
17385774645
17385782640
17385790819
17385797716
17385800523
17385812547
17385820299
17385829027
17385836778
17385845689
17385852281
17385860155
17385866869
17385874254
17385881944
17385888719
17385898424
17385905443
17385914049
17385921068
17385926011
17385936937
17385944200
17385952256
17385959459
17385968675
17385975389
17385980577
17385989976
17385996690
17386004075
17386010728
17386019456
17386026475
17386032456
17386041123
17386047715
17386056443
17386065721
17386068772
17386080735
17386088609
17386095445
17386103257
17386111985
17386120042
17386127366
17386135972
17386143174
17386150864
17386158189
17386165818
17386174241
17386182786
17386191331
17386201279
17386204453
17386215073
17386223740
17386231858
17386239121
17386242173
17386253037
17386264389
17386274704
17386284470
17386292527
17386302903
17386309861
17386317002
17386325119
17386331040
17386341904
17386348984
17386352707
17386361069
17386364914
17386371140
17386376267
17386382370
17386388107
17386396286
17386401901
17386407639
17386412888
17386418076
17386424728
17386429855
17386435226
17386442734
17386448227
17386453415
17386459885
17386466232
17386470993
17386474716
17386482468
17386486679
17386493210
17386499252
17386506515
17386511764
17386516952
17386522445
17386529220
17386536850
17386543197
17386547836
17386554489
17386559127
17386565963
17386571273
17386576278
17386583297
17386589035
17386594772
17386598434
17386606613
17386611007
17386618087
17386622970
17386629562
17386636093
17386641159
17386646224
17386654159
17386660140
17386665328
17386671981
17386676559
17386683517
17386689559
17386696945
17386700546
17386707382
17386711105
17386718368
17386724471
17386731185
17386736983
17386741805
17386749068
17386754501
17386761031
17386767196
17386773116
17386779403
17386784591
17386792220
17386798812
17386804000
17386811629
17386818038
17386826339
17386833480
17386840743
17386848678
17386856795
17386864119
17386871688
17386882308
17386885665
17386898055
17386906661
17386915633
17386923506
17386928206
17386939986
17386948592
17386957076
17386965193
17386975447
17386985640
17386996016
17387005171
17387014937
17387026900
17387035323
17387042708
17387054365
17387062727
17387070662
17387076399
17387086958
17387095259
17387101301
17387110090
17387117354
17387124434
17387129927
17387140974
17387148909
17387154707
17387164045
17387170454
17387177717
17387183271
17387194136
17387202192
17387210859
17387218733
17387226728
17387236250
17387245893
17387254988
17387261946
17387272383
17387280073
17387283369
17387294904
17387304060
17387310407
17387320539
17387324506
17387336103
17387345625
17387352827
17387362775
17387366010
17387377485
17387385786
17387393232
17387401166
17387411115
17387418622
17387424299
17387434919
17387443281
17387451581
17387458356
17387461408
17387472638
17387482526
17387490888
17387498944
17387506757
17387513898
17387519757
17387531598
17387536176
17387545575
17387552777
17387559247
17387570477
17387578595
17387585187
17387592450
17387598004
17387607648
17387614179
17387622540
17387633710
17387644513
17387650372
17387658795
17387668256
17387674969
17387682355
17387690289
17387697186
17387705243
17387713910
17387721295
17387726178
17387735699
17387742657
17387749615
17387758221
17387761090
17387773602
17387780499
17387789288
17387796673
17387804364
17387811810
17387821392
17387827862
17387832684
17387842327
17387847149
17387859112
17387865826
17387873943
17387879681
17387884503
17387894878
17387902203
17387909222
17387916363
17387925701
17387939495
17387947124
17387953899
17387961773
17387971233
17387973919
17387986736
17387996258
17388005352
17388010296
17388019695
17388026958
17388033306
17388039776
17388045208
17388053386
17388064006
17388070842
17388075664
17388085308
17388092022
17388098064
17388105999
17388112834
17388118877
17388124858
17388137493
17388143840
17388150310
17388156474
17388163432
17388171428
17388178630
17388184734
17388192668
17388200725
17388208110
17388215129
17388221233
17388228496
17388234599
17388242046
17388249187
17388256938
17388267253
17388274516
17388277263
17388290141
17388295329
17388303996
17388310588
17388319560
17388326335
17388335734
17388342631
17388350261
17388357097
17388363993
17388372721
17388380229
17388384013
17388396159
17388402323
17388412638
17388420878
17388428019
17388435038
17388445780
17388452799
17388462443
17388470805
17388481303
17388489176
17388495402
17388506022
17388513712
17388517008
17388529704
17388535685
17388551615
17388561137
17388570109
17388577982
17388581278
17388593607
17388598612
17388607828
17388615397
17388623575
17388631937
17388636210
17388649088
17388654093
17388663126
17388670389
17388677286
17388686869
17388694010
17388700968
17388711954
17388719339
17388724527
17388732767
17388739115
17388747110
17388756449
17388759317
17388769754
17388777628
17388787393
17388794779
17388802103
17388808756
17388818948
17388827188
17388832742
17388842935
17388851053
17388861246
17388868448
17388876077
17388883279
17388889078
17388895181
17388901773
17388908121
17388916360
17388920877
17388925943
17388931619
17388937600
17388943643
17388945535
17388953347
17388961099
17388967385
17388970803
17388978128
17388982217
17388989846
17388993081
17388999063
17389006753
17389012796
17389018106
17389023599
17389029763
17389034829
17389039224
17389045754
17389050942
17389059792
17389065652
17389073647
17389079019
17389087930
17389093240
17389098855
17389103555
17389110574
17389117654
17389124917
17389134743
17389151589
17389163674
17389173134
17389182656
17389190468
17389198159
17389204812
17389213723
17389219826
17389225869
17389232399
17389238442
17389243325
17389248024
17389253151
17389258767
17389263649
17389269936
17389275978
17389280556
17389285561
17389291237
17389295571
17389299477
17389305214
17389310097
17389317604
17389322670
17389329689
17389334084
17389339943
17389346230
17389348122
17389356667
17389363564
17389368569
17389374916
17389380592
17389384132
17389390602
17389396034
17389401039
17389407143
17389414284
17389419838
17389426125
17389430763
17389437355
17389442421
17389447914
17389452309
17389459389
17389465309
17389472023
17389477699
17389484840
17389491676
17389494240
17389503273
17389512123
17389518348
17389524147
17389527870
17389534828
17389538124
17389545448
17389550026
17389555641
17389560951
17389566871
17389572059
17389577797
17389582557
17389588417
17389593605
17389600624
17389605262
17389610633
17389616798
17389623146
17389629798
17389634620
17389641883
17389646705
17389651466
17389659767
17389666908
17389672889
17389680152
17389684791
17389691139
17389697852
17389703346
17389709144
17389715491
17389721290
17389725745
17389731849
17389736976
17389740882
17389750281
17389753577
17389760352
17389765723
17389770423
17389775184
17389781409
17389787025
17389795203
17389799048
17389805457
17389810889
17389817908
17389822669
17389828345
17389834205
17389841102
17389846228
17389853125
17389859534
17389864905
17389869178
17389876380
17389882666
17389888831
17389893775
17389899878
17389904334
17389908423
17389916236
17389922034
17389926856
17389932532
17389942053
17389945777
17389953772
17389957556
17389964392
17389969519
17389977087
17389983984
17389991187
17389996924
17390002051
17390006751
17390012732
17390019507
17390025732
17390030493
17390038367
17390044165
17390048804
17390054968
17390058935
17390069189
17390076941
17390084082
17390088659
17390098486
17390105322
17390110083
17390118078
17390123083
17390129004
17390135046
17390141943
17390146704
17390151098
17390156347
17390161901
17390166906
17390170935
17390179113
17390185095
17390191076
17390197363
17390202001
17390208410
17390212683
17390216040
17390224584
17390228613
17390235937
17390239172
17390247473
17390250952
17390258581
17390262426
17390268835
17390274450
17390282018
17390287450
17390293371
17390299108
17390304906
17390309606
17390314550
17390319555
17390327917
17390332983
17390339208
17390344030
17390350133
17390355077
17390360998
17390367956
17390374975
17390379918
17390386754
17390391820
17390397436
17390403356
17390409154
17390415685
17390422094
17390428197
17390433446
17390440465
17390445409
17390452245
17390458532
17390464391
17390469091
17390476659
17390483190
17390488927
17390494237
17390497838
17390506322
17390511510
17390517858
17390524632
17390530126
17390536839
17390543370
17390548131
17390554967
17390560948
17390566991
17390572667
17390579747
17390583958
17390592442
17390596776
17390604161
17390608495
17390615880
17390620335
17390628575
17390633031
17390641087
17390644627
17390651036
17390656285
17390662327
17390667149
17390673802
17390680211
17390687962
17390695897
17390702061
17390709202
17390716710
17390724095
17390730381
17390737767
17390743931
