17391857149
17391863313
17391869050
17391874605
17391880952
17391887239
17391893220
17391899324
17391905732
17391910310
17391917329
17391922639
17391928132
17391933076
17391940278
17391946077
17391951448
17391958772
17391963533
17391969575
17391977204
17391981904
17391987825
17391993196
17391998445
17392003877
17392011872
17392016023
17392023286
17392030976
17392035676
17392043366
17392051728
17392059113
17392066438
17392071259
17392079621
17392086274
17392094025
17392101777
17392108979
17392115327
17392122346
17392127595
17392136445
17392143830
17392150971
17392156769
17392163483
17392171479
17392176179
17392183930
17392189911
17392198823
17392205231
17392211274
17392218415
17392225129
17392232087
17392238495
17392246308
17392251435
17392259430
17392263275
17392273346
17392278961
17392285614
17392294525
17392302338
17392309357
17392315521
17392323456
17392329559
17392338410
17392344818
17392352081
17392357758
17392365875
17392371613
17392380219
17392384308
17392392975
17392401154
17392407989
17392416840
17392424591
17392432220
17392438995
17392449310
17392460968
17392468048
17392477142
17392489959
17392497589
17392504791
17392509308
17392518951
17392526214
17392532928
17392539093
17392545929
17392553497
17392558868
17392566619
17392575225
17392582794
17392591339
17392598602
17392604644
17392612029
17392617950
17392628448
17392636871
17392644744
17392651702
17392657195
17392665008
17392672149
17392680511
17392687774
17392694671
17392700164
17392707854
17392715606
17392721892
17392729888
17392737517
17392745086
17392756560
17392763396
17392772185
17392780425
17392789214
17392797576
17392804595
17392813079
17392817534
17392828154
17392836699
17392844634
17392852935
17392860869
17392867766
17392875518
17392882598
17392890471
17392898162
17392905364
17392919280
17392936553
17392949004
17392958220
17392968779
17392979094
17392988799
17392997160
17393006560
17393017119
17393026762
17393037321
17393048125
17393057158
17393065397
17393073332
17393081633
17393091093
17393100493
17393109831
17393116728
17393124785
17393132170
17393138151
17393149809
17393161283
17393170622
17393181364
17393192228
17393202055
17393207365
17393218717
17393227384
17393232755
17393239713
17393248502
17393256010
17393264249
17393271269
17393278165
17393285429
17393293302
17393298490
17393306364
17393311674
17393321439
17393329618
17393337125
17393343839
17393353239
17393357633
17393365690
17393374723
17393381803
17393388639
17393396207
17393402616
17393410306
17393417630
17393424955
17393432706
17393439420
17393447904
17393454312
17393461454
17393467740
17393474637
17393480558
17393490323
17393498075
17393505887
17393512845
17393519681
17393525235
17393532376
17393541226
17393546842
17393554776
17393559842
17393566922
17393574063
17393580594
17393586575
17393594510
17393600491
17393609219
17393613553
17393621976
17393626248
17393634854
17393643277
17393649075
17393657376
17393663540
17393672635
17393678799
17393687161
17393695645
17393702481
17393708950
17393716397
17393722317
17393731289
17393735745
17393745938
17393750698
17393761746
17393766262
17393777981
17393783901
17393791287
17393798733
17393803616
17393813809
17393821499
17393831509
17393843227
17393851894
17393862087
17393874172
17393881374
17393892666
17393899624
17393906826
17393913845
17393921902
17393930019
17393937954
17393944973
17393952236
17393959194
17393966640
17393972683
17393983852
17393988369
17393999904
17394007473
17394012539
17394020046
17394026088
17394035976
17394042873
17394050685
17394057766
17394065639
17394069789
17394082302
17394089748
17394097743
17394103664
17394111232
17394117092
17394123073
17394131923
17394139736
17394147121
17394152370
17394161769
17394166042
17394177760
17394185268
17394192714
17394199855
17394207606
17394216090
17394222926
17394229457
17394237147
17394244227
17394249599
17394255580
17394260585
17394267482
17394271083
17394279078
17394282618
17394290004
17394296534
17394303004
17394308802
17394315089
17394321009
17394327601
17394334071
17394340663
17394347743
17394352626
17394359462
17394364527
17394370936
17394375880
17394381556
17394386317
17394393458
17394398402
17394404322
17394409449
17394417567
17394421473
17394430079
17394438197
17394443751
17394450404
17394453883
17394461817
17394467921
17394474451
17394481898
17394488734
17394494288
17394499171
17394506434
17394511561
17394518091
17394523463
17394531702
17394538843
17394544703
17394550562
17394555933
17394560633
17394566065
17394573450
17394579310
17394584437
17394590418
17394595240
17394601343
17394607447
17394613916
17394620386
17394626246
17394632898
17394637537
17394643640
17394648401
17394655420
17394658594
17394666468
17394671717
17394677271
17394683069
17394688562
17394696863
17394702844
17394708338
17394714380
17394719995
17394726404
17394733179
17394738123
17394744775
17394749414
17394755884
17394761621
17394767236
17394772852
17394778284
17394783655
17394789087
17394796045
17394800439
17394807580
17394813806
17394819055
17394824853
17394830041
17394835962
17394841211
17394845849
17394852319
17394857019
17394865503
17394870996
17394876550
17394882104
17394889489
17394894555
17394901147
17394905969
17394910608
17394917138
17394925439
17394931421
17394936486
17394942773
17394947961
17394952417
17394959863
17394966210
17394972314
17394978967
17394984948
17394990197
17394994653
17395002221
17395008874
17395014306
17395020104
17395026025
17395032372
17395038903
17395044640
17395051354
17395060449
17395067284
17395074303
17395079552
17395086877
17395092553
17395097314
17395104027
17395110680
17395116234
17395121545
17395127282
17395133507
17395139428
17395145287
17395150658
17395156334
17395161950
17395167992
17395173852
17395179345
17395185387
17395191308
17395196068
17395203637
17395209618
17395215050
17395220299
17395225731
17395231163
17395237999
17395243676
17395249596
17395255638
17395260033
17395267723
17395272423
17395279686
17395284325
17395290367
17395294884
17395302147
17395307091
17395314354
17395321678
17395327477
17395332665
17395338158
17395343712
17395349571
17395354942
17395360802
17395365685
17395372154
17395378075
17395381493
17395388939
17395393944
17395402000
17395407555
17395412865
17395418602
17395424217
17395429527
17395435081
17395441490
17395447899
17395453392
17395459617
17395465965
17395470665
17395477257
17395480613
17395487510
17395492271
17395499595
17395506126
17395511558
17395517173
17395522606
17395528892
17395535057
17395540306
17395546165
17395551902
17395556968
17395563682
17395568321
17395575462
17395581504
17395589195
17395595359
17395602073
17395612205
17395619407
17395629356
17395635825
17395641807
17395646812
17395652061
17395657127
17395662925
17395668906
17395675071
17395679954
17395686118
17395691062
17395696006
17395702842
17395712058
17395717429
17395723716
17395728232
17395735190
17395738547
17395745505
17395752830
17395759421
17395766013
17395771018
17395776206
17395780600
17395787009
17395791770
17395799460
17395805991
17395811484
17395817466
17395823630
17395829123
17395834983
17395839682
17395844138
17395849936
17395856467
17395861472
17395867270
17395872824
17395882224
17395887900
17395895163
17395899680
17395907126
17395912802
17395918234
17395925498
17395929831
17395936545
17395942587
17395947836
17395952414
17395960226
17395966025
17395971579
17395977011
17395982687
17395990012
17395994223
17396000632
17396006735
17396013754
17396019552
17396024924
17396029867
17396035177
17396041830
17396046042
17396053488
17396056662
17396063437
17396070028
17396075400
17396080587
17396085592
17396093100
17396097555
17396103659
17396108419
17396118612
17396125998
17396133139
17396139852
17396146688
17396156332
17396162069
17396168783
17396176473
17396180929
17396187399
17396192709
17396197714
17396203390
17396208151
17396215353
17396219442
17396226278
17396231710
17396236288
17396242147
17396247396
17396253256
17396257406
17396264242
17396270834
17396275777
17396280965
17396286214
17396292989
17396297384
17396304037
17396309591
17396315694
17396321432
17396325521
17396333211
17396337972
17396344442
17396350789
17396356038
17396361410
17396366475
17396375081
17396379659
17396385701
17396390157
17396397481
17396402486
17396407918
17396414998
17396419332
17396425679
17396430257
17396437337
17396442525
17396449727
17396456319
17396463094
17396472005
17396478719
17396484273
17396491780
17396498006
17396503499
17396510640
17396516133
17396522359
17396528584
17396532796
17396540181
17396545735
17396551900
17396557027
17396562276
17396568013
17396571980
17396580708
17396586446
17396591573
17396597920
17396603352
17396607564
17396613362
17396622212
17396629902
17396637166
17396641682
17396650532
17396659260
17396665791
17396672383
17396678853
17396684529
17396690083
17396697041
17396702229
17396707417
17396712971
17396717915
17396724995
17396729267
17396738179
17396743306
17396748310
17396753926
17396759175
17396764790
17396769184
17396777302
17396782612
17396788105
17396794453
17396798420
17396805378
17396810993
17396815937
17396822224
17396827595
17396833088
17396837910
17396843403
17396849690
17396855488
17396861225
17396866718
17396871723
17396877766
17396882526
17396888935
17396893391
17396901508
17396907490
17396913532
17396919880
17396926288
17396931110
17396938068
17396943867
17396948627
17396954609
17396960468
17396964924
17396972553
17396980732
17396987140
17396993854
17396997944
17397004596
17397010395
17397017353
17397020771
17397027729
17397032917
17397037983
17397044513
17397050067
17397055561
17397060199
17397067768
17397072650
17397077960
17397084247
17397089191
17397096698
17397101154
17397107623
17397112201
17397121661
17397129169
17397136554
17397142780
17397150043
17397154987
17397163165
17397169025
17397174152
17397180072
17397185626
17397192157
17397197772
17397202899
17397209064
17397214313
17397221698
17397226031
17397232379
17397238727
17397244037
17397249652
17397255145
17397262408
17397268084
17397273456
17397277484
17397283587
17397289508
17397294513
17397302081
17397306292
17397311847
17397318438
17397323443
17397328387
17397334368
17397341387
17397347186
17397352679
17397356951
17397363787
17397369280
17397374529
17397380511
17397385943
17397392413
17397398699
17397404009
17397408770
17397413836
17397420367
17397425677
17397431963
17397437640
17397443438
17397447649
17397453326
17397457659
17397466936
17397472796
17397478472
17397484392
17397489519
17397496050
17397502093
17397509539
17397514483
17397519732
17397526507
17397530779
17397536333
17397540606
17397549395
17397554278
17397559221
17397565020
17397570696
17397576922
17397581133
17397589922
17397595720
17397600969
17397606279
17397611345
17397618181
17397622881
17397630022
17397637712
17397645769
17397652361
17397658892
17397665178
17397675005
17397680437
17397686968
17397692156
17397698625
17397702959
17397710466
17397715776
17397720781
17397727434
17397733476
17397738847
17397745744
17397750749
17397756364
17397761125
17397766862
17397772111
17397777788
17397783159
17397789018
17397795244
17397800127
17397804826
17397809770
17397815752
17397820024
17397828020
17397834062
17397839250
17397845476
17397850969
17397856401
17397861345
17397868486
17397875078
17397880143
17397885942
17397891130
17397896440
17397901933
17397908891
17397913530
17397919450
17397925492
17397930802
17397936174
17397941239
17397949052
17397953630
17397959550
17397963822
17397971452
17397974381
17397982255
17397988603
17397994279
17398000321
17398005204
17398013444
17398019547
17398025407
17398032304
17398038102
17398043534
17398049393
17398055070
17398062394
17398066605
17398074113
17398078873
17398085282
17398091386
17398096818
17398099808
17398108414
17398115311
17398139786
17398145646
17398152115
17398158402
17398168229
17398173722
17398179032
17398184281
17398190323
17398194596
17398201859
17398206681
17398211747
17398217911
17398222245
17398228470
17398234635
17398240189
17398247391
17398253189
17398259720
17398265213
17398270828
17398277725
17398282120
17398288834
17398294815
17398300003
17398306595
17398311539
17398317520
17398323685
17398329727
17398335465
17398341080
17398346207
17398350296
17398356583
17398362259
17398367630
17398374893
17398379471
17398386307
17398390762
17398397537
17398404434
17398410110
17398415420
17398420914
17398427383
17398433304
17398438064
17398443252
17398448257
17398455520
17398460891
17398465652
17398472305
17398476272
17398482925
17398488907
17398495254
17398500381
17398505813
17398511551
17398517227
17398522781
17398528701
17398535232
17398539993
17398546035
17398552200
17398557876
17398564102
17398570266
17398577590
17398583206
17398589919
17398595352
17398600967
17398606948
17398613906
17398622756
17398629226
17398634048
17398642349
17398647659
17398653457
17398660720
17398666701
17398672317
17398677871
17398683303
17398687820
17398695022
17398698257
17398706435
17398712050
17398718032
17398723037
17398728530
17398734694
17398739638
17398746413
17398751723
17398757399
17398763198
17398769057
17398774917
17398780288
17398786086
17398791518
17398798110
17398802382
17398809523
17398815627
17398820754
17398825698
17398833205
17398837844
17398843947
17398849196
17398855727
17398861647
17398867385
17398874465
17398879958
17398885512
17398891493
17398897353
17398902113
17398908644
17398913344
17398920058
17398925795
17398931593
17398938124
17398943617
17398948500
17398954054
17398960463
17398966322
17398971754
17398977003
17398984206
17398989027
17398995131
17399001662
17399007582
17399013319
17399018690
17399026259
17399031386
17399037977
17399044325
17399050306
17399056105
17399061537
17399068617
17399074232
17399080153
17399086927
17399093275
17399098097
17399105238
17399109755
17399116102
17399121962
17399127272
17399133802
17399139173
17399146376
17399152235
17399161695
17399167066
17399171949
17399179701
17399188917
17399195631
17399204603
17399210767
17399217542
17399221510
17399228651
17399234266
17399239332
17399243971
17399250928
17399257520
17399263624
17399269544
17399275281
17399280836
17399286329
17399291456
17399297925
17399303235
17399307691
17399314283
17399319410
17399326124
17399331434
17399337964
17399344190
17399350110
17399356763
17399362745
17399368726
17399372998
17399379163
17399383741
17399390393
17399394849
17399399915
17399404737
17399411573
17399416577
17399423230
17399429639
17399434888
17399441358
17399447339
17399453931
17399459729
17399465589
17399470471
17399475659
17399481885
17399485913
17399491528
17399497327
17399502698
17399507581
17399513501
17399518079
17399524060
17399529981
17399535962
17399542065
17399548169
17399554211
17399559277
17399564038
17399569714
17399577283
17399582288
17399588574
17399593396
17399600598
17399606274
17399611584
17399614819
17399620923
17399626843
17399633191
17399639782
17399645215
17399649914
17399656506
17399662365
17399668103
17399674633
17399682812
17399688183
17399696240
17399704419
17399713757
17399721386
17399728100
17399733166
17399739636
17399745312
17399750012
17399756481
17399764538
17399770642
17399776989
17399781445
17399786694
17399791821
17399797619
17399801708
17399808972
17399814282
17399819958
17399824963
17399831554
17399836315
17399842724
17399847851
17399853161
17399858227
17399863354
17399868725
17399874035
17399879162
17399884594
17399890758
17399895580
17399902599
17399907421
17399912426
17399918102
17399922924
17399927318
17399934398
17399939953
17399946117
17399949352
17399955456
17399960033
17399966503
17399972301
17399978405
17399984142
17399990001
17399995800
17399999767
17400004955
17400010265
17400018077
17400023326
17400029003
17400035228
17400040599
17400045482
17400052074
17400057445
17400064464
17400070262
17400075817
17400081127
17400087169
17400093456
17400098338
17400105724
17400111461
17400117137
17400124034
17400130321
17400135631
17400141368
17400150279
17400154124
17400160289
17400166515
17400170543
17400175670
17400181102
17400188365
17400192821
17400199657
17400205516
17400213084
17400219981
17400226268
17400235057
17400243174
17400251597
17400256297
17400263804
17400270274
17400274546
17400281199
17400285960
17400293040
17400297618
17400304148
17400308726
17400317637
17400324046
17400330210
17400336253
17400341563
17400348765
17400354930
17400359934
17400365000
17400370371
17400376292
17400380930
17400387644
17400393687
17400399729
17400404856
17400410288
17400416209
17400421030
17400426646
17400431284
17400435801
17400443552
17400449473
17400455515
17400459238
17400466441
17400469614
17400477183
17400482432
17400487742
17400492625
17400498606
17400504465
17400509104
17400515085
17400520823
17400527476
17400534006
17400539621
17400544382
17400550425
17400554941
17400560740
17400565317
17400571604
17400575022
17400581919
17400587473
17400593637
17400599619
17400605722
17400612375
17400617075
17400623667
17400627817
17400634043
17400638559
17400644602
17400649240
17400655344
17400660471
17400666940
17400671884
17400679209
17400684519
17400691354
17400697275
17400703195
17400708749
17400713998
17400718393
17400723825
17400729501
17400733774
17400742624
17400751657
17400756784
17400764719
17400773202
17400780221
17400785776
17400794137
17400799692
17400805185
17400808908
17400817209
17400823190
17400829477
17400834848
17400839364
17400844919
17400849435
17400855478
17400861520
17400867257
17400872812
17400879892
17400887094
17400893624
17400900094
17400907540
17400912973
17400919137
17400924569
17400932138
17400937020
17400943124
17400949410
17400956185
17400959542
17400966317
17400970956
17400978768
17400984078
17400989755
17400996285
17401001840
17401007882
17401014291
17401019540
17401025399
17401031014
17401036202
17401044259
17401050484
17401055856
17401061349
17401066354
17401073312
17401077584
17401085396
17401090035
17401095956
17401100350
17401106576
17401112923
17401118477
17401124703
17401130501
17401136239
17401140633
17401149910
17401155526
17401161019
17401168770
17401174508
17401179879
17401185616
17401191048
17401195626
17401202462
17401209603
17401215523
17401221321
17401225838
17401231758
17401237679
17401243965
17401250313
17401255745
17401261421
17401266976
17401273262
17401280281
17401286995
17401296150
17401303108
17401308785
17401316658
17401324959
17401332405
17401339485
17401345772
17401350838
17401356941
17401362251
17401367622
17401372383
17401380134
17401385750
17401391182
17401396553
17401401375
17401407478
17401414558
17401419563
17401426460
17401431709
17401438179
17401444832
17401450264
17401456917
17401462715
17401469734
17401475471
17401481941
17401488227
17401494758
17401500801
17401506294
17401513130
17401519538
17401524177
17401532051
17401537239
17401542366
17401549140
17401555061
17401561164
17401569160
17401575385
17401581672
17401587837
17401591071
17401599616
17401606513
17401612251
17401617194
17401622565
17401628791
17401635871
17401643073
17401648444
17401655769
17401662604
17401667060
17401674140
17401680610
17401686652
17401692939
17401698371
17401704169
17401708259
17401715644
17401721625
17401727302
17401732917
17401739081
17401744635
17401750678
17401756720
17401761786
17401770026
17401777045
17401781989
17401789984
17401797370
17401803962
17401812751
17401820319
17401825446
17401832099
17401837104
17401844855
17401848334
17401857245
17401861884
17401868720
17401873297
17401878974
17401885504
17401891913
17401897101
17401903265
17401908942
17401915289
17401920844
17401925482
17401932318
17401937262
17401945441
17401951910
17401957342
17401962714
17401968146
17401973578
17401979437
17401986700
17401990912
17401997931
17402002630
17402009039
17402013678
17402019842
17402027105
17402032965
17402037787
17402043158
17402049749
17402055182
17402060003
17402065435
17402071600
17402077948
17402084600
17402089300
17402095098
17402100103
17402106268
17402110845
17402117315
17402123114
17402128851
17402132208
17402140142
17402146490
17402152044
17402158148
17402164068
17402169805
17402173834
17402180120
17402186285
17402191778
17402196478
17402204046
17402207708
17402215215
17402219976
17402226568
17402232610
17402238103
17402243658
17402249151
17402255559
17402261175
17402266180
17402273687
17402279058
17402285039
17402290105
17402294683
17402301763
17402309575
17402318853
17402328374
17402336309
17402346990
17402354314
17402363286
17402369695
17402373967
17402381658
17402386480
17402393377
17402396978
17402404790
17402408696
17402416326
17402422490
17402428472
17402433782
17402439519
17402444646
17402449101
17402456548
17402461369
17402467778
17402473393
17402479924
17402486821
17402491704
17402498296
17402502934
17402509404
17402516484
17402521550
17402528752
17402533391
17402540105
17402544682
17402551823
17402555058
17402563481
17402568730
17402574528
17402580937
17402586796
17402591557
17402596989
17402603215
17402607426
17402614384
17402620366
17402626286
17402632573
17402638066
17402643071
17402650639
17402655766
17402663395
17402669316
17402675724
17402681706
17402687138
17402693608
17402699467
17402705265
17402711369
17402718693
17402723393
17402729923
17402735417
17402742130
17402747990
17402753849
17402760929
17402766972
17402771916
17402776432
17402784123
17402789738
17402795780
17402802677
17402808231
17402815067
17402819157
17402826359
17402831120
17402837772
17402844364
17402850040
17402856632
17402862797
17402870365
17402874882
17402882450
17402888859
17402896244
17402901554
17402908390
17402914310
17402919925
17402925480
17402932316
17402937137
17402942630
17402949527
17402955387
17402963077
17402975223
17402989200
17402998905
17403007328
17403015567
17403022037
17403031742
17403039737
17403048709
17403056217
17403061832
17403067935
17403074283
17403080386
17403086551
17403091983
17403097781
17403104373
17403110843
17403116580
17403122684
17403128665
17403134402
17403140384
17403146732
17403152103
17403158450
17403164310
17403170169
17403175235
17403181338
17403189212
17403194888
17403200137
17403205813
17403210879
17403216861
17403223147
17403231631
17403235598
17403243228
17403249026
17403254458
17403259829
17403265445
17403271914
17403276919
17403283816
17403287478
17403294986
17403301638
17403306887
17403313296
17403319400
17403325015
17403330203
17403337588
17403341128
17403350100
17403354983
17403360659
17403367007
17403371951
17403378665
17403383730
17403389773
17403395388
17403402712
17403407534
17403413210
17403419436
17403425478
17403433291
17403442080
17403446963
17403453188
17403458742
17403466128
17403470095
17403478884
17403485415
17403491152
17403497194
17403501406
17403508852
17403513796
17403520632
17403525576
17403532839
17403538637
17403544130
17403547365
17403556704
17403560183
17403567629
17403574526
17403580507
17403587404
17403593447
17403598391
17403604250
17403609316
17403615602
17403626222
17403634584
17403641542
17403647219
17403652651
17403659853
17403666811
17403673464
17403678591
17403689760
17403695314
17403700929
17403707887
17403713625
17403719179
17403726625
17403733339
17403738466
17403745485
17403751955
17403755983
17403765016
17403769716
17403776613
17403779725
17403787050
17403792604
17403797731
17403804994
17403809511
17403816346
17403819398
17403827211
17403832643
17403837648
17403844911
17403849855
17403857240
17403862550
17403867799
17403873414
17403878907
17403884767
17403890748
17403897279
17403902040
17403908509
17403911683
17403920045
17403925843
17403931581
17403937318
17403942994
17403949708
17403954591
17403961122
17403965943
17403973329
17403982301
17403986939
17403995240
17404002076
17404007935
17404015565
17404022401
17404030457
17404035828
17404041871
17404048218
17404051636
17404060853
17404066407
17404072205
17404079651
17404086182
17404091614
17404099061
17404104493
17404110352
17404116150
17404121705
17404127991
17404133240
17404138611
17404143860
17404150696
17404156128
17404161621
17404169068
17404174988
17404180725
17404188050
17404193055
17404198426
17404204285
17404209595
17404215699
17404222046
17404228821
17404234497
17404240051
17404247193
17404255432
17404260498
17404267212
17404272827
17404277649
17404285156
17404292297
17404299439
17404306152
17404313416
17404320435
17404327393
17404332642
17404339355
17404344421
17404350281
17404356567
17404362305
17404368774
17404373779
17404380188
17404384521
17404391723
17404397522
17404402038
17404409363
17404417297
17404421997
17404428467
17404435669
17404440307
17404447937
17404453918
17404460754
17404467163
17404472168
17404482116
17404488342
17404494323
17404502258
17404509033
17404515380
17404520507
17404527709
17404535522
17404540588
17404546081
17404551269
17404557189
17404562682
17404569396
17404574889
17404580810
17404587524
17404593017
17404599059
17404605041
17404612121
17404617980
17404625549
17404631103
17404636657
17404642394
17404649291
17404655517
17404661376
17404666320
17404672179
17404679015
17404684020
17404691100
17404696715
17404702331
17404708800
17404714354
17404721190
17404727111
17404733031
17404737731
17404744445
17404751159
17404756896
17404762511
17404768187
17404773803
17404779357
17404786620
17404790892
17404798033
17404802611
17404809386
17404814147
17404821837
17404827819
17404833129
17404838988
17404844664
17404851073
17404855528
17404861815
17404867247
17404874693
17404880492
17404885069
17404891478
17404897887
17404903075
17404908568
17404914549
17404921751
17404927000
17404932494
17404937865
17404943846
17404950499
17404955076
17404961729
17404967833
17404973021
17404979429
17404983763
17404992308
17404998594
17405003966
17405011778
17405016600
17405024290
17405030699
17405036375
17405041685
17405050169
17405056273
17405062742
17405069090
17405074461
17405081785
17405086180
17405094114
17405098570
17405105772
17405111753
17405117369
17405122618
17405128050
17405134702
17405141111
17405147764
17405153867
17405159055
17405165647
17405171079
17405176817
17405182554
17405189390
17405194944
17405201292
17405205503
17405212339
17405218259
17405225034
17405230405
17405236143
17405242490
17405247922
17405253965
17405259458
17405265134
17405270872
17405277463
17405283323
17405289121
17405293882
17405301145
17405307126
17405312681
17405318784
17405324827
17405333982
17405342344
17405350827
17405357419
17405365598
17405372190
17405378781
17405386533
17405396299
17405404172
17405414670
17405424497
17405432065
17405440610
17405447873
17405457089
17405464658
17405473996
17405483518
17405492795
17405499509
17405509091
17405516110
17405524472
17405534116
17405542477
17405551388
17405560116
17405568356
17405576291
17405585141
17405592892
17405602475
17405610837
17405620175
17405628415
17405636471
17405644955
17405653317
17405661679
17405670773
17405679989
17405686947
17405696408
17405703182
17405712826
17405721310
17405731381
17405739559
17405747738
17405756832
17405763119
17405771420
17405777706
17405787594
17405795223
17405802547
17405810238
17405818111
17405825619
17405832210
17405840450
17405848019
17405855465
17405863949
17405871700
17405879635
17405887386
17405894710
17405902462
17405909664
17405918270
17405923763
17405931759
17405939632
17405948848
17405954891
17405961971
17405968013
17405978511
17405983028
17405993404
17406001338
17406008235
17406015682
17406023433
17406032100
17406037959
17406046016
17406051753
17406060359
17406066829
17406073177
17406082332
17406088985
17406096431
17406103877
17406114741
17406121516
17406127437
17406133601
17406141231
17406148982
17406155025
17406164363
17406172420
17406179317
17406187983
17406195552
17406203486
17406211787
17406219661
17406228022
17406236018
17406246577
17406252986
17406261225
17406268000
17406278865
17406286189
17406294184
17406302119
17406308345
17406316706
17406325068
17406334956
17406346613
17406356440
17406364375
17406372309
17406380854
17406389765
17406399653
17406410273
17406418879
17406427180
17406435847
17406441645
17406451838
17406457758
17406467036
17406472834
17406482233
17406488825
17406497675
17406504389
17406514887
17406522883
17406530939
17406540522
17406546137
17406556391
17406562677
17406573603
17406582514
17406590265
17406594782
17406599665
17406604181
17406608209
17406613825
17406618158
17406624079
17406628900
17406635919
17406639093
17406646539
17406649774
17406656976
17406661920
17406666620
17406670099
17406674799
17406680170
17406685480
17406692987
17406697198
17406703119
17406706537
17406711481
17406715021
17406719598
17406724542
17406729852
17406734552
17406739801
17406742914
17406749505
17406755243
17406759637
17406765741
17406770685
17406775812
17406779718
17406784601
17406788995
17406794488
17406799432
17406804864
17406807916
17406813714
17406818658
17406822686
17406827447
17406831475
17406839044
17406844049
17406849542
17406854242
17406858819
17406861749
17406867547
17406870660
17406878411
17406883111
17406886895
17406892572
17406898431
17406903497
17406908380
17406917962
17406923577
17406928277
17406934136
17406941216
17406946771
17406950799
17406957757
17406961358
17406966119
17406971307
17406976067
17406979913
17406986382
17406990899
17406997247
17407002068
17407006585
17407011285
17407016289
17407020745
17407025079
17407028985
17407035332
17407039361
17407046014
17407049493
17407055779
17407058892
17407065728
17407071038
17407075982
17407080254
17407085137
17407090264
17407094292
17407098748
17407104180
17407107415
17407113884
17407117791
17407125786
17407131157
17407135430
17407139336
17407145867
17407152398
17407159111
17407165032
17407169609
17407175286
17407180657
17407186089
17407191033
17407198479
17407203484
17407209221
17407213433
17407218498
17407224358
17407229790
17407236015
17407239617
17407248955
17407255669
17407260552
17407266716
17407271233
17407276970
17407283196
17407289726
17407293633
17407299675
17407303581
17407309135
17407314445
17407318535
17407323906
17407329277
17407335014
17407339531
17407343315
17407348137
17407351921
17407358330
17407362602
17407368461
17407372795
17407378471
17407383049
17407387626
17407392570
17407398552
17407403618
17407412712
17407418632
17407426017
17407433586
17407439079
17407445671
17407451652
17407457939
17407463798
17407472465
17407477592
17407482109
17407486747
17407492057
17407496574
17407500968
17407504875
17407511711
17407516471
17407521049
17407526542
17407531425
17407536857
17407541984
17407547538
17407551505
17407556144
17407562003
17407567802
17407571891
17407576225
17407581535
17407587516
17407593131
17407598380
17407602164
17407610587
17407616813
17407623099
17407627250
17407633720
17407639335
17407645133
17407651237
17407657645
17407663627
17407670280
17407674674
17407682548
17407686759
17407693046
17407698295
17407705069
17407710074
17407716300
17407720023
17407726554
17407732779
17407738761
17407744986
17407753043
17407756461
17407763846
17407770377
17407776664
17407780753
17407787039
17407792411
17407799430
17407807059
17407811881
17407817191
17407823599
17407828909
17407836051
17407842032
17407848624
17407854788
17407861197
17407866507
17407870963
17407880118
17407884024
17407890738
17407896902
17407902640
17407908865
17407915579
17407920889
17407927908
17407933035
17407937613
17407942679
17407951224
17407956228
17407963919
17407968619
17407974661
17407979605
17407987784
17407993094
17408000540
17408006949
17408013418
17408019461
17408024649
17408029776
17408037954
17408044058
17408052603
17408057363
17408063345
17408068533
17408075369
17408079946
17408083914
17408092031
17408095999
17408103628
17408108206
17408114187
17408119314
17408124990
17408130667
17408136831
17408141409
17408148611
17408155386
17408161550
17408168203
17408170339
17408178518
17408182546
17408189382
17408194692
17408201040
17408206106
17408211416
17408216726
17408223623
17408228872
17408236013
17408241872
17408248708
17408253103
17408259206
17408265188
17408268972
17408276906
17408281484
17408288686
17408294057
17408300283
17408305532
17408312917
17408319814
17408324880
17408330007
17408337148
17408343373
17408347402
17408356130
17408360707
17408368764
17408374807
17408382009
17408388356
17408395986
17408404836
17408407582
17408417714
17408425527
17408434438
17408441518
17408449635
17408458119
17408464162
17408475514
17408483876
17408492909
17408500539
17408509450
17408517506
17408523976
17408532643
17408541737
17408550221
17408558339
17408561879
17408577870
17408583973
17408593922
17408602711
17408609974
17408616810
17408622731
17408634022
17408643055
17408651844
17408658863
17408662403
17408673817
17408679920
17408690174
17408695912
17408705189
17408713001
17408719654
17408731983
17408738331
17408746632
17408756153
17408766834
17408775806
17408781666
17408789173
17408799061
17408813160
17408822681
17408826832
17408839832
17408849598
17408858753
17408866077
17408874683
17408881397
17408891285
17408898365
17408906421
17408913196
17408920520
17408928333
17408935535
17408940845
17408951343
17408955860
17408964283
17408974597
17408978076
17408987659
17408996326
17409003345
17409013904
17409017322
17409027149
17409035388
17409042774
17409050403
17409059375
17409067554
17409076709
17409083789
17409091296
17409098132
17409104968
17409110034
17409120166
17409127734
17409136401
17409141101
17409151050
17409157702
17409163012
17409172229
17409180163
17409188098
17409194751
17409203174
17409209765
17409215319
17409224109
17409231860
17409238452
17409245837
17409256213
17409262866
17409267932
17409277026
17409283435
17409292040
17409300768
17409307604
17409314440
17409322314
17409330126
17409337206
17409344775
17409351733
17409357409
17409366564
17409374194
17409382189
17409389147
17409397082
17409404040
17409412218
17409419237
17409425646
17409434984
17409441637
17409446886
17409457567
17409465136
17409473253
17409480883
17409487902
17409497423
17409503893
17409511034
17409518480
17409527819
17409532457
17409543566
17409550096
17409553087
17409563585
17409571764
17409579821
17409587755
17409596788
17409604173
17409610399
17409620104
17409627794
17409638170
17409646227
17409652147
17409662645
17409670519
17409679735
17409688158
17409695116
17409705614
17409713426
17409724107
17409731859
17409741563
17409748033
17409755418
17409763902
17409771226
17409779100
17409785814
17409791246
17409798021
17409803453
17409808763
17409814805
17409821214
17409827378
17409832872
17409836412
17409845079
17409848802
17409857286
17409864305
17409870225
17409875962
17409886399
17409892747
17409897996
17409904038
17409910386
17409915269
17409920457
17409927842
17409932847
17409938889
17409944260
17409949815
17409953172
17409962449
17409967149
17409972398
17409978257
17409985825
17409992905
17409997910
17410003220
17410009507
17410015671
17410021775
17410027146
17410033555
17410038682
17410045884
17410050522
17410056748
17410062607
17410067978
17410073899
17410075852
17410085190
17410088852
17410096421
17410101304
17410107651
17410112534
17410118332
17410125107
17410133469
17410138474
17410143174
17410148362
17410155136
17410161240
17410166489
17410171311
17410178513
17410184372
17410190415
17410195725
17410202255
17410208481
17410212265
17410218796
17410223068
17410230087
17410235764
17410242539
17410248825
17410253525
17410257919
17410265121
17410270981
17410277878
17410282455
17410288193
17410292587
17410299240
17410304550
17410308395
17410315964
17410319687
17410326706
17410331650
17410338119
17410345077
17410351791
17410357528
17410363083
17410369186
17410378280
17410383224
17410390854
17410396347
17410403732
17410409591
17410416061
17410420517
17410428085
17410432602
17410439621
17410444015
17410451095
17410456832
17410460556
17410467636
17410471298
17410480697
17410484603
17410492233
17410497116
17410502365
17410507308
17410514144
17410518539
17410525802
17410532882
17410537643
17410543624
17410548507
17410554977
17410559127
17410566634
17410570602
17410578719
17410582931
17410590804
17410597640
17410603377
17410609664
17410614486
17410619491
17410627364
17410631209
17410637862
17410643661
17410650313
17410655257
17410661544
17410666793
17410671981
17410676742
17410683089
17410689803
17410695235
17410699691
17410703536
17410711348
17410714949
17410722396
17410726363
17410733443
17410738753
17410744979
17410750411
17410757125
17410761702
17410767867
17410772322
17410778548
17410784224
17410790572
17410795210
17410801070
17410806441
17410810042
17410818892
17410822432
17410829573
17410833479
17410841109
17410846236
17410851485
17410856245
17410864973
17410870650
17410878340
17410883223
17410888472
17410893599
17410900679
17410905440
17410912764
17410917219
17410920698
17410930159
17410933821
17410940291
17410945357
17410952254
17410957258
17410968611
17410974470
17410980635
17410988081
17410993147
17410997969
17411006880
17411013289
17411021894
17411028120
17411034407
17411038984
17411045088
17411050642
17411056318
17411059797
17411069197
17411072676
17411080488
17411083967
17411091169
17411096052
17411101179
17411106306
17411114362
17411119428
17411124494
17411129682
17411136701
17411141462
17411146406
17411152815
17411158979
17411165205
17411168806
17411175520
17411179487
17411186567
17411191999
17411198469
17411203718
17411210859
17411216962
17411223005
17411228010
17411233137
17411238325
17411245527
17411249982
17411255964
17411262983
17411267804
17411274579
17411278730
17411286237
17411291425
17411296674
17411302533
17411308088
17411312543
17411319989
17411326093
17411331403
17411337201
17411341840
17411348859
17411355756
17411361615
17411366559
17411373456
17411379926
17411384259
17411387677
17411396527
17411400739
17411410077
17411414105
17411421552
17411425275
17411431561
17411436200
17411441693
17411446393
17411454938
17411461285
17411466595
17411471661
17411477765
17411482281
17411486371
17411495099
17411501996
17411507794
17411513104
17411518536
17411524457
17411529523
17411533002
17411541241
17411545453
17411552106
17411559125
17411564435
17411574200
17411579510
17411585614
17411590985
17411599163
17411604901
17411613446
17411617779
17411626202
17411632367
17411637493
17411643414
17411648663
17411653912
17411660809
17411666119
17411672100
17411677654
17411683453
17411689617
17411695355
17411701275
17411706585
17411713299
17411719219
17411723614
17411729961
17411734478
17411740276
17411746746
17411752728
17411758892
17411763836
17411769207
17411774639
17411779949
17411786236
17411793377
17411800213
17411806927
17411811687
17411817669
17411822613
17411829754
17411834392
17411838116
17411848125
17411853496
17411861065
17411866802
17411874248
17411880657
17411888775
17411895855
17411904400
17411909587
17411915447
17411920147
17411926738
17411933940
17411938945
17411945110
17411951274
17411957622
17411963420
17411968059
17411971782
17411981121
17411985576
17411992717
17411998454
17412005779
17412012248
17412018779
17412024333
17412030193
17412035320
17412042278
17412049052
17412051433
17412061137
17412067790
17412073283
17412077800
17412083842
17412087566
17412096599
17412100200
17412108989
17412115092
17412121257
17412125163
17412132304
17412138286
17412143474
17412148845
17412156840
17412162333
17412168010
17412172954
17412178691
17412183329
17412190043
17412196391
17412203715
17412210185
17412216410
17412224650
17412230632
17412239115
17412244792
17412255473
17412259013
17412265910
17412272013
17412278361
17412284831
17412290629
17412298808
17412305522
17412314555
17412318888
17412327189
17412333292
17412338480
17412344950
17412349772
17412354594
17412360758
17412365763
17412371561
17412377421
17412382731
17412387186
17412395243
17412399821
17412406046
17412411295
17412417094
17412423075
17412425089
17412433634
17412437784
17412445597
17412449259
17412456217
17412460184
17412468180
17412473368
17412478800
17412484720
17412490458
17412494974
17412501322
17412508463
17412513346
17412519144
17412525003
17412530985
17412535074
17412543863
17412549784
17412554972
17412561441
17412565897
17412571451
17412578592
17412582804
17412591532
17412596781
17412603250
17412609537
17412617166
17412623697
17412628458
17412632913
17412639139
17412644388
17412652017
17412656473
17412661661
17412668558
17412674966
17412680093
17412684244
17412694376
17412698404
17412704996
17412710855
17412716409
17412722330
17412728799
17412733804
17412742044
17412749490
17412754678
17412759134
17412765725
17412771402
17412776468
17412782205
17412788308
17412794534
17412799051
17412806192
17412810830
17412817544
17412826272
17412828653
17412838235
17412844766
17412852761
17412860757
17412866983
17412874063
17412879434
17412885598
17412890420
17412897622
17412902627
17412907510
17412912576
17412919961
17412924661
17412929971
17412936074
17412941201
17412945596
17412951760
17412959206
17412965981
17412970071
17412976540
17412981118
17412988015
17412992776
17412999123
17413003640
17413012063
17413017983
17413025612
17413031960
17413037758
17413044045
17413050149
17413056069
17413060952
17413066140
17413072915
17413077675
17413083840
17413089760
17413093544
17413100502
17413104897
17413113076
17413116738
17413122292
17413127175
17413135170
17413142128
17413145912
17413152321
17413157875
17413163063
17413169838
17413174660
17413182045
17413188027
17413191628
17413198708
17413205544
17413210304
17413215248
17413220619
17413225441
17413233070
17413237648
17413244057
17413249550
17413256569
17413261940
17413268349
17413272804
17413279396
17413284706
17413291664
17413296486
17413301369
17413307106
17413313270
17413318703
17413323097
17413329811
17413334389
17413340492
17413345924
17413352333
17413356971
17413360389
17413367836
17413371376
17413377968
17413381569
17413391151
17413394813
17413401344
17413407447
17413413368
17413417823
17413426185
17413434364
17413441871
17413449256
17413454078
17413460853
17413466163
17413469825
17413480323
17413490882
17413496009
17413502662
17413507789
17413512733
17413517188
17413522620
17413526954
17413534095
17413542152
17413550819
17413557410
17413562720
17413567664
17413574134
17413578590
17413583594
17413589393
17413596290
17413600806
17413605750
17413612647
17413619727
17413624488
17413630530
17413635291
17413639014
17413646338
17413651587
17413657813
17413664161
17413670569
17413676612
17413681189
17413687964
17413693457
17413697608
17413702124
17413708838
17413716285
17413722937
17413729956
17413735266
17413741980
17413746558
17413753638
17413757239
17413764807
17413770850
17413777503
17413783240
17413788611
17413795752
17413801062
17413806128
17413812781
17413817786
17413825781
17413830786
17413837683
17413843970
17413848059
17413854590
17413860876
17413867651
17413873389
17413878821
17413883704
17413890539
17413897192
17413902258
17413907263
17413910986
17413918493
17413925329
17413931006
17413935034
17413943030
17413948889
17413953772
17413959631
17413968359
17413973547
17413979284
17413985510
17413989538
17413997229
17414004431
17414009558
17414014990
17414021032
17414026403
17414031652
17414036962
17414045202
17414051306
17414058569
17414063391
17414071081
17414077917
17414085790
17414091833
17414097021
17414103307
17414110143
17414117407
17414123266
17414129491
17414135351
17414141027
17414147192
17414151708
17414158178
17414165014
17414171545
17414176000
17414179479
17414188024
17414191869
17414198095
17414203588
17414210363
17414215795
17414221227
17414226354
17414231847
17414236791
17414243749
17414248754
17414254857
17414259740
17414263952
17414272252
17414275914
17414281408
17414287450
17414293493
17414298131
17414303502
17414308568
17414317662
17414323033
17414329442
17414334020
17414339330
17414346471
17414350865
17414357884
17414362096
17414368871
17414373204
17414381078
17414386510
17414392735
17414398351
17414405492
17414410985
17414418614
17414425267
17414431310
17414438207
17414444371
17414449376
17414453099
17414462010
17414468297
17414474583
17414480321
17414486058
17414490636
17414497655
17414502904
17414506444
17414513829
17414517552
17414527806
17414531956
17414540684
17414544529
17414551304
17414556614
17414562535
17414566868
17414574192
17414579808
17414585728
17414590428
17414596959
17414602818
17414609837
17414614598
17414622227
17414629246
17414635227
17414641209
17414647373
17414655064
17414661473
17414667454
17414676548
17414684971
17414695530
17414705906
17414711643
17414722202
17414730381
17414736729
17414749180
17414755161
17414769993
17414778294
17414788853
17414793186
17414801670
17414808506
17414813938
17414823398
17414831638
17414840244
17414848057
17414855625
17414862156
17414867405
17414876865
17414884678
17414891513
17414898288
17414901035
17414913303
17414918857
17414929782
17414934360
17414944065
17414951450
17414954746
17414965671
17414973728
17414983981
17414991489
17414998935
17415008090
17415014072
17415022189
17415028964
17415036960
17415044833
17415050754
17415061679
17415066989
17415076633
17415083224
17415091037
17415098178
17415105868
17415113559
17415118625
17415130099
17415137485
17415144687
17415155246
17415162753
17415169223
17415176242
17415183261
17415190463
17415198336
17415207370
17415212680
17415219760
17415228793
17415231662
17415243930
17415249728
17415258151
17415265536
17415275790
17415283175
17415289889
17415305514
17415313998
17415324374
17415329745
17415340304
17415348177
17415354098
17415364291
17415372530
17415379732
17415387179
17415392794
17415402132
17415410921
17415417635
17415425020
17415434725
17415442049
17415446932
17415456881
17415461214
17415471102
17415477633
17415480379
17415492647
17415500704
17415508516
17415515474
17415522982
17415529146
17415533907
17415543367
17415548189
17415555147
17415561434
17415570528
17415576814
17415585054
17415590914
17415595857
17415607149
17415615328
17415623384
17415630403
17415633577
17415655733
17415666170
17415672639
17415681978
17415688447
17415691621
17415706392
17415709688
17415720003
17415725435
17415735872
17415742647
17415750642
17415757905
17415766755
17415774385
17415777498
17415792878
17415798433
17415807405
17415815278
17415822663
17415830293
17415833345
17415845979
17415849458
17415862763
17415871186
17415879060
17415886201
17415892426
17415899323
17415904755
17415914765
17415924653
17415932343
17415938813
17415947785
17415955231
17415958344
17415969208
17415977509
17415985566
17415993622
17416003205
17416010407
17416013581
17416023652
17416032136
17416038544
17416046052
17416054230
17416061676
17416066925
17416076325
17416083832
17416091095
17416097504
17416104157
17416113129
17416118317
17416125763
17416132599
17416141510
17416147980
17416156159
17416162018
17416166657
17416176544
17416183746
17416188629
17416196564
17416199738
17416210053
17416215302
17416224762
17416231293
17416238373
17416244293
17416251129
17416257050
17416261749
17416272736
17416279938
17416287018
17416292938
17416301605
17416307831
17416312774
17416322845
17416330475
17416338470
17416345916
17416355194
17416362274
17416368438
17416376251
17416382965
17416391754
17416398712
17416404022
17416417816
17416426422
17416433624
17416441131
17416447784
17416455352
17416463714
17416470611
17416477691
17416489410
17416497833
17416504913
17416514312
17416522063
17416532134
17416539947
17416548553
17416557098
17416567840
17416577422
17416584991
17416591338
17416597808
17416605376
17416610442
17416617339
17416624175
17416628936
17416635222
17416640105
17416645842
17416651885
17416659026
17416663421
17416667449
17416677275
17416683135
17416689360
17416694243
17416698638
17416703460
17416710845
17416714324
17416723479
17416727324
17416735015
17416738555
17416745268
17416750395
17416755950
17416760283
17416766631
17416773406
17416778899
17416783721
17416790373
17416796965
17416801299
17416806365
17416816008
17416820708
17416826201
17416832243
17416834135
17416843413
17416849455
17416853789
17416860136
17416865935
17416869658
17416877226
17416880766
17416888945
17416892485
17416899626
17416903105
17416911284
17416916533
17416929350
17416934721
17416946318
17416955290
17416962614
17416971281
17416978666
17416985319
17416991911
17416998198
17417002226
17417007109
17417011381
17417017057
17417022428
17417027189
17417032865
17417037199
17417041471
17417045866
17417051298
17417055998
17417060209
17417064787
17417069303
17417073759
17417078398
17417082853
17417088773
17417093168
17417099088
17417103666
17417110502
17417115751
17417121854
17417128385
17417133512
17417139738
17417145170
17417149931
17417156095
17417161283
17417167509
17417172208
17417178068
17417182950
17417186979
17417191312
17417197355
17417200345
17417207181
17417210111
17417217008
17417221830
17417226652
17417230741
17417235990
17417240506
17417245633
17417250882
17417256620
17417263028
17417269437
17417274869
17417280423
17417285428
17417289579
17417293119
17417301419
17417304837
17417312650
17417316068
17417321927
17417327054
17417332791
17417337674
17417344754
17417349881
17417355618
17417360318
17417366727
17417370023
17417376248
17417381741
17417387845
17417394681
17417399381
17417404508
17417411832
17417416653
17417422086
17417428311
17417433560
17417439236
17417444546
17417449918
17417455167
17417461270
17417466580
17417472562
17417477872
17417484952
17417488736
17417495206
17417500088
17417506924
17417512845
17417517788
17417524502
17417529446
17417535611
17417541531
17417545254
17417551968
17417555569
17417562649
17417566433
17417573391
17417579739
17417585598
17417590359
17417596218
17417601528
17417605923
17417609768
17417618679
17417623501
17417629116
17417634426
17417640591
17417646023
17417652432
17417659878
17417666836
17417675625
17417680386
17417689846
17417694241
17417704128
17417708645
17417718533
17417724880
17417730862
17417736355
17417740444
17417747219
17417753567
17417759914
17417766567
17417772610
17417777370
17417783657
17417788723
17417792202
17417801418
17417805202
17417813381
17417817531
17417824489
17417831264
17417837185
17417842312
17417848171
17417855007
17417861232
17417866054
17417872341
17417878627
17417884060
17417888393
17417891872
17417900051
17417903713
17417911403
17417915004
17417922328
17417925746
17417933254
17417936794
17417944118
17417949184
17417957424
17417961879
17417968288
17417973720
17417980434
17417985744
17417992580
17417997524
17418005031
17418009914
17418015468
17418022182
17418024257
17418032619
17418036586
17418044215
17418049281
17418056789
17418060451
17418066920
17418071681
17418077846
17418082728
17418088588
17418092799
17418101039
17418105678
17418112452
17418117335
17418123561
17418129481
17418134547
17418140895
17418146388
17418153712
17418157740
17418166041
17418169764
17418177394
17418182765
17418188990
17418193873
17418202967
17418209742
17418215296
17418219996
17418226954
17418232508
17418240809
17418247340
17418253871
17418259486
17418266993
17418274867
17418280421
17418286829
17418295069
17418302393
17418311610
17418318324
17418322901
17418329066
17418337611
17418342738
17418350489
17418357935
17418363673
17418370875
17418377283
17418381983
17418387842
17418394007
17418400294
17418405054
17418411951
17418418848
17418421900
17418431543
17418434717
17418441919
17418445337
17418453394
17418456873
17418464563
17418469812
17418475916
17418480799
17418487390
17418492639
17418497766
17418502222
17418511621
17418517176
17418523279
17418528833
17418534693
17418538965
17418544336
17418550379
17418558313
17418562952
17418570398
17418574915
17418580835
17418586450
17418591333
17418598230
17418602075
17418609155
17418613550
17418622400
17418626855
17418633447
17418637903
17418645410
17418649683
17418660547
17418665124
17418672388
17418676599
17418685327
17418689355
17418698388
17418704492
17418710657
17418717492
17418724084
17418728113
17418735315
17418738977
17418746118
17418750024
17418757348
17418762292
17418769799
17418774926
17418778833
17418787072
17418791040
17418798059
17418804589
17418811853
17418817529
17418822839
17418827355
17418833825
17418841027
17418846093
17418851037
17418858911
17418864037
17418870202
17418876183
17418883691
17418890283
17418896935
17418904321
17418906640
17418920068
17418928490
17418933434
17418939233
17418945458
17418953881
17418959313
17418968957
17418973900
17418982201
17418987450
17418992577
17418998192
17419004845
17419009484
17419015893
17419021874
17419027794
17419032494
17419038231
17419044335
17419046471
17419055870
17419059777
17419066491
17419072350
17419077416
17419084862
17419090599
17419095299
17419101464
17419106713
17419115013
17419120690
17419126793
17419133080
17419137902
17419142967
17419150414
17419155113
17419158714
17419165856
17419171959
17419178673
17419184593
17419189415
17419193749
17419200157
17419205345
17419212364
17419218895
17419223473
17419229637
17419234337
17419240318
17419246178
17419251488
17419259361
17419264488
17419268394
17419275963
17419282738
17419288536
17419294273
17419300194
17419305504
17419312706
17419318748
17419324608
17419330711
17419333091
17419341209
17419344505
17419352623
17419356834
17419365013
17419369163
17419377464
17419381675
17419389732
17419393699
17419400108
17419406272
17419412437
17419418174
17419423912
17419428855
17419436119
17419442283
17419447532
17419452537
17419463584
17419470786
17419478050
17419483299
17419489524
17419496665
17419502158
17419507896
17419513755
17419519675
17419525718
17419530051
17419535911
17419542136
17419549766
17419556113
17419567344
17419571677
17419579185
17419583396
17419591758
17419595664
17419604575
17419608481
17419615622
17419619895
17419627158
17419629294
17419637229
17419640647
17419647971
17419652182
17419659201
17419663779
17419673423
17419678061
17419683921
17419690085
17419694846
17419698264
17419707480
17419712729
17419718344
17419721762
17419728476
17419731833
17419740134
17419744101
17419752341
17419756369
17419764975
17419771872
17419776694
17419781455
17419787680
17419792502
17419799948
17419805258
17419811118
17419819418
17419825644
17419831015
17419837546
17419844748
17419852133
17419857504
17419863791
17419868796
17419874838
17419880881
17419885946
17419890463
17419899435
17419904623
17419909567
17419914206
17419920797
17419926535
17419931234
17419936972
17419943625
17419950766
17419953085
17419961752
17419965536
17419973227
17419978414
17419984701
17419990805
17419999350
17420003805
17420010885
17420016012
17420022421
17420027975
17420033590
17420038412
17420042318
17420051473
17420058798
17420063802
17420070028
17420074728
17420079916
17420087240
17420092916
17420099691
17420105611
17420112447
17420116964
17420124349
17420130575
17420138570
17420143148
17420155782
17420162191
17420168661
17420176473
17420181600
17420187032
17420191976
17420196737
17420206441
17420216207
17420220540
17420226461
17420231099
17420237630
17420242940
17420250264
17420255513
17420262471
17420267171
17420273275
17420279073
17420285237
17420289815
17420294210
17420302693
17420306356
17420313558
17420318318
17420324544
17420329915
17420336446
17420342366
17420349141
17420354573
17420360249
17420364949
17420371724
17420377095
17420383016
17420387959
17420392049
17420401204
17420405965
17420414815
17420419392
17420427022
17420431111
17420438069
17420444356
17420448689
17420455220
17420459675
17420465840
17420470112
17420475423
17420483418
17420489155
17420497273
17420501851
17420508381
17420512898
17420519246
17420523762
17420529255
17420536458
17420538472
17420549336
17420556782
17420562703
17420564961
17420575093
17420581135
17420588154
17420595600
17420599995
17420606221
17420611592
17420618428
17420624348
17420628864
17420637348
17420643086
17420648274
17420653278
17420658711
17420664021
17420671467
17420676106
17420681843
17420688679
17420694965
17420701679
17420707111
17420711628
17420718647
17420724262
17420728046
17420735554
17420739582
17420746967
17420751850
17420758381
17420764667
17420770099
17420774921
17420782490
17420788593
17420798176
17420807514
17420812458
17420817035
17420825031
17420828937
17420835773
17420839740
17420846820
17420852192
17420857257
17420860859
17420868305
17420871662
17420878254
17420882221
17420888996
17420894489
17420900775
17420905658
17420911273
17420915729
17420922504
17420927326
17420935748
17420940448
17420948322
17420954242
17420959979
17420964618
17420970905
17420976825
17420980548
17420988544
17420992328
17420999347
17421005206
17421011066
17421015948
17421022235
17421027179
17421035907
17421040973
17421047259
17421052447
17421058429
17421064471
17421069415
17421074603
17421079242
17421087604
17421091266
17421097308
17421103290
17421110431
17421115924
17421123004
17421128253
17421135577
17421143023
17421147784
17421152118
17421158953
17421163775
17421169635
17421175555
17421184283
17421189471
17421195819
17421200335
17421203936
17421213030
17421216571
17421224139
17421229876
17421235430
17421239947
17421246783
17421251971
17421260638
17421265399
17421271502
17421276690
17421280474
17421290118
17421294634
17421301714
17421307146
17421312884
17421316363
17421323931
17421329241
17421334551
17421339129
17421345232
17421350359
17421357317
17421361712
17421367937
17421373797
17421380144
17421390093
17421397356
17421403765
17421409868
17421416277
17421421343
17421425860
17421434404
17421444048
17421450701
17421454973
17421459368
17421464861
17421470781
17421477922
17421481462
17421488298
17421493120
17421498979
17421503801
17421508562
17421515154
17421523210
17421528703
17421534197
17421538408
17421544939
17421549333
17421556108
17421560381
17421567644
17421573686
17421579302
17421583696
17421586931
17421595354
17421598955
17421607072
17421611162
17421619707
17421623613
17421630632
17421635454
17421641618
17421646989
17421652238
17421658586
17421664689
17421670366
17421675859
17421680925
17421687822
17421694169
17421700212
17421705095
17421708879
17421719133
17421723466
17421731096
17421734880
17421741472
17421748552
17421754167
17421758866
17421765947
17421771440
17421778459
17421784806
17421789628
17421796403
17421801164
17421807389
17421811601
17421820512
17421824601
17421833329
17421837541
17421843766
17421850602
17421856889
17421861710
17421869035
17421875565
17421880631
17421886674
17421890824
17421899003
17421903458
17421910355
17421915910
17421924638
17421931718
17421936600
17421941727
17421948502
17421954423
17421960160
17421966752
17421971757
17421980301
17421987076
17421993180
17422002152
17422008072
17422014237
17422023087
17422029313
17422037919
17422044388
17422052933
17422055497
17422066178
17422070389
17422078018
17422084122
17422092545
17422096573
17422103775
17422107437
17422114334
17422119461
17422142471
17422147598
17422154617
17422159805
17422166702
17422171158
17422176712
17422183792
17422187698
17422194901
17422202347
17422208145
17422211685
17422219559
17422225235
17422230484
17422236038
17422241959
17422246658
17422252090
17422257034
17422262527
17422268204
17422273269
17422278396
17422282120
17422290725
17422295059
17422301834
17422305557
17422312027
17422316238
17422321975
17422326492
17422333511
17422338882
17422344375
17422350113
17422354934
17422360977
17422367385
17422372146
17422375930
17422383010
17422388870
17422393630
17422398635
17422403457
17422409072
17422414199
17422418899
17422424819
17422429824
17422434890
17422440017
17422446975
17422451186
17422457961
17422463516
17422468459
17422474746
17422480911
17422486465
17422490005
17422496535
17422499831
17422505141
17422512649
17422520034
17422525344
17422531386
17422535598
17422541457
17422547744
17422549880
17422558486
17422563064
17422572829
17422579299
17422584853
17422591872
17422597915
17422604262
17422611220
17422618117
17422627272
17422635024
17422645766
17422655654
17422664626
17422675368
17422678908
17422689711
17422698378
17422711440
17422716384
17422720290
17422746169
17422754836
17422762892
17422772047
17422779799
17422785902
17422798415
17422803725
17422813185
17422819838
17422825758
17422836684
17422842482
17422853895
17422861830
17422871779
17422879774
17422888136
17422894667
17422899855
17422910048
17422918470
17422924452
17422933790
17422936781
17422950453
17422959059
17422964491
17422971083
17422980055
17422987379
17422992628
17423000868
17423008131
17423021070
17423026014
17423035169
17423042249
17423047498
17423057935
17423065504
17423072340
17423079359
17423085035
17423097547
17423106519
17423113355
17423120985
17423128980
17423136243
17423144849
17423153455
17423161024
17423172315
17423179944
17423187208
17423193982
17423202833
17423210889
17423218213
17423221326
17423232984
17423239331
17423248243
17423256238
17423263562
17423272657
17423275586
17423287122
17423291577
17423301404
17423308118
17423314954
17423324048
17423329846
17423340283
17423345227
17423353528
17423363355
17423370862
17423378064
17423385999
17423395398
17423403027
17423410596
17423418042
17423424817
17423431470
17423440442
17423448620
