17554211286
17554217512
17554222883
17554228864
17554234052
17554239851
17554245222
17554250715
17554257062
17554262372
17554268415
17554273908
17554279706
17554285627
17554291364
17554296125
17554300947
17554307294
17554314313
17554324262
17554331098
17554338300
17554346051
17554353681
17554359784
17554367048
17554372968
17554376996
17554384320
17554391462
17554398847
17554404584
17554411054
17554419721
17554425214
17554433454
17554440167
17554447370
17554453229
17554461896
17554471723
17554480328
17554487409
17554494733
17554502057
17554508405
17554514081
17554522748
17554528790
17554539105
17554545758
17554552777
17554559552
17554564862
17554574261
17554580548
17554589093
17554595807
17554601483
17554610272
17554616559
17554623944
17554630597
17554637921
17554644879
17554649945
17554658062
17554664044
17554670941
17554677777
17554686077
17554694805
17554701519
17554709088
17554715313
17554722515
17554732159
17554739788
17554749005
17554754803
17554762493
17554771771
17554777935
17554783794
17554793926
17554801434
17554808880
17554814556
17554822124
17554829510
17554837322
17554845318
17554851360
17554858929
17554866375
17554874187
17554878704
17554888531
17554895428
17554904217
17554911175
17554918438
17554926250
17554934429
17554944988
17554953045
17554965496
17554973430
17554986187
17554998760
17555007122
17555016338
17555021282
17555031230
17555038677
17555046062
17555052837
17555059245
17555065410
17555074199
17555078655
17555088176
17555092632
17555101665
17555109172
17555119243
17555128703
17555138225
17555145549
17555155437
17555160441
17555170329
17555176494
17555186992
17555190837
17555202006
17555209941
17555217692
17555224650
17555233439
17555240214
17555249736
17555255839
17555264933
17555272136
17555279826
17555285136
17555294291
17555302592
17555307841
17555316813
17555322856
17555331706
17555338297
17555347270
17555354167
17555361369
17555370402
17555379069
17555386210
17555393778
17555400309
17555410807
17555419962
17555426432
17555434794
17555444071
17555450602
17555460856
17555467264
17555474100
17555483134
17555492167
17555501627
17555510111
17555516886
17555526163
17555532328
17555539957
17555547648
17555557230
17555565226
17555573038
17555579325
17555586588
17555596903
17555606363
17555615091
17555624918
17555629251
17555639444
17555647562
17555656473
17555665811
17555671304
17555680887
17555686929
17555693582
17555702676
17555711038
17555717630
17555723856
17555731424
17555739786
17555746805
17555754922
17555761392
17555770791
17555778299
17555784952
17555793435
17555801553
17555808450
17555816446
17555822671
17555832559
17555839273
17555847024
17555857400
17555866861
17555873025
17555882730
17555890115
17555897256
17555904763
17555914956
17555921975
17555930276
17555938577
17555946328
17555955361
17555962686
17555972024
17555981423
17555988381
17555998696
17556010354
17556017007
17556026467
17556035500
17556043252
17556052773
17556061867
17556072121
17556080971
17556088601
17556100991
17556109231
17556118020
17556129189
17556138527
17556146767
17556155129
17556162209
17556170998
17556177407
17556188027
17556197060
17556205788
17556214455
17556220925
17556230141
17556238869
17556246987
17556255409
17556264443
17556272316
17556280312
17556289772
17556297035
17556305397
17556313576
17556321999
17556330543
17556338600
17556345985
17556353310
17556361610
17556370094
17556377662
17556385536
17556393287
17556400062
17556408912
17556415382
17556422767
17556428993
17556439552
17556443824
17556453590
17556461830
17556469642
17556482276
17556488929
17556496986
17556505104
17556511024
17556521400
17556525489
17556535011
17556543373
17556551490
17556558936
17556567359
17556575233
17556581519
17556590675
17556599647
17556607032
17556614661
17556622901
17556629676
17556638770
17556646766
17556652991
17556662086
17556669044
17556677833
17556684974
17556694983
17556702308
17556706885
17556712867
17556719520
17556725440
17556730018
17556737891
17556743934
17556750953
17556756507
17556763160
17556768775
17556775794
17556780677
17556787207
17556793372
17556800147
17556805762
17556812476
17556818518
17556824866
17556830908
17556836157
17556841406
17556849280
17556855505
17556861792
17556867896
17556874121
17556880164
17556886572
17556891760
17556897925
17556903357
17556909766
17556916540
17556922949
17556929480
17556934790
17556943518
17556949316
17556956824
17556962744
17556972937
17556979468
17556989966
17556994604
17557001196
17557007300
17557012976
17557018591
17557024817
17557030310
17557036902
17557041906
17557047216
17557053564
17557056738
17557065405
17557072302
17557077307
17557083898
17557088537
17557096167
17557102636
17557110144
17557116613
17557121313
17557128027
17557133459
17557140234
17557145239
17557151037
17557157324
17557163610
17557169409
17557174352
17557180822
17557186071
17557192419
17557198888
17557204870
17557210058
17557214574
17557220922
17557227697
17557235448
17557241064
17557245458
17557251989
17557256261
17557263341
17557268346
17557274022
17557279821
17557284459
17557290624
17557294835
17557302160
17557307409
17557312963
17557319371
17557323827
17557330175
17557334935
17557340673
17557347020
17557354406
17557359777
17557364232
17557371251
17557378087
17557382909
17557389623
17557394322
17557400853
17557406041
17557412145
17557417516
17557424230
17557429845
17557437535
17557442052
17557446813
17557453832
17557460179
17557469212
17557477147
17557484593
17557491185
17557496800
17557503880
17557510716
17557516698
17557522191
17557529210
17557534154
17557540013
17557543187
17557550572
17557553868
17557561436
17557566990
17557572789
17557578587
17557584630
17557590306
17557595128
17557602330
17557606663
17557614171
17557621129
17557626866
17557631932
17557636021
17557642247
17557646946
17557653843
17557658360
17557663914
17557669529
17557674168
17557678746
17557685093
17557690464
17557696751
17557702305
17557708653
17557714390
17557720188
17557725865
17557731846
17557737827
17557744114
17557749912
17557756626
17557762302
17557768101
17557775303
17557782322
17557787083
17557795078
17557800083
17557806309
17557811741
17557817051
17557823399
17557830173
17557834751
17557839939
17557847446
17557853245
17557859531
17557864963
17557871128
17557877353
17557882419
17557888157
17557892124
17557902256
17557908664
17557913303
17557920505
17557926609
17557931430
17557937412
17557943027
17557948459
17557955051
17557959629
17557966098
17557971347
17557977329
17557982944
17557988559
17557995883
17558003696
17558012424
17558018283
17558024143
17558031589
17558042514
17558048007
17558054355
17558059299
17558066379
17558071628
17558078342
17558084689
17558090244
17558095676
17558101352
17558106601
17558112704
17558119662
17558124789
17558132175
17558138278
17558143893
17558148532
17558154269
17558161838
17558168368
17558174228
17558180209
17558186068
17558191623
17558197421
17558202914
17558209018
17558215121
17558221286
17558227206
17558232760
17558237460
17558243136
17558249179
17558255160
17558260043
17558267123
17558272555
17558278414
17558283786
17558289584
17558295199
17558301242
17558306979
17558312472
17558318026
17558323458
17558329196
17558334872
17558342013
17558347750
17558354098
17558358737
17558364901
17558371798
17558377291
17558380526
17558389010
17558393160
17558399447
17558405733
17558411837
17558418917
17558423495
17558429842
17558435458
17558441134
17558447054
17558453280
17558457918
17558464571
17558469149
17558474642
17558481722
17558487337
17558492769
17558498324
17558505526
17558511446
17558515535
17558522921
17558527559
17558533175
17558538973
17558544649
17558551119
17558558443
17558564241
17558570650
17558577608
17558582796
17558589083
17558594576
17558602999
17558608797
17558615328
17558621553
17558627168
17558633455
17558638887
17558644441
17558648653
17558655611
17558660616
17558666963
17558673250
17558678255
17558684236
17558690889
17558696565
17558704195
17558711153
17558717073
17558723299
17558729585
17558735445
17558739961
17558746431
17558754610
17558761018
17558765901
17558772310
17558779329
17558784639
17558790498
17558796724
17558802095
17558807710
17558813630
17558819246
17558825593
17558831941
17558838838
17558844148
17558850312
17558853486
17558861848
17558868013
17558873811
17558880220
17558885835
17558891206
17558896821
17558902619
17558908601
17558913789
17558919953
17558925874
17558930818
17558937776
17558942902
17558949983
17558955293
17558960969
17558964265
17558972016
17558977631
17558984223
17558989777
17558995271
17559000886
17559006440
17559012543
17559018281
17559024873
17559029450
17559035554
17559040314
17559046784
17559051362
17559058320
17559065827
17559071503
17559077118
17559082673
17559088349
17559094391
17559100068
17559106171
17559113312
17559118683
17559129120
17559135773
17559142670
17559148407
17559155671
17559161591
17559168305
17559174286
17559179596
17559185883
17559189057
17559198395
17559203827
17559209320
17559214447
17559220368
17559226837
17559232697
17559238617
17559244537
17559249725
17559255768
17559261383
17559266144
17559273468
17559278778
17559285919
17559289337
17559297211
17559301361
17559307953
17559313263
17559318939
17559324798
17559330719
17559337433
17559343658
17559349518
17559354156
17559360382
17559364960
17559373199
17559378631
17559384857
17559390533
17559396087
17559401703
17559407196
17559412445
17559417999
17559423675
17559429168
17559435394
17559441864
17559448700
17559453643
17559460357
17559465240
17559471038
17559475799
17559483001
17559488800
17559494476
17559500152
17559506561
17559512847
17559518402
17559524322
17559529998
17559535613
17559541595
17559547393
17559553802
17559559295
17559564422
17559571380
17559576141
17559582549
17559587188
17559593963
17559600127
17559605621
17559609710
17559615935
17559622527
17559628142
17559634185
17559638885
17559646026
17559652251
17559657561
17559663360
17559668792
17559674285
17559683928
17559689544
17559698882
17559706023
17559712493
17559719207
17559724883
17559730925
17559737273
17559742278
17559748931
17559754729
17559760588
17559766021
17559772429
17559777739
17559783293
17559789031
17559794890
17559800933
17559806426
17559812529
17559817473
17559824553
17559830962
17559836333
17559843169
17559848967
17559853789
17559861479
17559864836
17559872038
17559876860
17559884001
17559889738
17559896574
17559900542
17559908110
17559914824
17559920500
17559926298
17559932280
17559937102
17559943571
17559950285
17559954863
17559961333
17559966704
17559972624
17559978422
17559984282
17559990996
17559997038
17560002592
17560008207
17560013823
17560019499
17560025663
17560029814
17560036833
17560041655
17560048185
17560053007
17560059782
17560064909
17560070951
17560075895
17560084684
17560090483
17560095915
17560101957
17560107694
17560113004
17560118498
17560123258
17560128996
17560135160
17560141081
17560146696
17560153043
17560158964
17560164152
17560171415
17560176359
17560182157
17560186857
17560193754
17560199186
17560205534
17560211210
17560217435
17560221464
17560228422
17560235380
17560241544
17560248258
17560252958
17560260099
17560270170
17560275541
17560282438
17560287259
17560293912
17560298673
17560305631
17560310331
17560317716
17560323636
17560329190
17560335233
17560340787
17560346219
17560352018
17560358731
17560364591
17560370267
17560375089
17560381986
17560387235
17560395108
17560399991
17560407681
17560411527
17560418851
17560424283
17560429776
17560435697
17560442227
17560448026
17560453946
17560459317
17560463956
17560470792
17560475613
17560482083
17560488126
17560494534
17560500516
17560506070
17560511929
17560517544
17560522671
17560529019
17560535245
17560540616
17560546658
17560550931
17560558194
17560562405
17560569241
17560575650
17560580960
17560587857
17560592679
17560597256
17560604092
17560608853
17560616116
17560622708
17560628628
17560634610
17560640835
17560646878
17560652798
17560657864
17560664456
17560669644
17560676358
17560683499
17560688687
17560695645
17560701443
17560707119
17560712795
17560718411
17560722317
17560728542
17560735195
17560740627
17560746060
17560751797
17560757778
17560763943
17560771145
17560777676
17560783718
17560788906
17560800259
17560807644
17560814297
17560822780
17560826259
17560835537
17560842434
17560848720
17560855373
17560861233
17560866726
17560871486
17560878689
17560884487
17560893093
17560898342
17560904079
17560910183
17560916103
17560922817
17560928737
17560934597
17560939113
17560946132
17560951625
17560957241
17560962062
17560969570
17560974941
17560981777
17560987758
17560993495
17560999538
17561005458
17561011745
17561017726
17561022487
17561028591
17561034816
17561039211
17561045802
17561050746
17561058559
17561065212
17561071010
17561076259
17561081691
17561087184
17561092860
17561099635
17561106105
17561112514
17561117763
17561124904
17561130519
17561135890
17561140773
17561148280
17561153956
17561160121
17561166896
17561171229
17561178370
17561184657
17561189723
17561194484
17561202357
17561208522
17561214381
17561221400
17561225734
17561231837
17561237818
17561245387
17561250209
17561257655
17561260951
17561267909
17561274317
17561279933
17561285914
17561292262
17561298304
17561301722
17561310328
17561315821
17561320948
17561326746
17561332972
17561338770
17561344264
17561350855
17561356104
17561362513
17561367457
17561376734
17561386317
17561392786
17561398707
17561405848
17561410181
17561417445
17561422022
17561427820
17561434595
17561440516
17561445765
17561451075
17561456385
17561463343
17561469019
17561474939
17561480555
17561486048
17561492273
17561496546
17561503321
17561510401
17561517115
17561522120
17561527979
17561534388
17561540125
17561545374
17561552210
17561555689
17561564295
17561569361
17561575403
17561582056
17561586206
17561593592
17561600488
17561605860
17561612329
17561618616
17561623377
17561629114
17561633814
17561640711
17561646814
17561655115
17561662805
17561670190
17561678369
17561686365
17561694299
17561701257
17561707666
17561713769
17561718835
17561725183
17561730432
17561736535
17561741662
17561748010
17561752344
17561759118
17561764917
17561770654
17561776697
17561782495
17561788415
17561793725
17561800683
17561806909
17561812280
17561818444
17561825586
17561831811
17561837487
17561842675
17561849206
17561855310
17561860681
17561865136
17561870935
17561876184
17561883203
17561888879
17561894494
17561905114
17561911706
17561919518
17561927331
17561935449
17561942346
17561950158
17561955346
17561961388
17561967065
17561972619
17561978600
17561984277
17561990136
17561996300
17562002770
17562007104
17562013756
17562019738
17562025109
17562029870
17562037011
17562042077
17562048607
17562054162
17562062096
17562068200
17562073754
17562079491
17562085412
17562091210
17562096947
17562103234
17562109093
17562114464
17562120507
17562125878
17562133263
17562139122
17562144982
17562151390
17562154686
17562163780
17562168968
17562175316
17562181664
17562186180
17562194054
17562198754
17562205528
17562211632
17562217369
17562222923
17562229454
17562234459
17562241722
17562245018
17562253807
17562257103
17562266380
17562272484
17562278343
17562284325
17562288475
17562295189
17562299827
17562307091
17562314781
17562320213
17562326134
17562331932
17562337181
17562342613
17562349998
17562354576
17562361839
17562366905
17562373192
17562378380
17562383934
17562391624
17562397422
17562402916
17562407249
17562414024
17562420433
17562425621
17562431785
17562437889
17562444053
17562449485
17562457847
17562464988
17562471458
17562476097
17562486411
17562493186
17562500816
17562507163
17562512534
17562518943
17562524864
17562530174
17562536948
17562541648
17562548240
17562553184
17562560996
17562566978
17562572471
17562579368
17562583579
17562589561
17562595176
17562602073
17562608543
17562617148
17562621177
17562628806
17562634482
17562640586
17562646934
17562653220
17562658896
17562663169
17562670249
17562676230
17562681662
17562686057
17562692405
17562697776
17562704245
17562711203
17562717185
17562723044
17562727988
17562734153
17562737387
17562746543
17562752524
17562756980
17562763144
17562770041
17562775107
17562779868
17562787619
17562794516
17562800314
17562806418
17562811789
17562817221
17562823203
17562829306
17562835776
17562841635
17562847800
17562852377
17562859030
17562864035
17562870139
17562876608
17562882040
17562888693
17562893271
17562899069
17562903647
17562911093
17562917868
17562923788
17562929281
17562935263
17562940756
17562946921
17562953451
17562959921
17562965536
17562971640
17562976034
17562982870
17562987997
17562998190
17563005270
17563012899
17563019979
17563026876
17563033163
17563041281
17563046163
17563054037
17563057394
17563064901
17563070883
17563076742
17563084005
17563089926
17563094686
17563100912
17563107076
17563111715
17563118795
17563124410
17563131796
17563137960
17563142172
17563151815
17563158468
17563164083
17563170126
17563176168
17563181783
17563187765
17563193502
17563200399
17563205953
17563211812
17563218343
17563224019
17563229452
17563235616
17563241903
17563248556
17563253194
17563260824
17563265951
17563271505
17563278829
17563284566
17563290242
17563298421
17563305074
17563311177
17563319783
17563325399
17563330953
17563336751
17563342305
17563347371
17563353414
17563360128
17563366475
17563372029
17563378560
17563385030
17563389607
17563395406
17563400166
17563406697
17563413472
17563419148
17563425069
17563430928
17563436726
17563442708
17563447957
17563453511
17563459187
17563465291
17563471272
17563476949
17563482808
17563488789
17563494343
17563500508
17563505574
17563512715
17563518269
17563523518
17563529561
17563536397
17563542195
17563548420
17563554341
17563560933
17563567097
17563574421
17563579976
17563587544
17563593464
17563599873
17563606282
17563612019
17563618000
17563623982
17563630452
17563636738
17563641865
17563647847
17563654377
17563659748
17563666096
17563672322
17563677754
17563684345
17563690266
17563695576
17563701069
17563708088
17563714863
17563720051
17563724629
17563730488
17563736530
17563741901
17563748982
17563753742
17563760151
17563766438
17563771625
17563777485
17563783466
17563789081
17563795002
17563800800
17563805988
17563812580
17563817585
17563822834
17563828693
17563834675
17563840107
17563845295
17563851581
17563856037
17563862751
17563868000
17563874653
17563879047
17563885578
17563892414
17563898029
17563902729
17563907917
17563914325
17563920978
17563925922
17563930500
17563937519
17563942585
17563948566
17563954792
17563962482
17563967792
17563973102
17563978839
17563983356
17563989398
17563994769
17564002948
17564009540
17564015521
17564021137
17564026141
17564030963
17564035785
17564044086
17564049152
17564054645
17564060321
17564064532
17564071735
17564079608
17564085773
17564093585
17564099261
17564105792
17564109332
17564118854
17564126605
17564133075
17564138629
17564144183
17564150287
17564156573
17564162311
17564168170
17564172931
17564179156
17564184466
17564192767
17564197772
17564202838
17564210589
17564215594
17564223468
17564231280
17564235919
17564242633
17564248675
17564254534
17564259905
17564265582
17564269122
17564275897
17564280902
17564287493
17564292925
17564299456
17564305254
17564310809
17564317828
17564323504
17564329607
17564332964
17564340594
17564347247
17564351519
17564357195
17564361285
17564367754
17564371844
17564377459
17564384295
17564390215
17564395220
17564401690
17564406512
17564412798
17564417925
17564424456
17564430315
17564436297
17564443499
17564446917
17564455706
17564461565
17564467913
17564472551
17564478350
17564486101
17564489519
17564497942
17564502214
17564509356
17564513384
17564520647
17564526628
17564532244
17564538591
17564544817
17564550798
17564555742
17564562578
17564569231
17564574724
17564581255
17564587602
17564592790
17564600298
17564605547
17564610429
17564618303
17564626238
17564632646
17564639238
17564647661
17564658220
17564663286
17564668596
17564674882
17564681352
17564685808
17564691606
17564697221
17564702653
17564708452
17564714311
17564720537
17564726152
17564731340
17564736772
17564741899
17564747453
17564753190
17564757463
17564766557
17564771684
17564777604
17564782853
17564788896
17564795243
17564799638
17564805925
17564811906
17564816789
17564821305
17564827287
17564831926
17564837968
17564842729
17564849198
17564854264
17564859757
17564863114
17564870072
17564873673
17564881364
17564887101
17564893449
17564899735
17564906083
17564910905
17564917191
17564922440
17564928788
17564934464
17564940018
17564947221
17564956010
17564963639
17564973954
17564983109
17564990250
17564995316
17565002396
17565008195
17565014725
17565019547
17565026505
17565032487
17565038346
17565044510
17565050492
17565056229
17565061051
17565067032
17565071305
17565077652
17565081681
17565087235
17565092972
17565099381
17565104020
17565110062
17565115555
17565120316
17565124832
17565131974
17565140152
17565148636
17565154190
17565161331
17565170548
17565175369
17565182999
17565187699
17565194901
17565200638
17565206497
17565212296
17565218094
17565223709
17565230118
17565234757
17565240799
17565245987
17565250137
17565256119
17565260696
17565267105
17565274307
17565278763
17565283523
17565292374
17565298172
17565302994
17565309585
17565314102
17565320206
17565325577
17565330948
17565336014
17565342239
17565346817
17565352798
17565356949
17565364273
17565371048
17565375503
17565382400
17565386917
17565394363
17565399612
17565406204
17565411270
17565417251
17565422195
17565430435
17565435440
17565446670
17565455886
17565463272
17565472427
17565480483
17565489150
17565497695
17565508132
17565518752
17565526809
17565535232
17565542861
17565551772
17565561233
17565568252
17565577285
17565587844
17565595840
17565604262
17565612197
17565622573
17565631240
17565640029
17565648635
17565657241
17565666152
17565673720
17565681655
17565690322
17565697707
17565706008
17565714431
17565722731
17565730483
17565739394
17565746169
17565754714
17565767775
17565779494
17565793898
17565805190
17565819167
17565826308
17565836256
17565844679
17565851332
17565860304
17565869093
17565876356
17565885329
17565898695
17565919020
17565937391
17565955458
17565974318
17565992628
17566016981
17566036451
17566053968
17566062818
17566071119
17566079603
17566094984
17566112196
17566130933
17566147413
17566156934
17566165662
17566174818
17566183424
17566191236
17566199903
17566209546
17566217481
17566225477
17566234937
17566243970
17566253370
17566263074
17566272046
17566279981
17566289319
17566299878
17566307752
17566316602
17566324720
17566333387
17566342420
17566349805
17566359509
17566368054
17566377759
17566383862
17566393994
17566401196
17566411755
17566419324
17566428113
17566436414
17566443799
17566451855
17566460644
17566471081
17566480237
17566488843
17566499707
17566510754
17566518750
17566526196
17566534741
17566544018
17566552929
17566561657
17566571606
17566580395
17566589062
17566598339
17566607312
17566616833
17566625378
17566634594
17566643811
17566653027
17566663708
17566672253
17566681408
17566690807
17566699352
17566708202
17566716198
17566724621
17566732861
17566740795
17566749340
17566758739
17566765881
17566774975
17566783825
17566792492
17566799877
17566808422
17566818371
17566826000
17566836132
17566846447
17566849132
17566863659
17566872448
17566879467
17566889537
17566896679
17566906383
17566914135
17566922985
17566933422
17566941661
17566950694
17566959545
17566967601
17566976146
17566986461
17566993297
17567002147
17567010814
17567019664
17567026683
17567036388
17567044200
17567050304
17567056407
17567062266
17567067332
17567073070
17567078868
17567083934
17567090404
17567095958
17567102977
17567106517
17567112926
17567119090
17567123240
17567128978
17567135570
17567142589
17567147410
17567153636
17567159495
17567165660
17567169993
17567177684
17567184336
17567189769
17567193431
17567200633
17567205821
17567211314
17567217662
17567223887
17567229014
17567233348
17567239695
17567243907
17567249644
17567255747
17567262644
17567268015
17567274729
17567279978
17567286021
17567291453
17567297556
17567304148
17567309397
17567317332
17567323130
17567330759
17567336008
17567341074
17567346384
17567353709
17567359202
17567363901
17567369822
17567374522
17567380625
17567384959
17567392100
17567397715
17567403635
17567409434
17567414499
17567419687
17567425364
17567430308
17567437693
17567443064
17567449595
17567455271
17567460520
17567465281
17567469614
17567478403
17567484201
17567489634
17567495371
17567501047
17567506296
17567512339
17567518076
17567522776
17567529306
17567534677
17567540598
17567546762
17567552011
17567557627
17567563852
17567570505
17567576608
17567582102
17567586923
17567593088
17567599252
17567603525
17567610056
17567616037
17567621652
17567626779
17567631784
17567637521
17567643381
17567649728
17567656564
17567661142
17567666879
17567671213
17567677560
17567683359
17567689401
17567696115
17567701608
17567706979
17567712655
17567717782
17567723642
17567729318
17567736642
17567741220
17567745553
17567752450
17567757943
17567763253
17567768319
17567774667
17567780099
17567785653
17567791330
17567796518
17567802194
17567807870
17567813424
17567818856
17567828439
17567833016
17567839730
17567845590
17567851571
17567858346
17567866342
17567872933
17567877328
17567882882
17567887399
17567894662
17567900399
17567906075
17567912423
17567916634
17567922799
17567928475
17567934518
17567938546
17567944833
17567951302
17567957101
17567961495
17567968636
17567974435
17567980172
17567985970
17567991646
17567998177
17568002694
17568008858
17568014840
17568020943
17568025338
17568031136
17568035775
17568043831
17568049141
17568053963
17568060067
17568065438
17568070992
17568077462
17568083443
17568090096
17568096505
17568101693
17568107918
17568112313
17568118538
17568124153
17568130501
17568135811
17568141426
17568145088
17568153389
17568160103
17568166512
17568171089
17568176888
17568181893
17568187935
17568193977
17568199410
17568205513
17568210823
17568217537
17568221138
17568227364
17568232552
17568239571
17568244575
17568251717
17568257515
17568261848
17568268318
17568272346
17568278694
17568283455
17568289619
17568295112
17568301521
17568306709
17568313423
17568318428
17568324165
17568329780
17568335396
17568339790
17568345710
17568351326
17568357612
17568363960
17568371406
17568376899
17568383003
17568390937
17568396064
17568402900
17568409797
17568416450
17568422004
17568428962
17568435066
17568439826
17568445991
17568451301
17568458259
17568463569
17568469917
17568475288
17568480659
17568486396
17568492622
17568498481
17568503120
17568509345
17568515571
17568522224
17568527106
17568534126
17568539558
17568545722
17568551032
17568557380
17568562446
17568568366
17568573554
17568578986
17568585029
17568591193
17568596381
17568603461
17568609321
17568614753
17568621222
17568626594
17568632148
17568636969
17568646125
17568652778
17568657721
17568664008
17568670234
17568676459
17568680732
17568686835
17568691046
17568697394
17568701911
17568708747
17568714301
17568721076
17568727118
17568733588
17568737250
17568744635
17568751288
17568757147
17568762763
17568768378
17568773139
17568778693
17568785529
17568790534
17568797675
17568802557
17568808722
17568813300
17568819220
17568824591
17568828864
17568833685
17568840033
17568845099
17568850226
17568855780
17568862738
17568868841
17568874884
17568880438
17568886053
17568891669
17568895819
17568901312
17568908575
17568914984
17568920782
17568926214
17568933416
17568939154
17568945074
17568952093
17568958441
17568962835
17568968145
17568974920
17568982367
17568987860
17568994146
17569001043
17569006170
17569012701
17569018621
17569024420
17569030401
17569035345
17569041570
17569048040
17569053228
17569059454
17569064153
17569070745
17569077886
17569086309
17569090826
17569098821
17569104498
17569111089
17569117498
17569122076
17569128301
17569133428
17569140630
17569144720
17569152776
17569156683
17569164190
17569169805
17569176092
17569182439
17569188421
17569193914
17569200139
17569205999
17569209112
17569217046
17569224187
17569229863
17569235845
17569241887
17569246709
17569252568
17569258550
17569266179
17569272039
17569277471
17569283025
17569289067
17569294683
17569298528
17569304937
17569311711
17569315984
17569323369
17569328923
17569334661
17569339177
17569345952
17569354070
17569359624
17569364873
17569370061
17569376347
17569382024
17569386968
17569393254
17569399663
17569404118
17569410222
17569414677
17569421696
17569426152
17569433781
17569439397
17569444829
17569451054
17569457280
17569463689
17569468632
17569477727
17569484868
17569491459
17569497441
17569502751
17569509648
17569514226
17569522526
17569528080
17569533696
17569539799
17569543828
17569549382
17569554692
17569561284
17569568913
17569575016
17569578312
17569585759
17569592472
17569597721
17569601872
17569608342
17569616215
17569620671
17569626652
17569632450
17569637333
17569642948
17569648503
17569655949
17569661747
17569667484
17569672672
17569677677
17569682926
17569688908
17569695561
17569700993
17569705570
17569711979
17569716496
17569722416
17569729008
17569735416
17569741276
17569746830
17569752079
17569757328
17569763615
17569767643
17569773868
17569780338
17569785770
17569791324
17569796390
17569802616
17569807865
17569813297
17569821171
17569827152
17569832889
17569838260
17569843631
17569849064
17569854984
17569861148
17569868534
17569873722
17569878543
17569885013
17569890079
17569896060
17569901493
17569907108
17569912784
17569918460
17569924625
17569928470
17569934513
17569940677
17569946292
17569953433
17569959293
17569962711
17569969913
17569975345
17569981754
17569984805
17569991946
17569999942
17570006107
17570011111
17570017398
17570023318
17570028018
17570035281
17570043155
17570048709
17570054080
17570059390
17570064822
17570070132
17570075503
17570081424
17570088016
17570092715
17570099917
17570105227
17570110660
17570118167
17570126712
17570131534
17570137271
17570142215
17570147830
17570154361
17570159182
17570166690
17570174075
17570179934
17570184817
17570189883
17570195254
17570200381
17570207156
17570214114
17570218814
17570223208
17570229739
17570234072
17570240603
17570246279
17570253054
17570260256
17570266177
17570271975
17570276797
17570282412
17570288393
17570293581
17570300600
17570306277
17570311770
17570317324
17570322756
17570327883
17570333071
17570339297
17570346133
17570351870
17570356997
17570361758
17570368105
17570374697
17570379519
17570386172
17570391665
17570396792
17570402468
17570408022
17570413149
17570418825
17570427309
17570431948
17570437807
17570443117
17570449892
17570455690
17570460695
17570466738
17570472719
17570478456
17570484377
17570490053
17570495241
17570500368
17570507509
17570512758
17570518923
17570523500
17570530214
17570536074
17570542360
17570545778
17570555361
17570562074
17570568544
17570573549
17570580141
17570586366
17570592470
17570597841
17570604494
17570610658
17570613893
17570621217
17570626772
17570633180
17570638795
17570645143
17570651247
17570655824
17570662111
17570666994
17570673585
17570678163
17570684144
17570688722
17570696351
17570702150
17570707216
17570713441
17570717408
17570723695
17570730897
17570737062
17570741884
17570748842
17570753785
17570759523
17570762757
17570769715
17570776185
17570781861
17570786500
17570791688
17570797364
17570802613
17570809388
17570815126
17570821351
17570825624
17570831910
17570836244
17570842591
17570848084
17570854310
17570861207
17570865418
17570871949
17570877625
17570883424
17570888184
17570895020
17570899659
17570906861
17570912659
17570917847
17570922791
17570928040
17570933411
17570939759
17570947022
17570951966
17570958497
17570962708
17570968323
17570972657
17570979127
17570986146
17570991517
17570996949
17571002198
17571007203
17571012635
17571019471
17571024598
17571031067
17571037354
17571041932
17571046204
17571052857
17571055970
17571062989
17571070496
17571076905
17571082825
17571088379
17571096009
17571102295
17571108704
17571116333
17571121826
17571127320
17571132385
17571137573
17571142578
17571147827
17571154480
17571161072
17571165466
17571171326
17571175720
17571182556
17571189514
17571195007
17571200928
17571206726
17571211365
17571217285
17571222534
17571228699
17571234314
17571241882
17571247558
17571250976
17571258728
17571262329
17571268127
17571273743
17571279541
17571286316
17571290710
17571297729
17571303039
17571309570
17571314453
17571321228
17571327087
17571332275
17571337890
17571343139
17571348449
17571354004
17571359863
17571366211
17571372558
17571377136
17571383483
17571388122
17571394775
17571401062
17571406982
17571412109
17571417297
17571423583
17571427551
17571433959
17571440002
17571445556
17571451782
17571457031
17571463256
17571468505
17571473449
17571480102
17571485839
17571490356
17571497741
17571503417
17571508727
17571513976
17571519408
17571525390
17571531982
17571539489
17571545104
17571548095
17571555907
17571561217
17571567016
17571573974
17571580443
17571585814
17571590209
17571596129
17571602904
17571608519
17571612975
17571621520
17571627746
17571634093
17571641845
17571648436
17571654601
17571659179
17571665099
17571671630
17571677306
17571683348
17571688719
17571693663
17571698790
17571703978
17571710692
17571717223
17571722411
17571728942
17571733519
17571739623
17571745299
17571752135
17571757628
17571763976
17571768919
17571774413
17571779356
17571784789
17571790160
17571797728
17571803770
17571808897
17571814513
17571820677
17571826598
17571831786
17571839171
17571844969
17571851195
17571854735
17571861021
17571867003
17571871153
17571877623
17571884276
17571890074
17571895689
17571900389
17571905943
17571910582
17571916502
17571921385
17571928221
17571934446
17571939146
17571945372
17571952024
17571956907
17571963194
17571971006
17571976744
17571981810
17571988829
17571993772
17572000242
17572005552
17572010496
17572015684
17572023008
17572028868
17572034422
17572039243
17572044798
17572051206
17572057432
17572063902
17572068357
17572074522
17572080320
17572085142
17572089780
17572096555
17572102415
17572108213
17572113401
17572119260
17572125791
17572131345
17572137815
17572144651
17572152585
17572159666
17572166746
17572172056
17572178403
17572186155
17572192624
17572197996
17572201902
17572207822
17572213498
17572219297
17572224363
17572230710
17572236387
17572242917
17572248594
17572253476
17572259946
17572264463
17572270566
17572275693
17572281308
17572287351
17572291989
17572296811
17572304563
17572308164
17572318051
17572323239
17572327512
17572334104
17572339658
17572346494
17572351438
17572358151
17572363095
17572367795
17572372250
17572379331
17572386166
17572393063
17572398679
17572404843
17572411740
17572417538
17572423581
17572428403
17572434567
17572439450
17572447140
17572452450
17572458615
17572461972
17572469113
17572474545
17572480099
17572486142
17572492367
17572498349
17572504025
17572510312
17572516354
17572521359
17572527462
17572534115
17572539242
17572545102
17572551693
17572556759
17572561825
17572569882
17572575070
17572580868
17572586605
17572592221
17572597714
17572603573
17572610653
17572615353
17572622555
17572628109
17572634518
17572639645
17572645321
17572650021
17572655819
17572660397
17572667965
17572671688
17572679256
17572685543
17572691097
17572696224
17572701962
17572707943
17572714657
17572720699
17572727901
17572733517
17572738277
17572745785
17572751400
17572757992
17572763790
17572769100
17572774715
17572778744
17572784237
17572790951
17572797176
17572803463
17572808956
17572814632
17572819576
17572824886
17572831173
17572836239
17572843197
17572848201
17572853695
17572859127
17572864620
17572868038
17572875972
17572882259
17572888790
17572894649
17572901302
17572906917
17572912166
17572918819
17572923580
17572930965
17572937312
17572943477
17572949092
17572954646
17572959712
17572964961
17572969783
17572975337
17572981624
17572988094
17572993221
17572999507
17573005305
17573011531
17573017940
17573022517
17573027827
17573032771
17573039607
17573043269
17573051204
17573057490
17573063472
17573069331
17573074580
17573079036
17573084468
17573089900
17573096003
17573102351
17573109187
17573114131
17573119868
17573125911
17573131282
17573137141
17573143916
17573149409
17573152583
17573158747
17573163874
17573169734
17573173091
17573181697
17573187861
17573194453
17573200007
17573206294
17573212214
17573217463
17573223933
17573228755
17573236079
17573242182
17573248286
17573254328
17573260798
17573266657
17573273127
17573279841
17573285456
17573292231
17573297663
17573304499
17573309077
17573314143
17573318598
17573326227
17573332148
17573338190
17573344355
17573350458
17573356806
17573361140
17573366938
17573373041
17573377924
17573383112
17573390375
17573395807
17573402521
17573408136
17573414240
17573420649
17573426081
17573431879
17573438166
17573443903
17573448664
17573454767
17573460749
17573465143
17573471064
17573476129
17573481989
17573488520
17573493585
17573500666
17573505915
17573511713
17573514826
17573522516
17573526178
17573533136
17573538568
17573544245
17573550043
17573556024
17573560785
17573565302
17573570856
17573577448
17573583795
17573587579
17573595392
17573598810
17573605768
17573615350
17573619867
17573626520
17573633356
17573638971
17573643915
17573651971
17573656915
17573662897
17573668634
17573674859
17573681085
17573686334
17573692132
17573696832
17573703851
17573709039
17573714654
17573717950
17573725824
17573731439
17573737054
17573742059
17573748101
17573753656
17573759454
17573764825
17573770562
17573776239
17573781732
17573788934
17573794366
17573801629
17573807611
17573814630
17573820672
17573827447
17573834222
17573840692
17573845391
17573850396
17573857293
17573862054
17573868585
17573871819
17573878472
17573884087
17573890801
17573896233
17573901727
17573907647
17573911797
17573918877
17573923638
17573929558
17573934502
17573939934
17573943352
17573948357
17573952813
17573957390
17573961419
17573967217
17573971428
17573976006
17573979973
17573983513
17573989373
17573993584
17573998711
17574002556
17574006585
17574010491
17574013604
17574017266
17574020562
17574025383
17574031487
17574034783
17574037590
17574042656
17574047173
17574051812
17574057244
17574061760
17574066155
17574070549
17574074700
17574080071
17574085137
17574089531
17574094231
17574098870
17574104119
17574108208
17574111260
17574114678
17574119499
17574122002
17574129326
17574132500
17574138725
17574142510
17574147087
17574151726
17574155998
17574164787
17574177971
17574190117
17574198601
17574205254
17574213249
17574220329
17574227287
17574236015
17574243706
17574248955
17574253349
17574258964
17574263237
17574269707
17574275932
17574281364
17574285820
17574290153
17574295463
17574301201
17574305961
17574311882
17574317192
17574322441
17574327629
17574332145
17574338127
17574342582
17574347404
17574352653
17574357109
17574362541
17574366630
17574370780
17574377128
17574380912
17574386772
17574391777
17574395683
17574400321
17574406730
17574412589
17574417472
17574422294
17574427543
17574432792
17574436759
17574441215
17574446037
17574450919
17574456046
17574461601
17574466056
17574470268
17574475700
17574480888
17574487418
17574491935
17574497001
17574502494
17574506339
17574511710
17574516837
17574522391
17574527152
17574531364
17574536857
17574541373
17574547416
17574551932
17574557914
17574563163
17574568168
17574573356
17574577872
17574583610
17574587943
17574593131
17574597526
17574603812
17574607962
17574614249
17574618216
17574623954
17574629752
17574634147
17574640555
17574646292
17574652579
17574658194
17574664664
17574671256
17574676505
17574682547
17574687918
17574694510
17574700797
17574706107
17574711844
17574716849
17574723258
17574729361
17574734427
17574741385
17574747244
17574754630
17574762869
17574771048
17574775748
17574782645
17574789236
17574793631
17574799429
17574805716
17574810416
17574814261
17574821890
17574825674
17574830984
17574836416
17574842825
17574847220
17574851309
17574858145
17574863211
17574869253
17574872732
17574878714
17574885122
17574891287
17574896292
17574902578
17574908926
17574914358
17574920523
17574927237
17574933279
17574937551
17574943106
17574948538
17574954458
17574960012
17574964895
17574969412
17574975759
17574981069
17574985220
17574990591
17574996816
17575002249
17575007253
17575013113
17575018728
17575026296
17575032705
17575039114
17575043630
17575052297
17575059133
17575063589
17575069204
17575074636
17575078176
17575084768
17575088613
17575095876
17575101247
17575107717
17575112722
17575117605
17575122549
17575128469
17575134756
17575136709
17575147939
17575152822
17575158498
17575161733
17575168813
17575172109
17575179433
17575182729
17575188711
17575194936
17575200795
17575205739
17575212758
17575217336
17575223256
17575228749
17575232290
17575237966
17575244863
17575249623
17575252919
17575261037
17575264394
17575271047
17575275197
17575280507
17575288503
17575293569
17575302175
17575308278
17575314260
17575322560
17575327992
17575334523
17575341115
17575348561
17575354298
17575360463
17575364491
17575368947
17575376027
17575379872
17575387135
17575392995
17575397572
17575401967
17575412221
17575415028
17575425282
17575431203
17575435963
17575442860
17575449330
17575456288
17575461964
17575468739
17575472767
17575480824
17575484547
17575491688
17575497487
17575503590
17575507496
17575516835
17575520558
17575529347
17575533497
17575541310
17575545582
17575553761
17575559498
17575564320
17575569447
17575575062
17575583302
17575588978
17575594166
17575599964
17575606373
17575611134
17575617664
17575623036
17575628163
17575633534
17575638172
17575642506
17575650318
17575656971
17575662525
17575666309
17575674000
17575677601
17575684681
17575688221
17575696888
17575700977
17575708363
17575714649
17575722217
17575726429
17575733997
17575740589
17575747181
17575753712
17575760303
17575767017
17575773121
17575779102
17575785328
17575792530
17575800098
17575805652
17575811268
17575819751
17575826831
17575832813
17575837818
17575844410
17575851062
17575853382
17575863269
17575867664
17575877552
17575882373
17575888843
17575893115
17575902027
17575908374
17575916797
17575923389
17575931873
17575937610
17575944690
17575951953
17575957752
17575965381
17575972949
17575977710
17575984607
17575989917
17575995044
17576001941
17576007068
17576013599
17576018237
17576024219
17576030994
17576035998
17576042834
17576048816
17576054126
17576059924
17576065478
17576073535
17576080066
17576086352
17576092456
17576099353
17576104541
17576111560
17576116076
17576121875
17576128344
17576133532
17576138171
17576144274
17576149218
17576155749
17576160998
17576168383
17576174182
17576181018
17576186633
17576193102
17576199511
17576206591
17576211779
17576218371
17576225207
17576232287
17576237292
17576243639
17576250536
17576257189
17576265002
17576267443
17576278124
17576286486
17576292773
17576298449
17576309252
17576317309
17576325304
17576334399
17576337633
17576353197
17576359606
17576371996
17576378161
17576386095
17576392687
17576401354
17576410082
17576417223
17576424852
17576430773
17576441393
17576448839
17576455919
17576462023
17576469164
17576477404
17576483507
17576491258
17576499315
17576505846
17576513048
17576520494
17576526659
17576534532
17576540819
17576549181
17576555650
17576563707
17576571458
17576578661
17576584947
17576591173
17576597765
17576606065
17576612291
17576620531
17576630174
17576638109
17576646043
17576652696
17576659715
17576668931
17576675950
17576681321
17576691758
17576699876
17576708970
17576717088
17576724900
17576731126
17576737840
17576743150
17576749803
17576758042
17576764024
17576769944
17576775926
17576780381
17576786424
17576792527
17576798081
17576803147
17576810288
17576816209
17576821763
17576827744
17576832810
17576838670
17576843491
17576850510
17576857224
17576863511
17576867783
17576874924
17576879075
17576885545
17576888840
17576897446
17576903733
17576908494
17576914048
17576919968
17576926011
17576931992
17576935898
17576945359
17576950364
17576956589
17576960740
17576967759
17576971848
17576979416
17576983811
17576989731
17576995591
17577003281
17577007065
17577015305
17577019089
17577026596
17577032517
17577038254
17577043991
17577050339
17577055954
17577062485
17577069382
17577074204
17577080307
17577084580
17577092758
17577098740
17577103562
17577110153
17577116684
17577121933
17577128281
17577134506
17577142319
17577148422
17577153488
17577160019
17577166306
17577172897
17577177353
17577183273
17577191208
17577197678
17577203110
17577209335
17577213913
17577219955
17577226242
17577232101
17577237655
17577244919
17577250900
17577259140
17577265365
17577272995
17577280502
17577289352
17577291916
17577305954
17577311935
17577317978
17577323227
17577327926
17577336532
17577340072
17577348800
17577352706
17577360153
17577363754
17577371994
17577378219
17577385299
17577389572
17577397079
17577402755
17577409164
17577414779
17577420272
17577426193
17577432601
17577439620
17577445602
17577451156
17577457443
17577462508
17577469161
17577474105
17577478378
17577484969
17577490157
17577494796
17577501266
17577506454
17577513534
17577518844
17577525680
17577531661
17577537948
17577542464
17577548873
17577554976
17577559798
17577566939
17577572677
17577579757
17577585372
17577592818
17577597762
17577603438
17577607161
17577613875
17577619857
17577628035
17577635665
17577641097
17577646468
17577653731
17577658126
17577665328
17577670394
17577676314
17577681624
17577688765
17577694441
17577698592
17577703536
17577709334
17577713912
17577721358
17577728255
17577736006
17577741805
17577746993
17577751570
17577756880
17577763594
17577768355
17577774275
17577781050
17577785994
17577793013
17577797163
17577805098
17577809187
17577816450
17577823103
17577827620
17577833235
17577839827
17577848005
17577853804
17577860518
17577872175
17577879866
17577886641
17577893843
17577897261
17577906111
17577910994
17577918623
17577925093
17577932173
17577937483
17577943098
17577946699
17577954084
17577957502
17577962751
17577969648
17577975752
17577980879
17577986311
17577990461
17577996870
17578001570
17578007246
17578011701
17578015180
17578023237
17578027631
17578033491
17578037885
17578043501
17578047773
17578056501
17578063398
17578068342
17578074567
17578078779
17578083356
17578088850
17578093915
17578098005
17578104597
17578110334
17578114789
17578119672
17578125165
17578130720
17578137067
17578139142
17578146894
17578152509
17578157026
17578160383
17578167829
17578171247
17578178327
17578181684
17578189679
17578193830
17578200544
17578205487
17578210798
17578215375
17578221479
17578226911
17578231855
17578238568
17578245587
17578253034
17578258649
17578264081
17578271649
17578276471
17578282819
17578291181
17578295758
17578302045
17578306439
17578310895
17578316327
17578322736
17578327496
17578334088
17578340619
17578350079
17578355634
17578361676
17578368573
17578373761
17578380231
17578384930
17578392194
17578397809
17578401959
17578409161
17578412884
17578421490
17578428082
17578432904
17578437604
17578442914
17578447980
17578455365
17578461834
17578467206
17578472943
17578481549
17578487591
17578493390
17578498761
17578505719
17578510785
17578516705
17578521893
17578527813
17578532818
17578539532
17578543011
17578548992
17578554730
17578560589
17578565655
17578571514
17578576519
17578581341
17578586529
17578592938
17578597149
17578601788
17578609051
17578615704
17578621075
17578627422
17578632610
17578635906
17578642986
17578646587
17578653240
17578659405
17578665936
17578671429
17578677837
17578682781
17578687603
17578692181
17578699016
17578706097
17578711895
17578716961
17578722210
17578726543
17578732403
17578736675
17578740581
17578749676
17578754986
17578759807
17578765789
17578771404
17578773296
17578781536
17578786846
17578791301
17578797588
17578803203
17578808208
17578814128
17578817485
17578824443
17578828350
17578834819
17578839824
17578846965
17578851543
17578856060
17578861003
17578868938
17578875102
17578879619
17578884624
17578890972
17578897380
17578902690
17578908122
17578914043
17578919414
17578924297
17578931865
17578936504
17578941081
17578947734
17578953105
17578959941
17578965068
17578971416
17578979411
17578984294
17578989787
17578994975
17579002482
17579007243
17579015544
17579021220
17579028789
17579035930
17579041118
17579049602
17579055949
17579061992
17579066752
17579071940
17579080668
17579086833
17579091288
17579098246
17579103434
17579111308
17579115153
17579123210
17579127421
17579135478
17579140238
17579145549
17579151103
17579156413
17579160258
17579167460
17579170939
17579179057
17579184123
17579189982
17579195475
17579199503
17579204936
17579211833
17579218974
17579223368
17579229960
17579234232
17579239420
17579245829
17579250590
17579257731
17579264506
17579271586
17579276041
17579281840
17579288676
17579295023
17579301737
17579307413
17579313456
17579320414
17579325724
17579330424
17579337809
17579340189
17579348673
17579354349
17579361673
17579366922
17579373209
17579379007
17579384623
17579388712
17579395426
17579399088
17579406412
17579410074
17579418131
17579421610
17579428812
17579432596
17579440470
17579444498
17579451334
17579455057
17579463358
17579468241
17579477152
17579483927
17579489298
17579495096
17579502603
17579508951
17579516336
17579521463
17579527689
17579533304
17579538736
17579544412
17579550943
17579557291
17579565042
17579569559
17579575967
17579581461
17579584939
17579593484
17579600015
17579605752
17579611246
17579619363
17579625406
17579631021
17579636331
17579641946
17579649270
17579655313
17579664651
17579670694
17579675882
17579682412
17579689431
17579694986
17579700418
17579704507
17579715188
17579718728
17579726236
17579729592
17579738992
17579742532
17579749856
17579754800
17579761392
17579767007
17579773110
17579778054
17579783547
17579789590
17579795205
17579799905
17579806374
17579812112
17579818887
17579823281
17579829934
17579835183
17579842324
17579846658
17579850076
17579858010
17579864846
17579870034
17579876321
17579882119
17579885659
17579891885
17579896950
17579903725
17579909035
17579916237
17579921731
17579926919
17579932412
17579938820
17579943703
17579948403
17579956093
17579961709
17579968483
17579973122
17579978981
17579985207
17579989724
17579996071
17580000527
17580006874
17580012917
17580017739
17580023476
17580028908
17580034584
17580038735
17580046608
17580051613
17580058083
17580063027
17580068581
17580074745
17580079933
17580086830
17580092384
17580099220
17580107094
17580112282
17580117348
17580124245
17580129311
17580133766
17580139992
17580147987
17580153175
17580158913
17580164589
17580170387
17580174354
17580180275
17580185280
17580191078
17580196632
17580204384
17580208229
17580215431
17580220131
17580226906
17580231300
17580238746
17580244362
17580251564
17580256263
17580264259
17580270240
17580277626
17580282692
17580288917
17580294838
17580301918
17580307533
17580315651
17580321693
17580326942
17580333351
17580337989
17580343421
17580348854
17580354103
17580359962
17580364051
17580369483
17580375892
17580380592
17580387000
17580393409
17580398048
17580403602
17580409400
17580413184
17580420814
17580424354
17580432166
17580439246
17580446021
17580452186
17580457496
17580462745
17580468421
17580473243
17580479652
17580486854
17580493323
17580497962
17580504127
17580510474
17580515296
17580521827
17580526954
17580533668
17580540320
17580546180
17580551734
17580556189
17580562537
17580566810
17580572730
17580578589
17580584205
17580591224
17580596778
17580601172
17580606543
17580613379
17580618323
17580623938
17580629004
17580635352
17580640052
17580647437
17580651892
17580657874
17580663977
17580669776
17580676001
17580681799
17580687842
17580692786
17580701758
17580706702
17580714026
17580718970
17580726782
17580733496
17580740088
17580746191
17580750586
17580754065
17580761572
17580767676
17580773169
17580779211
17580785864
17580791846
17580797644
17580802466
17580807593
17580813757
17580819128
17580826941
17580832495
17580836950
17580842749
17580848547
17580854956
17580859350
17580865454
17580871313
17580878820
17580885656
17580888952
17580898657
17580902563
17580910009
17580914099
17580923803
17580930700
17580937109
17580940588
17580948522
17580951696
17580959448
17580964819
17580969091
17580973974
17580981237
17580984472
17580991552
17580996618
17581002355
17581007238
17581013281
17581018896
17581026159
17581031103
17581036962
17581042150
17581047521
17581051611
17581057226
17581063757
17581067968
17581074255
17581080236
17581084386
17581090002
17581094030
17581099584
17581107519
17581114293
17581119115
17581125097
17581130956
17581135412
17581141759
17581146215
17581154210
17581157872
17581165807
17581169286
17581176549
17581182470
17581187169
17581192235
17581199742
17581205480
17581210790
17581215551
17581221288
17581226110
17581232396
17581237462
17581244542
17581251744
17581256993
17581261327
17581267552
17581271886
17581278661
17581284703
17581290013
17581294652
17581300694
17581307164
17581311864
17581318822
17581322118
17581329381
17581334874
17581339146
17581347325
17581352147
17581357640
17581363255
17581369115
17581373814
17581378514
17581386326
17581391514
17581398656
17581405553
17581410008
17581415318
17581420506
17581424168
17581431920
17581438878
17581443211
17581449132
17581456639
17581461827
17581468968
17581472264
17581481846
17581486546
17581495945
17581499852
17581506565
17581511509
17581517552
17581522435
17581528416
17581536778
17581543064
17581548374
17581554722
17581559849
17581565647
17581573338
17581579014
17581584568
17581592320
17581596714
17581602085
17581608067
17581613865
17581619663
17581625584
17581631382
17581639622
17581644077
17581647434
17581654758
17581660740
17581666111
17581669346
17581678562
17581685154
17581691257
17581693333
17581702488
17581708896
17581714573
17581720432
17581726536
17581735325
17581739353
17581745701
17581750522
17581756931
17581761692
17581768039
17581774143
17581781345
17581786350
17581792820
17581797336
17581801487
17581808567
17581813327
17581820163
17581826389
17581830661
17581833896
17581841159
17581844333
17581852390
17581856235
17581866428
17581872714
17581878940
17581883334
17581889255
17581894809
17581899875
17581906406
17581913120
17581918796
17581924655
17581929599
17581935886
17581941379
17581947055
17581951327
17581957004
17581965060
17581970798
17581975253
17581982028
17581986484
17581993686
17581998324
17582001864
17582011020
17582016635
17582023349
17582028720
17582034213
17582038363
17582044101
17582051669
17582058566
17582066439
17582071750
17582080905
17582084750
17582092318
17582097567
17582104892
17582110141
17582116488
17582121615
17582126925
17582132296
17582138583
17582143344
17582148348
17582155123
17582161166
17582165988
17582172701
17582177035
17582183627
17582187960
17582192172
17582201754
17582208895
17582214816
17582216891
17582224825
17582229525
17582237460
17582240694
17582248934
17582252474
17582260714
17582264315
17582271395
17582276400
17582282992
17582287874
17582294588
17582301058
17582307650
17582312777
17582320162
17582325411
17582331148
17582336580
17582342318
17582350557
17582354952
17582361483
17582366610
17582371065
17582377474
17582384554
17582388887
17582395906
17582401888
17582408297
17582414705
17582419405
17582425325
17582429720
17582433321
17582442293
17582446260
17582454378
17582460298
17582466280
17582471041
17582476778
17582480379
17582488619
17582492403
17582500520
17582504366
17582512056
17582515901
17582523592
17582528535
17582533662
17582539461
17582545869
17582551973
17582557100
17582561739
17582567964
17582573701
17582578462
17582584627
17582590547
17582594881
17582601533
17582605562
17582612459
17582617708
17582623323
17582630159
17582638276
17582641939
17582651338
17582657014
17582662690
17582668245
17582676728
17582680757
17582688996
17582693086
17582701753
17582707307
17582714509
17582719941
17582724946
17582731355
17582738008
17582742829
17582748567
17582755097
17582760041
17582765229
17582771699
17582778047
17582784211
17582788667
17582794343
17582801179
17582806123
17582811982
17582818574
17582826752
17582833344
17582839326
17582844025
17582850190
17582855744
17582861603
17582865998
17582872468
17582879121
17582886262
17582890229
17582898286
17582901887
17582909638
17582915131
17582922150
17582927826
17582934845
17582939850
17582944550
17582950776
17582956025
17582960358
17582967804
17582973481
17582979767
17582985443
17582989899
17582995697
17583001313
17583007294
17583012238
17583019562
17583025482
17583032135
17583037812
17583043549
17583047760
17583053864
17583057831
17583067169
17583071137
17583079743
17583083099
17583091034
17583094513
17583101715
17583107147
17583111725
17583119720
17583125275
17583131134
17583136810
17583141266
17583147247
17583153473
17583158905
17583163727
17583169830
17583175934
17583180511
17583186798
17583192901
17583198578
17583202057
17583208954
17583215179
17583220855
17583225677
17583231231
17583236847
17583242645
17583248932
17583254120
17583263641
17583270294
17583275787
17583281768
17583287262
17583294097
17583298980
17583304107
17583313568
17583319183
17583325042
17583330474
17583334991
17583341949
17583346588
17583353851
17583358550
17583364776
17583371002
17583374969
17583381316
17583386871
17583392547
17583397308
17583402984
17583411529
17583416961
17583422027
17583428069
17583433196
17583439605
17583444671
17583450835
17583458892
17583463531
17583469207
17583474700
17583479339
17583482574
17583491118
17583497710
17583502776
17583506682
17583514861
17583518401
17583525725
17583530730
17583536956
17583542571
17583548369
17583555571
17583561858
17583568877
17583574004
17583578460
17583585479
17583590361
17583596099
17583603667
17583608733
17583614775
17583620391
17583626860
17583631560
17583637419
17583641936
17583648467
17583656035
17583662261
17583666655
17583673125
17583678618
17583683684
17583688445
17583695586
17583700896
17583707854
17583712798
17583720488
17583725859
17583732695
17583737700
17583744475
17583753142
17583759184
17583763335
17583769133
17583773466
17583780058
17583785795
17583791167
17583796843
17583804411
17583810087
17583815886
17583820341
17583825590
17583833830
17583841704
17583846830
17583854826
17583861235
17583864836
17583871183
17583877043
17583884184
17583891020
17583897856
17583904997
17583914274
17583918058
17583926115
17583931791
17583936125
17583941923
17583947965
17583953092
17583958219
17583963529
17583969694
17583975309
17583981413
17583986173
17583991911
17583997770
17584003446
17584008634
17584012602
17584018095
17584024381
17584029874
17584034452
17584040739
17584046354
17584051237
17584057035
17584060941
17584067289
17584072111
17584079740
17584085782
17584090238
17584096280
17584102689
17584108365
17584113187
17584119169
17584125333
17584131131
17584138028
17584143094
17584147733
17584154752
17584159147
17584165189
17584173063
17584179410
17584183927
17584190396
17584194913
17584200711
17584206571
17584212186
17584220548
17584226651
17584231168
17584238492
17584243009
17584249784
17584254422
17584260404
17584267667
17584274259
17584279385
17584284268
17584288602
17584295071
17584300809
17584303006
17584313992
17584320157
17584325955
17584330899
17584336941
17584342129
17584347745
17584352505
17584358731
17584363126
17584370083
17584374295
17584381619
17584384915
17584392605
17584398099
17584404446
17584407864
17584416592
17584422452
17584426846
17584432583
17584438382
17584441922
17584449612
17584458401
17584467556
17584473294
17584480984
17584487271
17584493801
17584501797
17584506558
17584512478
17584517727
17584524807
17584531338
17584536404
17584542568
17584548672
17584554714
17584560757
17584566494
17584572170
17584576931
17584581204
17584589809
17584594753
17584601467
17584606472
17584611050
17584617764
17584623562
17584629177
17584635708
17584641811
17584646267
17584653530
17584660610
17584665432
17584671657
17584677029
17584682644
17584688869
17584693203
17584699367
17584706508
17584711879
17584717373
17584723049
17584728725
17584735134
17584740749
17584747036
17584783290
17584789882
17584795070
17584801052
17584806118
17584811428
17584816493
17584821865
17584828762
17584833095
17584838710
17584844631
17584849697
17584855129
17584860256
17584865138
17584869716
17584874233
17584878749
17584883449
17584887904
17584893520
17584897914
17584903529
17584907497
17584911342
17584915797
17584919582
17584923854
17584927577
17584934535
17584939967
17584944850
17584948207
17584953090
17584957545
17584961269
17584964137
17584972194
