17424653329
17424658883
17424664132
17424668832
17424673898
17424678659
17424682992
17424688241
17424693490
17424698922
17424704477
17424709298
17424715280
17424719186
17424724374
17424728952
17424734384
17424740243
17424745553
17424750436
17424754769
17424759530
17424765573
17424769967
17424774545
17424779000
17424784310
17424789865
17424795358
17424800851
17424806710
17424812448
17424818612
17424824838
17424831429
17424838876
17424844308
17424851876
17424857736
17424864083
17424871590
17424874642
17424885262
17424893563
17424900765
17424907723
17424913033
17424921883
17424928719
17424935555
17424943185
17424951485
17424957589
17424965523
17424971993
17424979622
17424985177
17424993477
17424997994
17425006661
17425014901
17425021859
17425029854
17425036019
17425044808
17425051583
17425060494
17425067391
17425075325
17425079781
17425088509
17425097664
17425103523
17425111946
17425119576
17425125557
17425131783
17425141182
17425146492
17425155281
17425165779
17425171333
17425180122
17425186348
17425195503
17425199654
17425210152
17425218391
17425226387
17425232979
17425238716
17425248360
17425255317
17425263435
17425270881
17425277656
17425287117
17425294258
17425302131
17425309395
17425319038
17425326851
17425334907
17425342781
17425351081
17425358528
17425365119
17425373542
17425380683
17425386726
17425394844
17425402351
17425410102
17425417793
17425426093
17425434516
17425440376
17425449958
17425456916
17425463752
17425471320
17425477302
17425486274
17425493171
17425505622
17425510932
17425521247
17425530524
17425538642
17425546332
17425552436
17425561713
17425568732
17425576850
17425585639
17425592902
17425601813
17425608283
17425615790
17425623664
17425631415
17425638922
17425647345
17425656195
17425664008
17425671088
17425677680
17425686713
17425695136
17425700629
17425709784
17425716010
17425723639
17425731085
17425738471
17425746832
17425755866
17425763556
17425770880
17425778387
17425783820
17425792181
17425798102
17425807684
17425812323
17425821722
17425829596
17425837408
17425845465
17425853705
17425860907
17425869757
17425877447
17425883856
17425893988
17425901434
17425909674
17425917791
17425925421
17425933905
17425942205
17425949408
17425958441
17425965948
17425972174
17425981207
17425988226
17425996465
17426003668
17426011968
17426019842
17426027471
17426035467
17426043157
17426051763
17426060979
17426069463
17426077947
17426084600
17426092535
17426099920
17426106451
17426115240
17426120855
17426130681
17426135259
17426146856
17426152166
17426162298
17426170781
17426179204
17426187261
17426195623
17426202276
17426210576
17426218999
17426225225
17426235662
17426243291
17426249517
17426256780
17426265752
17426273015
17426281438
17426289983
17426296697
17426304814
17426313115
17426321355
17426327702
17426336491
17426346074
17426352727
17426361516
17426369572
17426375920
17426383549
17426391362
17426399907
17426407048
17426414006
17426422978
17426429875
17426436467
17426443303
17426451420
17426461064
17426468937
17426475651
17426481816
17426489750
17426498539
17426507878
17426514531
17426521733
17426528813
17426537602
17426545109
17426553593
17426560307
17426569096
17426579777
17426585697
17426594425
17426600529
17426609806
17426617252
17426625370
17426632267
17426639774
17426647465
17426654423
17426661076
17426668156
17426676945
17426685245
17426693180
17426700504
17426708256
17426715702
17426723514
17426731449
17426739445
17426747501
17426754642
17426762272
17426769230
17426776615
17426785160
17426792240
17426798832
17426805545
17426813968
17426821048
17426828189
17426835575
17426841983
17426850894
17426858890
17426864933
17426870914
17426880130
17426886905
17426896488
17426904239
17426911929
17426920535
17426928714
17426934696
17426943973
17426949954
17426959842
17426967776
17426975711
17426983401
17426991397
17426998355
17427007022
17427014407
17427021182
17427029849
17427034427
17427043643
17427050662
17427059695
17427068301
17427075259
17427082705
17427087344
17427095157
17427100283
17427106326
17427110843
17427119387
17427122256
17427131961
17427135989
17427144046
17427148013
17427155947
17427161257
17427167788
17427174441
17427180789
17427186587
17427192935
17427198733
17427205386
17427210696
17427215212
17427222537
17427227725
17427234133
17427239565
17427246157
17427251772
17427258181
17427263369
17427270083
17427273135
17427281863
17427284914
17427293581
17427299807
17427304262
17427310000
17427316286
17427321963
17427327700
17427332094
17427338991
17427344607
17427351565
17427356692
17427363161
17427368166
17427374086
17427380312
17427385439
17427392763
17427398684
17427403566
17427408205
17427415529
17427418703
17427426455
17427431948
17427440187
17427445742
17427451235
17427456240
17427460329
17427467226
17427471987
17427478334
17427484926
17427490480
17427494997
17427500551
17427506960
17427511232
17427517946
17427523195
17427528505
17427534670
17427540590
17427546510
17427551820
17427557741
17427564760
17427570070
17427576601
17427581728
17427588930
17427594301
17427598329
17427603883
17427610536
17427615297
17427621339
17427627199
17427632692
17427637453
17427643922
17427649904
17427655763
17427661989
17427666139
17427672303
17427676820
17427683229
17427690126
17427694825
17427700196
17427705812
17427711488
17427716676
17427721803
17427727662
17427733583
17427738343
17427744630
17427750795
17427755555
17427761170
17427765931
17427771180
17427778199
17427784486
17427790040
17427795350
17427801759
17427804872
17427812684
17427819825
17427825318
17427830506
17427836671
17427842164
17427846131
17427852418
17427858704
17427864564
17427870789
17427876893
17427883546
17427889893
17427896302
17427900757
17427906617
17427913087
17427919678
17427925721
17427930298
17427935608
17427941651
17427946168
17427952942
17427958191
17427964905
17427969849
17427976014
17427981324
17427987061
17427992005
17427998597
17428003418
17428009400
17428016175
17428021180
17428028138
17428034607
17428040161
17428045471
17428051697
17428054871
17428061585
17428066956
17428072388
17428078125
17428084473
17428091004
17428096802
17428101624
17428107422
17428114624
17428119751
17428125244
17428129334
17428136414
17428141357
17428146301
17428151123
17428158264
17428164612
17428171448
17428177002
17428181580
17428187317
17428193359
17428199646
17428206848
17428211792
17428217712
17428222534
17428227417
17428234497
17428240478
17428247253
17428253845
17428259460
17428261474
17428269470
17428276184
17428280822
17428288147
17428292785
17428300232
17428305725
17428311767
17428316711
17428322937
17428327819
17428333679
17428338439
17428345092
17428349365
17428355529
17428360046
17428365844
17428371765
17428376403
17428384399
17428388915
17428395690
17428400939
17428407653
17428413329
17428419067
17428424377
17428432128
17428438903
17428445434
17428451781
17428456542
17428462524
17428469115
17428475707
17428480285
17428487060
17428491515
17428498351
17428504333
17428508910
17428515014
17428521056
17428527282
17428531371
17428537047
17428542296
17428548034
17428552733
17428559813
17428564330
17428571410
17428576171
17428581908
17428587035
17428593566
17428598571
17428604674
17428611632
17428617797
17428622679
17428628539
17428634581
17428638976
17428645262
17428649779
17428658141
17428661254
17428670104
17428673644
17428681395
17428687682
17428692870
17428697997
17428703795
17428709654
17428715758
17428721861
17428728087
17428733458
17428737853
17428742857
17428746947
17428754393
17428760191
17428765501
17428770872
17428778014
17428783568
17428789122
17428794615
17428799803
17428804381
17428810118
17428815916
17428820860
17428827147
17428833616
17428838804
17428844603
17428849547
17428854185
17428860899
17428864317
17428871824
17428875120
17428882689
17428887938
17428894041
17428899473
17428906187
17428912901
17428918455
17428922422
17428927732
17428933653
17428940061
17428945188
17428949705
17428955747
17428960630
17428967405
17428972654
17428979185
17428986082
17428992002
17428996519
17429002683
17429009153
17429015440
17429021055
17429027280
17429032102
17429036314
17429042661
17429047361
17429053159
17429057310
17429065488
17429070371
17429077695
17429083494
17429089475
17429096738
17429103391
17429109128
17429115110
17429122068
17429128232
17429132993
17429137510
17429143552
17429149412
17429155210
17429161496
17429167295
17429172849
17429179014
17429185605
17429190488
17429197690
17429204587
17429210324
17429216550
17429222837
17429226438
17429232236
17429237729
17429244687
17429250730
17429254819
17429261167
17429265378
17429271543
17429275632
17429281857
17429287412
17429294736
17429300717
17429306821
17429312741
17429317136
17429322629
17429329404
17429333920
17429338986
17429344662
17429348874
17429355710
17429360715
17429366818
17429373410
17429378781
17429384030
17429389279
17429393674
17429399106
17429405820
17429410519
17429417477
17429423459
17429428525
17429434323
17429439755
17429444333
17429450314
17429455502
17429460751
17429465146
17429471310
17429476498
17429482663
17429486569
17429493893
17429500363
17429506527
17429512692
17429519406
17429526425
17429531369
17429538449
17429543453
17429549496
17429554318
17429561154
17429564388
17429570797
17429576534
17429582760
17429589413
17429594662
17429599850
17429606320
17429612118
17429618710
17429624569
17429629025
17429634396
17429638912
17429646236
17429651730
17429655758
17429662655
17429669430
17429677303
17429682735
17429688229
17429692684
17429699703
17429705135
17429709896
17429715816
17429721004
17429727108
17429733272
17429739681
17429745479
17429750301
17429756466
17429762874
17429768428
17429773861
17429777828
17429783504
17429789302
17429795101
17429800289
17429806697
17429811702
17429818782
17429824214
17429828792
17429834346
17429840389
17429845149
17429850276
17429854366
17429860347
17429866878
17429873104
17429879024
17429884212
17429891048
17429895259
17429901729
17429906307
17429911739
17429916560
17429923335
17429929378
17429935054
17429941524
17429946834
17429951961
17429957332
17429962886
17429967647
17429975032
17429981380
17429986751
17429991511
17429996699
17430000728
17430007808
17430013606
17430020442
17430025386
17430032039
17430037776
17430044551
17430050288
17430056453
17430062617
17430069575
17430075496
17430079829
17430086970
17430091548
17430098017
17430103267
17430109187
17430114924
17430120051
17430125239
17430130610
17430136409
17430140742
17430146357
17430151667
17430156916
17430162776
17430167903
17430172297
17430180598
17430186030
17430192195
17430195307
17430202204
17430207453
17430213007
17430218745
17430224787
17430230219
17430235590
17430241145
17430245844
17430252253
17430258356
17430264338
17430269099
17430275507
17430281916
17430287531
17430293268
17430299860
17430305842
17430311091
17430317194
17430321955
17430327814
17430333002
17430338129
17430343500
17430349054
17430356073
17430361689
17430366266
17430372797
17430378107
17430383356
17430389582
17430396357
17430401850
17430407160
17430411554
17430417047
17430422968
17430428156
17430433588
17430438105
17430444757
17430451227
17430457880
17430461847
17430469721
17430473200
17430481195
17430487238
17430492548
17430498285
17430502619
17430509027
17430513239
17430519708
17430524042
17430529413
17430535272
17430540155
17430544550
17430551141
17430557672
17430563043
17430568475
17430576349
17430581781
17430587396
17430591302
17430597711
17430603387
17430609308
17430614801
17430620660
17430626092
17430631708
17430637689
17430642633
17430649164
17430656183
17430662286
17430667291
17430674310
17430679986
17430686456
17430691949
17430697076
17430701959
17430707879
17430714471
17430720025
17430724298
17430729425
17430734490
17430740167
17430747003
17430751824
17430759027
17430763665
17430770867
17430775384
17430781548
17430787103
17430791863
17430797540
17430802667
17430808099
17430813897
17430819451
17430825066
17430830682
17430836785
17430842217
17430848138
17430853875
17430859429
17430864312
17430870904
17430876153
17430880791
17430886651
17430891900
17430897881
17430902398
17430908257
17430913323
17430918694
17430924187
17430930047
17430936150
17430940972
17430948235
17430952996
17430958916
17430964592
17430969292
17430975457
17430980339
17430985222
17430991082
17430995598
17431003350
17431006890
17431015190
17431020256
17431026238
17431031243
17431036797
17431043083
17431047417
17431053826
17431058403
17431065239
17431071770
17431077934
17431080864
17431088188
17431093865
17431100456
17431104302
17431111870
17431115227
17431124016
17431130974
17431137321
17431143974
17431150078
17431155388
17431160210
17431168205
17431173393
17431179436
17431184440
17431190727
17431195854
17431200981
17431205253
17431212761
17431218864
17431223930
17431229851
17431234489
17431241997
17431246940
17431253898
17431257194
17431263786
17431267082
17431274650
17431279533
17431285575
17431291740
17431296623
17431303520
17431307792
17431315055
17431320121
17431327262
17431330253
17431337577
17431343193
17431349967
17431356254
17431361381
17431366996
17431371513
17431378471
17431384635
17431390006
17431395561
17431402091
17431406852
17431412895
17431418876
17431423209
17431429923
17431435538
17431441276
17431447440
17431453361
17431458182
17431469047
17431474845
17431481925
17431486381
17431491752
17431497001
17431502494
17431509025
17431514152
17431521293
17431526236
17431531791
17431535941
17431542838
17431548392
17431553458
17431559562
17431566336
17431571463
17431577628
17431583793
17431590079
17431595816
17431600211
17431606131
17431611869
17431617606
17431622672
17431628897
17431634329
17431641043
17431646292
17431653250
17431660330
17431665274
17431671744
17431678214
17431684744
17431689688
17431695792
17431702017
17431706473
17431712637
17431718131
17431723380
17431730399
17431737418
17431743460
17431749625
17431755789
17431760733
17431766348
17431771780
17431778616
17431784537
17431788748
17431793936
17431799673
17431805411
17431811026
17431816580
17431822806
17431829336
17431833243
17431839102
17431843313
17431849417
17431855764
17431862173
17431868094
17431873282
17431880728
17431885733
17431891653
17431897879
17431903738
17431908255
17431914785
17431920339
17431925650
17431931326
17431936636
17431941336
17431947500
17431953115
17431958792
17431964285
17431969351
17431975149
17431979543
17431985952
17431989309
17431997060
17432001943
17432008535
17432013296
17432019643
17432025991
17432030569
17432036855
17432043081
17432047842
17432053457
17432058340
17432063589
17432069997
17432077444
17432082815
17432088369
17432093008
17432099233
17432105947
17432114431
17432120962
17432127797
17432132863
17432138967
17432144765
17432150625
17432158193
17432163930
17432169606
17432175588
17432180898
17432187307
17432192006
17432199758
17432208547
17432213185
17432221486
17432227407
17432234487
17432240529
17432246694
17432253285
17432259267
17432263234
17432270802
17432276174
17432282643
17432288442
17432293446
17432299611
17432305714
17432311330
17432317921
17432324147
17432329152
17432335011
17432339528
17432346913
17432351918
17432360890
17432367238
17432373097
17432378224
17432384694
17432388722
17432395802
17432402333
17432407521
17432413685
17432419545
17432425221
17432431874
17432437428
17432443532
17432449147
17432456227
17432462574
17432467396
17432474049
17432480702
17432486805
17432492054
17432497181
17432502552
17432507435
17432514881
17432521351
17432526356
17432532826
17432535755
17432542774
17432548451
17432553944
17432560536
17432565357
17432571888
17432577992
17432584828
17432591175
17432597096
17432604176
17432609181
17432616566
17432622059
17432628223
17432634266
17432639820
17432645252
17432650928
17432656544
17432662342
17432668507
17432673817
17432680530
17432685963
17432692615
17432699451
17432705066
17432711414
17432715992
17432723743
17432730091
17432735218
17432741504
17432746631
17432753345
17432759937
17432765674
17432771106
17432775501
17432781604
17432788623
17432794239
17432800586
17432806263
17432812366
17432815784
17432822559
17432828479
17432833972
17432841358
17432846118
17432852954
17432856922
17432864734
17432869006
17432875720
17432881030
17432885669
17432891589
17432898303
17432903491
17432911182
17432918933
17432923877
17432929248
17432934375
17432940967
17432946094
17432951892
17432957385
17432964160
17432969775
17432975085
17432980945
17432986926
17432992297
17432999377
17433004626
17433011523
17433015429
17433021289
17433027942
17433033008
17433039966
17433045459
17433051501
17433056994
17433061938
17433068408
17433074450
17433080981
17433086474
17433091845
17433097522
17433102038
17433108935
17433115832
17433119860
17433126635
17433132006
17433138232
17433143786
17433149767
17433156420
17433161303
17433166674
17433173632
17433178393
17433184985
17433192126
17433197924
17433205004
17433209887
17433217699
17433223559
17433228014
17433236071
17433241259
17433247301
17433252917
17433258288
17433264635
17433271166
17433277148
17433282763
17433288439
17433294787
17433299669
17433307482
17433311754
17433318102
17433323778
17433330248
17433336229
17433341173
17433347033
17433352587
17433358385
17433364183
17433370165
17433375536
17433381273
17433387133
17433392137
17433400072
17433405321
17433410814
17433416735
17433422838
17433428575
17433433946
17433439501
17433445482
17433450487
17433456407
17433461290
17433467333
17433472643
17433480760
17433486803
17433491258
17433498399
17433502794
17433509081
17433514513
17433520433
17433525377
17433531663
17433537645
17433543260
17433549058
17433554613
17433560533
17433565721
17433571397
17433577196
17433583116
17433589464
17433594896
17433601915
17433606065
17433613145
17433618211
17433623826
17433630479
17433636522
17433642503
17433647874
17433654161
17433658799
17433666368
17433671556
17433677903
17433684495
17433689805
17433696946
17433702256
17433708238
17433715196
17433720323
17433727403
17433732530
17433740037
17433744859
17433750718
17433756700
17433763108
17433769761
17433774583
17433780564
17433784226
17433792222
17433797105
17433803574
17433809678
17433814927
17433821763
17433825669
17433833787
17433838670
17433843613
17433851548
17433856065
17433861375
17433866013
17433872422
17433880051
17433888413
17433899949
17433909287
17433916977
17433924241
17433943833
17433954209
17433965012
17433974533
17433981797
17433989243
17433997361
17434005966
17434015366
17434022690
17434031906
17434042954
17434050644
17434060166
17434070786
17434080124
17434089035
17434097519
17434105331
17434114304
17434121628
17434131577
17434139267
17434147751
17434155929
17434164047
17434173080
17434181564
17434189560
17434200851
17434217026
17434234115
17434251754
17434268722
17434288620
17434305099
17434323226
17434338424
17434358322
17434371749
17434378829
17434388107
17434396896
17434409957
17434422591
17434434798
17434449142
17434462569
17434475326
17434486617
17434496444
17434505050
17434514510
17434524337
17434532699
17434541793
17434550277
17434559615
17434569320
17434577803
17434585616
17434594405
17434602400
17434609969
17434618758
17434626509
17434634505
17434643172
17434651412
17434659773
17434667586
17434675704
17434684126
17434690352
17434699019
17434708907
17434715559
17434724287
17434731612
17434740523
17434749373
17434757613
17434767927
17434776045
17434784407
17434792830
17434800032
17434808333
17434816084
17434822126
17434832808
17434839766
17434849043
17434856550
17434865095
17434873701
17434881514
17434888349
17434899397
17434907270
17434915022
17434921186
17434930097
17434939253
17434947798
17434955427
17434964155
17434970503
17434976728
17434987653
17434996259
17435003828
17435013044
17435020490
17435032453
17435041181
17435048810
17435056257
17435066389
17435074506
17435082685
17435091962
17435100446
17435108198
17435117414
17435125226
17435134504
17435142011
17435150495
17435158673
17435167340
17435175885
17435183515
17435194196
17435199628
17435209516
17435219281
17435227582
17435237836
17435244428
17435256085
17435262189
17435272260
17435281964
17435290448
17435298871
17435307599
17435316510
17435325787
17435334393
17435343243
17435351422
17435360943
17435371014
17435378277
17435388531
17435398358
17435406720
17435414654
17435423138
17435433331
17435438885
17435451519
17435459332
17435468121
17435477581
17435488568
17435497357
17435507427
17435514324
17435524212
17435532574
17435541119
17435551556
17435570171
17435576214
17435581890
17435590252
17435598614
17435604961
17435610271
17435615520
17435620586
17435627605
17435632488
17435640057
17435645183
17435651958
17435657452
17435662395
17435668804
17435674663
17435681621
17435687603
17435692974
17435698406
17435703960
17435709636
17435714641
17435722576
17435728557
17435733928
17435739788
17435744793
17435750896
17435756572
17435762554
17435767559
17435773357
17435779155
17435784282
17435791606
17435796306
17435803020
17435808879
17435814556
17435817607
17435826885
17435831462
17435836833
17435844585
17435851116
17435856670
17435862041
17435867839
17435874736
17435879619
17435887004
17435892558
17435897929
17435903545
17435908794
17435914409
17435918498
17435926494
17435933391
17435938945
17435944255
17435949748
17435956645
17435961711
17435969401
17435975322
17435980632
17435986186
17435991557
17435997233
17436002299
17436010722
17436015910
17436020915
17436026042
17436031047
17436037883
17436042888
17436050456
17436055217
17436062602
17436067057
17436072306
17436077983
17436082072
17436090800
17436095317
17436101847
17436107829
17436113139
17436119547
17436124430
17436130839
17436136576
17436142375
17436148234
17436153483
17436159037
17436163371
17436170756
17436176920
17436182047
17436187357
17436192362
17436199137
17436204203
17436211344
17436217142
17436222514
17436228129
17436233988
17436240092
17436243326
17436252604
17436257059
17436263956
17436269755
17436275004
17436280741
17436285746
17436293497
17436298868
17436304239
17436309610
17436315531
17436321329
17436326395
17436334208
17436338419
17436345682
17436351114
17436357096
17436363260
17436366251
17436374491
17436380716
17436386270
17436391825
17436396463
17436402506
17436409098
17436414835
17436420877
17436426187
17436432047
17436437052
17436443155
17436447183
17436454447
17436460916
17436465921
17436470804
17436475992
17436483438
17436488809
17436495096
17436500650
17436505960
17436512125
17436517862
17436522317
17436527261
17436533853
17436540140
17436545511
17436550699
17436555948
17436561990
17436571145
17436577249
17436583108
17436588418
17436593118
17436598855
17436604959
17436611795
17436618142
17436623208
17436628640
17436634073
17436639749
17436644632
17436650491
17436656839
17436662454
17436667581
17436672891
17436678201
17436683572
17436689065
17436696755
17436701943
17436707742
17436713418
17436718301
17436724404
17436730081
17436737161
17436742776
17436748574
17436753213
17436758645
17436765603
17436770242
17436777322
17436783242
17436789956
17436795571
17436801247
17436805825
17436812234
17436817788
17436823708
17436829018
17436834695
17436840737
17436847695
17436855324
17436861123
17436867470
17436873757
17436881081
17436886513
17436892434
17436900185
17436905800
17436913735
17436920754
17436926918
17436933632
17436939125
17436945778
17436951088
17436956398
17436962685
17436968117
17436976479
17436982582
17436989357
17436995522
17437001564
17437008034
17437014931
17437019936
17437026894
17437032814
17437038246
17437044716
17437049111
17437056618
17437064003
17437069923
17437075722
17437081154
17437087441
17437092262
17437098854
17437105446
17437110939
17437117958
17437124123
17437130226
17437135597
17437140236
17437146950
17437152992
17437159279
17437165382
17437170875
17437177162
17437182106
17437189491
17437195411
17437200783
17437205970
17437211586
17437216896
17437223488
17437229347
17437232826
17437240150
17437246193
17437251319
17437258583
17437263588
17437270668
17437275672
17437282386
17437287818
17437293434
17437298988
17437303565
17437310218
17437315284
17437322242
17437326637
17437332313
17437338111
17437344154
17437350379
17437356605
17437363258
17437368079
17437375587
17437380958
17437387305
17437393714
17437400306
17437407081
17437413306
17437419593
17437423499
17437429603
17437435706
17437442237
17437448279
17437453284
17437460731
17437465125
17437471839
17437477637
17437483497
17437490394
17437493445
17437500647
17437504126
17437511451
17437517371
17437523291
17437528724
17437534278
17437540442
17437546241
17437551123
17437559058
17437564063
17437570105
17437574622
17437581214
17437587073
17437591590
17437598365
17437603308
17437609412
17437614295
17437620886
17437625891
17437631873
17437638648
17437644751
17437650733
17437656226
17437661414
17437666724
17437672522
17437678320
17437684668
17437690527
17437694983
17437700720
17437706763
17437712622
17437719214
17437725500
17437731665
17437737158
17437742773
17437748511
17437755102
17437760535
17437766638
17437772619
17437777380
17437783728
17437789709
17437796240
17437803503
17437809424
17437814550
17437819189
17437826330
17437829931
17437837255
17437840918
17437851110
17437857214
17437862768
17437871496
17437876318
17437882299
17437888403
17437894689
17437902441
17437907812
17437913915
17437920263
17437926977
17437933935
17437939733
17437945410
17437951696
17437958044
17437965002
17437972204
17437978185
17437984655
17437990148
17437995763
17438003027
17438008703
17438015783
17438020971
17438027074
17438030797
17438038549
17438044469
17438048437
17438056310
17438060766
17438067296
17438073522
17438079320
17438084936
17438091283
17438097509
17438102392
17438109105
17438115087
17438120092
17438126745
17438132909
17438138829
17438143285
17438150487
17438154454
17438161168
17438167882
17438172277
17438179235
17438184484
17438190526
17438196446
17438202001
17438207921
17438213109
17438220372
17438223729
17438232396
17438238011
17438243688
17438248448
17438254918
17438261571
17438266637
17438272496
17438277501
17438284520
17438290379
17438295079
17438301793
17438306737
17438313695
17438319188
17438324803
17438331639
17438336278
17438343602
17438349400
17438355015
17438361546
17438367161
17438371556
17438377965
17438383946
17438390538
17438396153
17438401829
17438408116
17438414097
17438420323
17438427220
17438434849
17438440342
17438446385
17438452427
17438457310
17438461888
17438469639
17438474278
17438481602
17438487828
17438494541
17438499241
17438503758
17438511509
17438517918
17438524204
17438528416
17438534031
17438539951
17438545811
17438551487
17438556431
17438563084
17438566502
17438572849
17438579380
17438584934
17438591404
17438597507
17438602695
17438608005
17438613316
17438618503
17438625034
17438631260
17438637730
17438643284
17438647617
17438655430
17438659214
17438665317
17438671543
17438678135
17438684055
17438689365
17438696079
17438699863
17438707981
17438715549
17438720737
17438727634
17438732090
17438738559
17438744724
17438749973
17438757785
17438762424
17438769687
17438774509
17438780551
17438785861
17438792514
17438799167
17438803501
17438810642
17438815463
17438821628
17438826328
17438833408
17438839694
17438845004
17438851352
17438855502
17438863864
17438866977
17438874728
17438880710
17438884677
17438891025
17438895724
17438902927
17438908847
17438913486
17438920505
17438926486
17438932651
17438939609
17438944736
17438949679
17438956943
17438963290
17438968295
17438973727
17438979953
17438985812
17438990939
17438997470
17439003329
17439009005
17439014193
17439019931
17439025851
17439032382
17439038791
17439045199
17439051486
17439058139
17439062777
17439068820
17439073886
17439079989
17439086032
17439091708
17439097689
17439104098
17439109225
17439113986
17439121859
17439127963
17439133090
17439139437
17439143954
17439150668
17439156832
17439162814
17439169894
17439174044
17439180819
17439185641
17439192660
17439197298
17439203402
17439209811
17439215548
17439221590
17439226412
17439232821
17439238863
17439245882
17439251375
17439257601
17439262972
17439267611
17439274752
17439280977
17439286593
17439291292
17439297579
17439303804
17439307772
17439314913
17439321016
17439326082
17439332979
17439337313
17439343966
17439349459
17439354280
17439360140
17439366609
17439372408
17439377901
17439384615
17439388643
17439395784
17439399874
17439407259
17439413973
17439419771
17439425874
17439432771
17439439119
17439445223
17439451570
17439457185
17439463289
17439468904
17439474214
17439479768
17439484407
17439491670
17439497102
17439502779
17439509614
17439514192
17439519502
17439525362
17439530427
17439536714
17439543367
17439548372
17439553804
17439559785
17439564485
17439571443
17439577913
17439583162
17439589143
17439595002
17439599763
17439604707
17439611177
17439618379
17439623079
17439628511
17439634553
17439640901
17439645845
17439652986
17439659516
17439665437
17439671601
17439677461
17439682832
17439689179
17439693879
17439701997
17439706513
17439712007
17439717439
17439723786
17439729218
17439735261
17439739900
17439744721
17439752046
17439756196
17439761750
17439768525
17439774201
17439781342
17439786652
17439793183
17439795869
17439803498
17439808625
17439814179
17439820710
17439824921
17439831330
17439835663
17439842316
17439847993
17439853486
17439859955
17439866120
17439871125
17439876191
17439882966
17439888703
17439895539
17439902863
17439907258
17439913300
17439919953
17439925263
17439932099
17439938813
17439945099
17439951081
17439957367
17439962677
17439968781
17439972504
17439979706
17439987824
17439991974
17439999176
17440004730
17440009613
17440015839
17440022370
17440028290
17440034577
17440039154
17440043549
17440052887
17440059113
17440064301
17440072845
17440076996
17440083832
17440088776
17440094330
17440100677
17440106049
17440112884
17440117950
17440124237
17440130340
17440134613
17440141327
17440147308
17440153778
17440158356
17440165741
17440169708
17440175995
17440181610
17440188812
17440194793
17440201141
17440206817
17440212433
17440217743
17440222564
17440228546
17440234466
17440240814
17440246124
17440250946
17440256561
17440263458
17440268646
17440276153
17440280609
17440287506
17440292571
17440298004
17440303192
17440309661
17440315826
17440321380
17440326690
17440332122
17440337554
17440343719
17440349517
17440356170
17440359588
17440366790
17440373321
17440378631
17440383941
17440388396
17440396819
17440402496
17440407745
17440413360
17440417571
17440424651
17440429778
17440437224
17440442779
17440449309
17440454497
17440460174
17440466094
17440471221
17440479155
17440484588
17440490386
17440496245
17440501372
17440508757
17440513945
17440520659
17440526274
17440531646
17440537871
17440543059
17440548735
17440553069
17440563018
17440566619
17440573455
17440579497
17440584746
17440589934
17440596099
17440602263
17440608061
17440613494
17440618437
17440623930
17440629912
17440636626
17440642668
17440646208
17440652983
17440658843
17440664092
17440670073
17440674773
17440682097
17440687651
17440692717
17440698637
17440704253
17440709196
17440714018
17440720732
17440726897
17440732146
17440737578
17440742949
17440748015
17440752958
17440760466
17440766569
17440772123
17440777372
17440783049
17440789518
17440796293
17440802580
17440807097
17440813139
17440818876
17440824369
17440830351
17440835661
17440842436
17440848234
17440853666
17440859098
17440864530
17440869535
17440875395
17440882414
17440888212
17440893705
17440898832
17440904325
17440909757
17440914213
17440922819
17440929044
17440934660
17440940397
17440945829
17440951383
17440956510
17440963529
17440969999
17440975675
17440982694
17440987516
17440994352
17441001066
17441006620
17441012479
17441017911
17441023832
17441028409
17441034513
17441040311
17441047574
17441053678
17441062650
17441067411
17441074918
17441081144
17441091275
17441097562
17441104642
17441111417
17441117154
17441124967
17441131498
17441139920
17441146634
17441152127
17441157498
17441162564
17441168729
17441175077
17441181729
17441187161
17441191800
17441197904
17441202115
17441210355
17441217008
17441222562
17441227933
17441234219
17441239468
17441244168
17441250699
17441254300
17441262235
17441267728
17441272733
17441278592
17441282132
17441289700
17441296963
17441302823
17441308316
17441313321
17441318875
17441324490
17441330105
17441333584
17441342373
17441348599
17441353665
17441359036
17441363247
17441370694
17441375332
17441382351
17441388760
17441394619
17441399624
17441405423
17441412014
17441416409
17441422451
17441426724
17441434536
17441437710
17441444668
17441451626
17441458401
17441463711
17441469204
17441475491
17441480496
17441487515
17441491787
17441498562
17441505093
17441510098
17441516689
17441522122
17441529263
17441535000
17441541714
17441547390
17441553494
17441559292
17441563259
17441569973
17441575161
17441581631
17441589077
17441594387
17441600246
17441606350
17441611660
17441614529
17441623134
17441628628
17441634914
17441641628
17441646267
17441652614
17441657497
17441664638
17441671169
17441676906
17441682522
17441687771
17441693203
17441698818
17441704006
17441707546
17441716518
17441722438
17441727871
17441733059
17441737148
17441745143
17441749538
17441755397
17441761989
17441766811
17441772548
17441777553
17441786281
17441793239
17441798183
17441805446
17441809108
17441816737
17441819972
17441828212
17441833766
17441839076
17441843715
17441849880
17441857143
17441861842
17441867824
17441872401
17441879237
17441883449
17441890529
17441893458
17441901759
17441908046
17441912990
17441921046
17441925563
17441931727
17441937587
17441942348
17441946437
17441952723
17441957911
17441966334
17441969752
17441978114
17441984034
17441989406
17441994655
17442000392
17442008754
17442015895
17442022975
17442027552
17442034693
17442039515
17442046412
17442053492
17442059046
17442065516
17442071742
17442076930
17442082972
17442088954
17442093226
17442100489
17442105677
17442112574
17442116725
17442124354
17442127894
17442135584
17442139002
17442148158
17442154688
17442160914
17442166712
17442171473
17442178675
17442184656
17442192042
17442197474
17442203211
17442209864
17442215418
17442220240
17442226160
17442233668
17442238428
17442245203
17442248560
17442256312
17442259424
17442266688
17442274805
17442279017
17442285791
17442290491
17442297022
17442301233
17442308863
17442312098
17442319788
17442325647
17442331446
17442337610
17442341944
17442347742
17442353784
17442360620
17442365381
17442371363
17442376062
17442381800
17442387415
17442392664
17442399072
17442404627
17442410425
17442416101
17442421289
17442426782
17442431787
17442437830
17442444299
17442449487
17442455225
17442460657
17442466150
17442472437
17442478784
17442484827
17442489160
17442495752
17442501611
17442506372
17442510522
17442518335
17442524255
17442530664
17442533838
17442542261
17442548974
17442554345
17442560022
17442566797
17442573571
17442579370
17442585412
17442592248
17442597802
17442602929
17442608361
17442614709
17442620752
17442626062
17442630334
17442636682
17442641076
17442647119
17442655114
17442660668
17442666223
17442671777
17442678063
17442682336
17442688439
17442694421
17442700463
17442705102
17442711755
17442717309
17442722863
17442726159
17442734277
17442740563
17442746301
17442752343
17442757836
17442763207
17442767602
17442773522
17442778466
17442786523
17442789941
17442796654
17442802392
17442807519
17442813500
17442818993
17442824486
17442830407
17442836083
17442840417
17442846520
17442851159
17442858605
17442864403
17442870141
17442876122
17442881432
17442886803
17442892174
17442897850
17442902489
17442909081
17442912011
17442919762
17442922875
17442929772
17442936241
17442941979
17442949181
17442953575
17442960472
17442964745
17442971031
17442973656
17442982323
17442988854
17442994530
17442999413
17443004601
17443010033
17443015343
17443022240
17443027672
17443034691
17443037987
17443045372
17443051048
17443056419
17443062340
17443067894
17443074669
17443079002
17443085777
17443090172
17443097862
17443102501
17443108787
17443115562
17443122337
17443127220
17443133629
17443138634
17443144005
17443149559
17443155540
17443160850
17443164818
17443172081
17443176597
17443183189
17443188804
17443194481
17443199974
17443206199
17443212059
17443217430
17443224021
17443227989
17443234031
17443238304
17443246543
17443249839
17443257591
17443263267
17443268333
17443273216
17443278465
17443285056
17443290977
17443295555
17443301109
17443307151
17443313499
17443319419
17443326194
17443332053
17443337302
17443343650
17443349998
17443355552
17443360984
17443368125
17443373740
17443379966
17443384971
17443389426
17443395103
17443399680
17443406455
17443410117
17443418540
17443424399
17443430320
17443435447
17443441001
17443445334
17443450889
17443458945
17443464011
17443472373
17443476767
17443483298
17443489219
17443495261
17443501303
17443506858
17443513877
17443518393
17443524558
17443528769
17443535605
17443540915
17443547141
17443551535
17443558615
17443564963
17443571372
17443575888
17443582297
17443588278
17443592795
17443599509
17443605979
17443612753
17443617209
17443623190
17443630209
17443636862
17443642355
17443648154
17443653891
17443659445
17443665121
17443670065
17443677878
17443682516
17443688742
17443695578
17443701620
17443706747
17443712607
17443719382
17443725241
17443730368
17443734823
17443743002
17443747824
17443754538
17443760580
17443765768
17443770773
17443776693
17443782553
17443788412
17443794760
17443801718
17443807394
17443813864
17443819967
17443825399
17443831564
17443836325
17443841635
17443849447
17443855490
17443861166
17443867208
17443873251
17443877828
17443884481
17443889913
17443896749
17443903463
17443909261
17443914266
17443919943
17443926107
17443932516
17443938131
17443943258
17443950521
17443954122
17443961568
17443968648
17443974874
17443980978
17443986654
17443992574
17443997762
17444003194
17444008382
17444014730
17444021505
17444026876
17444032796
17444038839
17444043966
17444050191
17444055074
17444062887
17444066610
17444073812
17444078084
17444085347
17444090230
17444096944
17444102925
17444108968
17444114888
17444120259
17444125631
17444130818
17444137838
17444144429
17444150411
17444159688
17444165853
17444171529
17444177388
17444182210
17444190450
17444196431
17444202413
17444207478
17444212788
17444218404
17444226766
17444232869
17444238606
17444244588
17444250020
17444256490
17444262715
17444268208
17444275227
17444280904
17444286214
17444291951
17444298054
17444303792
17444308736
17444316670
17444321492
17444327229
17444332600
17444338582
17444344014
17444348530
17444356343
17444359944
17444367451
17444371541
17444377949
17444383748
17444390278
17444396016
17444400227
17444405964
17444412068
17444418721
17444423664
17444430256
17444436787
17444443196
17444448506
17444453022
17444459858
17444464314
17444470600
17444475605
17444482075
17444487873
17444493794
17444496906
17444503742
17444510395
17444515217
17444520527
17444523823
17444529621
17444534382
17444539814
17444544697
17444548359
17444554035
17444556477
17444562458
17444567280
17444572041
17444576801
17444580280
17444586872
17444590290
17444595905
17444599445
17444603840
17444608295
17444611408
17444617023
17444620991
17444625629
17444629963
17444635883
17444638752
17444646137
17444653827
17444658283
17444663837
17444669635
17444676044
17444680988
17444686359
17444690632
17444697467
17444699970
17444707538
17444709919
17444717670
17444722553
17444728351
17444734149
17444738910
17444743976
17444749286
17444754047
17444759784
17444765277
17444770221
17444774982
17444779743
17444784076
17444788349
17444793292
17444796649
17444802326
17444805927
17444812091
17444816486
17444821857
17444825397
17444830707
17444834369
17444838641
17444843341
17444849628
17444854388
17444858661
17444863849
17444868243
17444872272
17444876727
17444883319
17444886920
17444892047
17444897052
17444900958
17444904437
17444910296
17444915057
17444920123
17444924823
17444929584
17444935382
17444938861
17444944232
17444948077
17444953326
17444958392
17444963214
17444967425
17444971331
17444975787
17444979144
17444984515
17444990069
17444994586
17444998614
17445003497
17445008014
17445013263
17445020221
17445026324
17445030902
17445035418
17445040789
17445046160
17445049700
17445057330
17445062762
17445067767
17445073321
17445079363
17445083880
17445091204
17445097918
17445106707
17445111895
17445119341
17445126238
17445132647
17445138323
17445144793
17445150774
17445157244
17445161761
17445169390
17445174944
17445178973
17445182329
17445187945
17445193438
17445200579
17445204180
17445211565
17445217364
17445222002
17445226641
17445233172
17445236162
17445243975
17445247576
17445254473
17445257708
17445264177
17445268816
17445274920
17445278521
17445285662
17445291338
17445296282
17445299211
17445307878
17445310991
17445318193
17445322832
17445329607
17445334307
17445340959
17445345903
17445352129
17445357744
17445362871
17445367143
17445373979
17445379839
17445384844
17445389299
17445396745
17445403032
17445406755
17445413103
17445416887
17445425066
17445428789
17445435686
17445440569
17445446367
17445451372
17445458086
17445462663
17445470109
17445476762
17445482194
17445487810
17445492204
17445498430
17445503496
17445509172
17445514421
17445521135
17445525957
17445531144
17445536332
17445542558
17445547319
17445552812
17445557817
17445565812
17445571000
17445577470
17445583635
17445589067
17445595231
17445601396
17445607560
17445613847
17445620256
17445624162
17445629655
17445634904
17445639176
17445644548
17445651628
17445656449
17445661576
17445669389
17445675431
17445680314
17445687760
17445692216
17445701554
17445707108
17445714677
17445720597
17445728104
17445734086
17445739945
17445745133
17445751420
17445756669
17445761246
17445767838
17445774064
17445778336
17445784135
17445789994
17445796586
17445801102
17445807755
17445811967
17445818741
17445823563
17445826859
17445834305
17445841202
17445847245
17445851456
17445857010
17445862992
17445870011
17445875260
17445880143
17445885880
17445892228
17445897232
17445902237
17445908402
17445913712
17445919266
17445923783
17445929642
17445936966
17445943253
17445949600
17445954605
17445960831
17445965225
17445968521
17445976944
17445983536
17445988175
17445991470
17445999100
17446002518
17446010513
17446014053
17446021133
17446025406
17446032974
17446038223
17446044144
17446048904
17446055923
17446060928
17446066055
17446070938
17446076980
17446083023
17446089187
17446095047
17446101089
17446105972
17446109756
17446117019
17446123489
17446128982
17446133560
17446138382
17446144058
17446148819
17446155410
17446162002
17446168838
17446173111
17446178115
17446184402
17446190689
17446195449
17446199966
17446210647
17446217239
17446223953
17446228408
17446238601
17446245986
17446250686
17446261550
17446271499
17446281936
17446287429
17446303664
17446309585
17446319167
17446327407
17446338454
17446345290
17446353225
17446364028
17446371169
17446377151
17446384170
17446389236
17446395766
17446402297
17446412429
17446419753
17446426345
17446433669
17446441359
17446446364
17446453200
17446459304
17446467971
17446474562
17446482131
17446488478
17446495070
17446503066
17446509841
17446516127
17446524550
17446529250
17446539321
17446547377
17446555495
17446562087
17446572157
17446579299
17446587355
17446594862
17446600661
17446610854
17446615675
17446626479
17446634047
17446641249
17446647414
17446653395
17446661146
17446668288
17446676588
17446683668
17446694044
17446701308
17446706801
17446716871
17446725660
17446733717
17446740858
17446748610
17446755507
17446761366
17446770765
17446777662
17446784986
17446791395
17446798475
17446807081
17446815077
17446821241
17446827833
17446836866
17446843824
17446851148
17446858534
17446866224
17446873853
17446881544
17446888807
17446896070
17446907911
17446914076
17446919202
17446926649
17446932630
17446939893
17446948316
17446950819
17446962842
17446969068
17446977308
17446984693
17446991956
17446999158
17447007825
17447014600
17447019361
17447030774
17447046460
17447054578
17447061109
17447070997
17447077039
17447084729
17447090955
17447095899
17447105603
17447114087
17447122327
17447129956
17447139234
17447147046
17447155286
17447166150
17447172864
17447182996
17447192090
17447204175
17447212659
17447216504
17447229871
17447236707
17447249219
17447254712
17447264355
17447272229
17447279980
17447286999
17447294812
17447302319
17447309643
17447315930
17447323803
17447331799
17447339001
17447348095
17447354504
17447359692
17447369946
17447374951
17447383740
17447390149
17447397900
17447405468
17447412548
17447420971
17447428051
17447435192
17447443005
17447451855
17447457531
17447466381
17447473950
17447482128
17447490673
17447495739
17447505505
17447513134
17447516979
17447528576
17447537670
17447544384
17447552563
17447564648
17447571606
17447579601
17447587047
17447592968
17447605358
17447610546
17447620434
17447628734
17447637279
17447644542
17447650036
17447659984
17447668590
17447674450
17447681408
17447689769
17447696910
17447704540
17447715221
17447721385
17447729564
17447736522
17447745494
17447752818
17447759960
17447766979
17447773631
17447783458
17447790416
17447800243
17447807323
17447815013
17447822032
17447827953
17447837901
17447846934
17447856517
17447863231
17447871226
17447878612
17447887767
17447895091
17447902476
17447908519
17447916820
17447924754
17447931285
17447939402
17447945933
17447954783
17447961924
17447969371
17447978282
17447984141
17447991893
17447999095
17448008982
17448015513
17448022837
17448031748
17448037364
17448047373
17448052683
17448071299
17448073496
17448087595
17448093455
17448102793
17448110484
17448120310
17448130198
17448139231
17448148508
17448154490
17448162363
17448164988
17448174570
17448178599
17448185801
17448191660
17448198191
17448202707
17448209727
17448215098
17448221140
17448226877
17448233408
17448238352
17448244333
17448249704
17448255747
17448261606
17448266306
17448270823
17448278757
17448284922
17448291880
17448296335
17448302988
17448307260
17448314157
17448318430
17448324961
17448333078
17448339853
17448342295
17448351267
17448356943
17448363657
17448370004
17448375498
17448383188
17448389353
17448394785
17448401560
17448409860
17448415109
17448421823
17448428903
17448433359
17448439706
17448444955
17448450143
17448457712
17448463876
17448469247
17448474252
17448480722
17448485422
17448491403
17448498239
17448504648
17448509958
17448515939
17448521432
17448526071
17448535653
17448540231
17448545480
17448551461
17448557748
17448562753
17448568979
17448574655
17448582650
17448588205
17448594918
17448601266
17448605416
17448612924
17448618539
17448623544
17448628488
17448637521
17448643014
17448649301
17448654122
17448660470
17448665353
17448670541
17448676034
17448684457
17448689706
17448694466
17448699227
17448704964
17448712228
17448716988
17448724068
17448731454
17448738045
17448744149
17448751107
17448757149
17448762032
17448767281
17448774117
17448781441
17448786690
17448789986
17448796578
17448799996
17448808175
17448811776
17448818429
17448825142
17448829476
17448834969
17448839730
17448844674
17448850594
17448854866
17448861031
17448865914
17448871346
17448876046
17448883370
17448888741
17448893441
17448897530
17448904366
17448912911
17448919503
17448926216
17448931587
17448938240
17448943062
17448948860
17448953621
17448959786
17448966622
17448973152
17448978523
17448982857
17448986336
17448995308
17448998604
17449005928
17449012154
17449017403
17449020760
17449028084
17449031441
17449038216
17449042000
17449049629
17449053902
17449061409
17449067512
17449072639
17449077644
17449083381
17449087654
17449094063
17449099434
17449108284
17449113228
17449119148
17449124458
17449131904
17449138557
17449140876
17449149727
17449157112
17449162239
17449166145
17449173530
17449179023
17449185310
17449190864
17449196907
17449201972
17449211128
17449216255
17449221504
17449227729
17449233955
17449238227
17449244209
17449248908
17449256660
17449261665
17449264900
17449274421
17449278266
17449284980
17449287666
17449296638
17449300361
17449309943
17449316596
17449325141
17449330695
17449337165
17449341804
17449349189
17449355048
17449362006
17449369330
17449374763
17449380134
17449384955
17449389106
17449393073
17449401862
17449407355
17449414802
17449419501
17449424750
17449427619
17449434272
17449438910
17449445868
17449449164
17449456183
17449461860
17449466620
17449472480
17449478095
17449482428
17449488898
17449493354
17449500861
17449505316
17449509772
17449518195
17449524298
17449529181
17449532782
17449539923
17449547186
17449554633
17449559332
17449565131
17449569953
17449574896
17449579230
17449586249
17449591132
17449597662
17449602362
17449609198
17449613226
17449619208
17449624213
17449628912
17449635260
17449642401
17449648566
17449654181
17449658392
17449663885
17449669623
17449675116
17449680304
17449687933
17449693426
17449701056
17449706854
17449712713
17449717169
17449722113
17449727789
17449732245
17449741278
17449748480
17449752325
17449757940
17449764654
17449771490
17449780767
17449785223
17449793646
17449797125
17449804815
17449811041
17449815924
17449821905
17449826910
17449834295
17449841131
17449845526
17449849920
17449856268
17449859442
17449867132
17449873174
17449879705
17449885259
17449891119
17449900396
17449907842
17449919073
17449922124
17449930975
17449936040
17449944463
17449950628
17449958501
17449963933
17449969732
17449974920
17449978399
17449985784
17449989934
17449997381
17450003484
17450008428
17450013799
17450018255
17450025091
17450029607
17450036138
17450043645
17450048894
17450054326
17450059880
17450065740
17450071355
17450076848
17450082280
17450086187
17450092595
17450097600
17450103948
17450110173
17450115117
17450120793
17450126103
17450133183
17450138371
17450146001
17450151006
17450157170
17450163091
17450169255
17450176030
17450183049
17450189458
17450197270
17450203252
17450208379
17450212529
17450221501
17450225896
17450233647
17450239506
17450244817
17450251591
17450256657
17450259770
17450268071
17450275212
17450281682
17450287419
17450292485
17450298832
17450303959
17450312504
17450320622
17450325261
17450332158
17450337101
17450343754
17450351017
17450357914
17450365788
17450370182
17450375798
17450382939
17450389897
17450395146
17450404606
17450410099
17450419987
17450424198
17450432377
17450436222
17450444462
17450449772
17450456303
17450463200
17450469425
17450475224
17450483219
17450488895
17450495487
17450500919
17450507267
17450513859
17450520390
17450525211
17450531498
17450536564
17450542911
17450547123
17450552799
17450557560
17450563297
17450568302
17450572147
17450578129
17450583195
17450589725
17450594852
17450599125
17450603946
17450610721
17450615360
17450622074
17450628849
17450634098
17450638248
17450644413
17450650821
17450656620
17450662174
17450667423
17450672062
17450675663
17450683597
17450690189
17450696170
17450700565
17450708377
17450713932
17450720096
17450725833
17450730777
17450737003
17450740970
17450748905
17450756290
17450762698
17450768131
17450773685
17450779605
17450785526
17450790775
17450797244
17450804446
17450810733
17450816226
17450823245
17450827945
17450835330
17450839908
17450846316
17450851626
17450859195
17450865848
17450871768
17450878116
17450884158
17450889041
17450895877
17450901553
17450906375
17450916568
17450919864
17450926944
17450934207
17450940188
17450945498
17450951724
17450956729
17450963809
17450969119
17450975100
17450981753
17450988162
17450993045
17450999514
17451004397
17451012332
17451017459
17451021182
17451029544
17451036685
17451042117
17451048892
17451054812
17451058901
17451068667
17451075869
17451082583
17451089053
17451097720
17451107912
17451115237
17451123843
17451130190
17451142641
17451151186
17451159182
17451170534
17451179201
17451185915
17451194277
17451203066
17451210207
17451220400
17451227297
17451234560
17451242617
17451249208
17451255495
17451263552
17451270449
17451274965
17451285891
17451292299
17451298525
17451306276
17451313173
17451319277
17451326174
17451333071
17451341554
17451350343
17451356935
17451366152
17451373110
17451381349
17451388551
17451394106
17451404115
17451412599
17451420412
17451428285
17451438173
17451445497
17451451295
17451462892
17451470827
17451478517
17451486024
17451494813
17451502260
17451507264
17451518495
17451525087
17451533021
17451539674
17451546815
17451555543
17451563356
17451570253
17451578492
17451586366
17451593812
17451602540
17451609986
17451619447
17451627137
17451637025
17451645143
17451654420
17451663209
17451669190
17451679871
17451687623
17451696473
17451704224
17451714051
17451727174
17451733521
17451743836
17451751893
17451761475
17451769593
17451777649
17451786866
17451792481
17451803772
17451811524
17451818543
17451825074
17451832215
17451841004
17451847107
17451854615
17451863465
17451870667
17451877930
17451885742
17451894470
17451899658
17451907410
17451915100
17451923889
17451931153
17451940247
17451947449
17451955689
17451962891
17451968567
17451978455
17451985962
17451993835
17452003906
17452012390
17452021851
17452027954
17452038818
17452046692
17452055237
17452063721
17452071838
17452079590
17452089721
17452098266
17452103149
17452113098
17452116882
17452125671
17452130859
17452138000
17452142944
17452150207
17452155151
17452163024
17452169982
17452175964
17452181030
17452186584
17452192810
17452199096
17452203674
17452210327
17452214721
17452221801
17452226257
17452232604
17452239074
17452244018
17452250244
17452256042
17452261901
17452267394
17452273254
17452278259
17452282653
17452291259
17452296081
17452301757
17452308105
17452314208
17452320678
17452327148
17452333984
17452339721
17452346129
17452351501
17452357970
17452361754
17452369811
17452376525
17452382445
17452389586
17452396361
17452400084
17452408568
17452414855
17452420287
17452425414
17452432189
17452438170
17452444396
17452450072
17452456664
17452461547
17452468749
17452473571
17452479674
17452486205
17452493468
17452500670
17452507018
17452512877
17452520934
17452528319
17452535948
17452542296
17452547423
17452554686
17452561461
17452567320
17452574034
17452580138
17452587096
17452594237
17452599181
17452604979
17452609801
17452616637
17452619261
17452627440
17452631163
17452639036
17452646178
17452650938
17452657164
17452662779
17452668883
17452676451
17452681944
17452692320
17452696470
17452705137
17452710875
17452718077
17452723143
17452729368
17452734983
17452742613
17452748167
17452753172
17452757505
17452763914
17452768248
17452774717
17452779356
17452786436
17452791685
17452796934
17452803160
17452808958
17452813536
17452819639
17452826719
17452832823
17452837644
17452845945
17452850095
17452858457
17452862302
17452872129
17452879514
17452884580
17452891294
17452896055
17452903013
17452907957
17452914426
17452921079
17452928281
17452935850
17452939817
17452947935
17452951230
17452959165
17452964719
17452971067
17452976194
17452983518
17452988828
17452994932
17453001279
17453007383
17453012327
17453019956
17453025144
17453032895
17453039609
17453045530
17453052182
17453057492
17453063779
17453065854
17453075132
17453081479
17453088986
17453095517
17453100400
17453104184
17453112851
17453116757
17453123776
17453130185
17453137509
17453141355
17453149472
17453155270
17453161069
17453165646
17453172055
17453180112
17453186642
17453191769
17453197507
17453204037
17453208920
17453216122
17453221493
17453228818
17453235470
17453243466
17453249997
17453258603
17453266354
17453272763
17453281552
17453288449
17453301327
17453310238
17453319638
17453327145
17453335324
17453343563
17453349728
17453361325
17453370297
17453382382
17453391171
17453401119
17453408993
17453418392
17453424740
17453431027
17453438961
17453446163
17453453854
17453461544
17453468807
17453475399
17453482418
17453488888
17453497860
17453504147
17453513729
17453520260
17453525204
17453534176
17453541073
17453548885
17453554928
17453562374
17453571102
17453581112
17453587642
17453595150
17453601375
17453608150
17453614559
17453623043
17453629635
17453636043
17453641842
17453652034
17453656185
17453665767
17453672603
17453681880
17453688655
17453694332
17453701961
17453709834
17453717220
17453724727
17453732845
17453741512
17453748653
17453756526
17453761531
17453769710
17453776485
17453787166
17453794551
17453801509
17453809627
17453813960
17453822139
17453828914
17453835383
17453845698
17453852656
17453861873
17453869441
17453877437
17453884517
17453887568
17453900020
17453904841
17453914668
17453922175
17453932978
17453940425
17453942744
17453955317
17453962458
17453968074
17453979426
17453981745
17453995600
17454006831
17454014277
17454019526
17454031245
17454037715
17454048396
17454051386
17454063715
17454073115
17454081782
17454089350
17454094477
17454106501
17454109186
17454122065
17454131098
17454137690
17454145502
17454153742
17454162714
17454169916
17454181147
17454187067
17454196894
17454205622
17454214716
17454222223
17454230463
17454239862
17454248835
17454257013
17454264399
17454273065
17454280268
17454289362
17454296747
17454306024
17454312006
17454319086
17454326105
17454331232
17454342279
17454347528
17454357416
17454362543
17454370844
17454377618
17454384393
17454392084
17454397333
17454406549
17454414056
17454420770
17454427972
17454436517
17454445062
17454448114
17454459833
17454465753
17454474908
17454479486
17454488214
17454494928
17454504083
17454512323
17454517511
17454525445
17454531121
17454536248
17454543634
17454550653
17454557672
17454564263
17454569268
17454575799
17454581658
17454588555
17454594964
17454600335
17454605035
17454614800
17454619073
17454626275
17454630059
17454637689
17454643121
17454650567
17454654107
17454665704
17454671563
17454677117
17454682732
17454689446
17454694329
17454701287
17454706475
17454712823
17454718194
17454725457
17454730401
17454736321
17454742913
17454748650
17454754815
17454761040
17454767815
17454773491
17454780083
17454785149
17454792168
17454795952
17454803887
17454809197
17454818474
17454822197
17454829461
17454834649
17454842095
17454848320
17454853813
17454859612
17454866265
17454872551
17454878899
17454884575
17454893669
17454899712
17454906304
17454915032
17454924004
17454938591
17454950432
17454959770
17454972771
17454981133
17454992180
17455002983
17455014091
17455018181
17455029899
17455038322
17455045341
17455051994
17455061760
17455068657
17455076957
17455083732
17455089042
17455100883
17455106498
17455114128
17455125236
17455132743
17455141594
17455149894
17455161430
17455166557
17455177177
17455184989
17455193290
17455199394
17455207450
17455216422
17455223686
17455231559
17455240043
17455247428
17455253715
17455257865
17455268302
17455274772
17455279960
17455289237
17455298392
17455305167
17455309745
17455318412
17455324515
17455333060
17455339591
17455346976
17455353629
17455359244
17455369559
17455373527
17455382132
17455389090
17455398673
17455406424
17455413993
17455422171
17455427054
17455439078
17455445853
17455451224
17455461173
17455464469
17455476432
17455481436
17455490958
17455498526
17455507132
17455514578
17455520987
17455529349
17455536551
17455545157
17455554190
17455565787
17455572806
17455583975
17455591360
17455600149
17455611380
17455620291
17455626822
17455634878
17455643912
17455653860
17455660818
17455669485
17455676809
17455684561
17455693594
17455701407
17455710989
17455718679
17455724844
17455735891
17455745108
17455752798
17455760672
17455767996
17455776358
17455784902
17455793936
17455801687
17455812124
17455819509
17455825674
17455833730
17455841848
17455850637
17455858877
17455864858
17455874197
17455885732
17455894826
17455899587
17455910451
17455921987
17455933767
17455939260
17455949880
17455958364
17455966054
17455971731
17455979421
17455987844
17455993886
17456001455
17456006459
17456013356
17456019826
17456024892
17456033315
17456038015
17456043813
17456049977
17456056752
17456061940
17456068471
17456075978
17456080617
17456088063
17456091725
17456099782
17456103566
17456112416
17456117543
17456126637
17456132008
17456138417
17456143666
17456149403
17456153127
17456159535
17456163747
17456171925
17456178517
17456183583
17456189931
17456195302
17456200124
17456205861
17456211659
17456220204
17456226369
17456232594
17456237294
17456243397
17456250233
17456255177
17456261586
17456269459
17456274647
17456280140
17456287343
17456292531
17456297780
17456300892
17456310353
17456317128
17456323170
17456329090
17456333485
17456336415
17456345021
17456350209
17456355763
17456360951
17456367176
17456374317
17456378834
17456384693
17456390553
17456395863
17456401600
17456409962
17456416248
17456419972
17456426380
17456432179
