17326261980
17326300310
17326305192
17326309648
17326314775
17326319353
17326323808
17326328081
17326332780
17326336931
17326341447
17326345659
17326350358
17326354631
17326358720
17326363115
17326367448
17326371843
17326375627
17326380326
17326384111
17326389116
17326393083
17326397355
17326401811
17326406022
17326410783
17326415055
17326419328
17326423783
17326428361
17326433305
17326438005
17326441911
17326446061
17326451737
17326457841
17326461991
17326469132
17326473893
17326480546
17326487565
17326495316
17326500932
17326507768
17326514665
17326522294
17326529069
17326537003
17326544572
17326551713
17326557572
17326566422
17326574113
17326582474
17326589005
17326597123
17326603959
17326612565
17326620865
17326627457
17326637833
17326644608
17326651200
17326660294
17326666520
17326674454
17326678482
17326688370
17326697037
17326703873
17326712845
17326719864
17326728897
17326736588
17326746109
17326754288
17326761917
17326768753
17326776444
17326783035
17326792618
17326800980
17326808304
17326814529
17326822342
17326829788
17326836502
17326845840
17326857925
17326864639
17326870499
17326881363
17326888199
17326897232
17326904800
17326912002
17326919693
17326925735
17326934524
17326940628
17326948990
17326954971
17326964920
17326971695
17326978225
17326984024
17326992446
17326998855
17327005020
17327009414
17327019058
17327026626
17327034194
17327038467
17327048843
17327056899
17327064529
17327071060
17327079299
17327087478
17327093765
17327101943
17327109939
17327117202
17327125686
17327132522
17327140273
17327146133
17327153640
17327160476
17327166396
17327174331
17327181472
17327190749
17327198318
17327205825
17327212966
17327219375
17327225539
17327234206
17327238662
17327249160
17327256545
17327267897
17327277114
17327284682
17327295119
17327305251
17327312880
17327324477
17327333876
17327344679
17327354750
17327364455
17327379775
17327389723
17327399123
17327409621
17327419264
17327427931
17327438551
17327447340
17327461745
17327471266
17327479750
17327488844
17327498610
17327507155
17327517103
17327524794
17327534498
17327542616
17327550917
17327559645
17327570021
17327577101
17327588758
17327597425
17327604933
17327614576
17327622267
17327631605
17327637342
17327647474
17327654615
17327664442
17327671766
17327682142
17327692274
17327701002
17327708936
17327717970
17327726453
17327735914
17327743909
17327751173
17327761426
17327769117
17327779249
17327784803
17327795728
17327805005
17327813184
17327822095
17327833021
17327842481
17327849805
17327860975
17327865979
17327878125
17327886426
17327894971
17327904859
17327913098
17327920545
17327930066
17327937879
17327947583
17327955640
17327962720
17327974133
17327982373
17327991895
17328000378
17328008679
17328014172
17328023511
17328032056
17328040173
17328049206
17328055249
17328065320
17328071667
17328082654
17328089978
17328099988
17328107312
17328117566
17328126050
17328134655
17328142895
17328151623
17328160046
17328168835
17328179211
17328186718
17328196606
17328203747
17328212414
17328219677
17328229687
17328238720
17328247875
17328256909
17328266186
17328273449
17328282726
17328293896
17328301037
17328311413
17328321545
17328329296
17328339550
17328348766
17328356762
17328365734
17328373180
17328383129
17328390819
17328401684
17328409862
17328422069
17328432811
17328442455
17328451671
17328464000
17328474926
17328484325
17328493724
17328503673
17328513866
17328525463
17328535045
17328545726
17328556407
17328566905
17328577403
17328588573
17328599010
17328609386
17328619823
17328629588
17328640147
17328650828
17328662547
17328672313
17328683238
17328692576
17328702891
17328715342
17328723643
17328738109
17328748973
17328758555
17328768992
17328779124
17328790477
17328798777
17328813670
17328823985
17328834422
17328845225
17328853343
17328866282
17328876597
17328886912
17328899485
17328909251
17328919505
17328930064
17328943491
17328953501
17328965891
17328977915
17328988352
17328997324
17329008982
17329019114
17329030527
17329038889
17329050791
17329060556
17329071848
17329083200
17329092722
17329103952
17329115854
17329125925
17329135141
17329148020
17329157846
17329165781
17329173349
17329181101
17329189157
17329195566
17329204111
17329211740
17329218942
17329226572
17329235849
17329243051
17329250253
17329260202
17329268320
17329275217
17329283090
17329291940
17329299631
17329305734
17329315072
17329323007
17329331003
17329338754
17329348764
17329355478
17329362863
17329369882
17329378427
17329385690
17329392404
17329400827
17329409432
17329415536
17329423898
17329428536
17329440133
17329447885
17329455575
17329463021
17329468820
17329476998
17329483773
17329493417
17329502450
17329509713
17329515511
17329522042
17329527108
17329533761
17329540108
17329545418
17329554452
17329558175
17329565804
17329569344
17329576424
17329579842
17329588021
17329591500
17329600411
17329604806
17329611947
17329622628
17329628304
17329636788
17329643319
17329650643
17329663460
17329670235
17329677315
17329682503
17329690743
17329697884
17329703194
17329710030
17329716072
17329721443
17329728035
17329734261
17329740792
17329746651
17329752571
17329758248
17329764778
17329770577
17329777107
17329782112
17329789070
17329794991
17329800545
17329806160
17329811958
17329818123
17329823738
17329829658
17329835640
17329840767
17329846992
17329852852
17329857612
17329865974
17329867805
17329876533
17329880379
17329887581
17329893196
17329897224
17329903816
17329908943
17329915046
17329919807
17329926704
17329930183
17329937385
17329940559
17329949958
17329955085
17329959297
17329965950
17329972236
17329976936
17329980964
17329987678
17329992683
17329999336
17330004646
17330009101
17330013557
17330019599
17330022895
17330029914
17330033210
17330042121
17330047187
17330053291
17330057990
17330063239
17330069221
17330074897
17330080573
17330085212
17330091560
17330097236
17330101936
17330106574
17330114265
17330119453
17330125312
17330130500
17330136176
17330141791
17330148688
17330157600
17330164619
17330172309
17330179572
17330185981
17330193427
17330200080
17330206122
17330210639
17330217109
17330220405
17330227485
17330233161
17330238837
17330243964
17330249884
17330255866
17330260627
17330267096
17330271247
17330278754
17330283210
17330288520
17330292975
17330299994
17330303473
17330310553
17330316779
17330322516
17330327643
17330332831
17330337287
17330343024
17330349127
17330353400
17330360358
17330365302
17330371161
17330376166
17330382391
17330387091
17330393683
17330397162
17330404669
17330407965
17330414923
17330418219
17330425970
17330431586
17330436957
17330443365
17330449591
17330455633
17330460577
17330466009
17330471014
17330476263
17330483099
17330489447
17330495978
17330500921
17330506231
17330511419
17330516424
17330523016
17330527411
17330533941
17330538336
17330544439
17330549383
17330555548
17330560492
17330566900
17330573309
17330577215
17330583685
17330588201
17330594244
17330600469
17330605169
17330611639
17330616949
17330622930
17330628118
17330633489
17330638738
17330644903
17330651129
17330657842
17330664251
17330673284
17330680669
17330687933
17330696111
17330703069
17330709722
17330715459
17330723333
17330729497
17330735540
17330740606
17330746404
17330753789
17330757146
17330764837
17330768011
17330775945
17330782049
17330787420
17330793096
17330799199
17330804937
17330810796
17330815191
17330821294
17330827398
17330832097
17330839238
17330844365
17330850713
17330856939
17330863042
17330868840
17330875127
17330881536
17330886174
17330893193
17330896550
17330904790
17330910588
17330916020
17330921269
17330926641
17330933354
17330937749
17330945989
17330950688
17330957341
17330962407
17330968205
17330973454
17330979741
17330984013
17330991643
17330997319
17331001591
17331007756
17331012028
17331017400
17331021672
17331030705
17331036076
17331040166
17331047124
17331052678
17331057561
17331063054
17331068120
17331073186
17331080266
17331085881
17331091374
17331098332
17331104191
17331109379
17331115178
17331120854
17331125248
17331131474
17331136296
17331142338
17331149479
17331153691
17331159855
17331165287
17331169804
17331175541
17331181462
17331186100
17331192997
17331200749
17331207096
17331214176
17331222233
17331227970
17331234013
17331243717
17331249760
17331253971
17331260990
17331265141
17331272282
17331276798
17331282597
17331289372
17331295048
17331300297
17331305729
17331311283
17331318058
17331323795
17331329899
17331335392
17331340946
17331346378
17331350895
17331356571
17331362675
17331368900
17331374088
17331379581
17331385013
17331390568
17331397526
17331403141
17331409183
17331414066
17331420963
17331423954
17331433170
17331439640
17331446048
17331452152
17331460697
17331466434
17331473392
17331479496
17331485538
17331490299
17331497867
17331503299
17331508426
17331511356
17331518863
17331525211
17331530155
17331535404
17331541263
17331547550
17331552066
17331559024
17331563724
17331568301
17331572574
17331580692
17331585635
17331590762
17331597781
17331602298
17331607303
17331612979
17331621341
17331626590
17331631900
17331637759
17331643802
17331649478
17331653201
17331660159
17331664615
17331671756
17331676883
17331682315
17331687686
17331692874
17331698184
17331706119
17331711368
17331717471
17331723391
17331731387
17331738467
17331745974
17331751223
17331762454
17331768985
17331775820
17331779971
17331786380
17331792422
17331798587
17331803591
17331811709
17331817385
17331823001
17331828677
17331834475
17331840457
17331846560
17331852725
17331857485
17331864016
17331868594
17331876162
17331882021
17331887698
17331893435
17331898806
17331904543
17331910097
17331916201
17331920779
17331927370
17331931887
17331938784
17331944216
17331950808
17331956240
17331962038
17331967409
17331972902
17331978213
17331982607
17331989138
17331994265
17332000918
17332006655
17332012270
17332017092
17332022402
17332029116
17332033937
17332041140
17332045473
17332051821
17332056887
17332063906
17332069338
17332074526
17332079897
17332086550
17332091555
17332096681
17332102175
17332106203
17332112184
17332118166
17332124941
17332129885
17332135744
17332140383
17332147341
17332153566
17332159242
17332166139
17332171999
17332177919
17332182619
17332189088
17332195375
17332200990
17332207643
17332213625
17332219667
17332224306
17332229921
17332234132
17332241029
17332247499
17332254030
17332260805
17332269472
17332275392
17332284791
17332295289
17332301576
17332306215
17332312440
17332317506
17332323060
17332326417
17332334108
17332340150
17332345643
17332350404
17332355775
17332361573
17332365602
17332372804
17332377320
17332382508
17332388673
17332397218
17332402650
17332408937
17332414735
17332419190
17332425721
17332430482
17332436952
17332442079
17332447450
17332453980
17332458619
17332464845
17332470826
17332476014
17332480347
17332486695
17332491090
17332497681
17332503297
17332508973
17332512086
17332518738
17332524171
17332530030
17332536866
17332542847
17332548096
17332552796
17332559876
17332564759
17332571351
17332574769
17332582642
17332588746
17332594605
17332599549
17332604981
17332611756
17332615723
17332622315
17332626954
17332633118
17332639588
17332644898
17332651001
17332656739
17332661988
17332666199
17332672364
17332677185
17332683533
17332688233
17332694824
17332698181
17332706421
17332711853
17332717224
17332723694
17332728089
17332733582
17332739563
17332745239
17332749695
17332756470
17332763123
17332772400
17332779541
17332788025
17332797302
17332806763
17332813477
17332818726
17332824829
17332830994
17332836792
17332842224
17332847473
17332852539
17332858337
17332864319
17332869018
17332875427
17332879883
17332885132
17332889648
17332895996
17332901489
17332908508
17332914062
17332919555
17332926391
17332932312
17332938171
17332942443
17332950988
17332957763
17332964660
17332969665
17332974121
17332981323
17332987365
17332993164
17332999999
17333004882
17333011962
17333018493
17333024169
17333030578
17333036498
17333041747
17333048705
17333057250
17333062927
17333069396
17333076049
17333082214
17333089294
17333092773
17333100036
17333106445
17333111938
17333118468
17333124694
17333130736
17333135314
17333142638
17333146667
17333153014
17333161315
17333166076
17333173522
17333179137
17333184264
17333190734
17333195311
17333202025
17333206725
17333213073
17333218993
17333224486
17333230346
17333236510
17333242980
17333247741
17333255614
17333262084
17333269225
17333273925
17333279601
17333287413
17333298216
17333304747
17333310301
17333318968
17333324950
17333331603
17333338378
17333343627
17333350462
17333355101
17333361449
17333368102
17333374999
17333378478
17333386168
17333391661
17333397032
17333403136
17333408751
17333415953
17333420409
17333427489
17333432066
17333438658
17333443297
17333450438
17333455260
17333461485
17333468504
17333473997
17333479063
17333484739
17333490538
17333496153
17333502806
17333507383
17333515013
17333521116
17333525267
17333532835
17333537474
17333544249
17333549864
17333555967
17333561888
17333567198
17333572386
17333578367
17333584654
17333588926
17333597227
17333602476
17333607725
17333614439
17333619077
17333627012
17333633054
17333639036
17333646055
17333650144
17333657224
17333661985
17333669126
17333675901
17333681577
17333687803
17333694151
17333699400
17333703977
17333712156
17333718687
17333725461
17333730955
17333735837
17333743833
17333749692
17333755857
17333761411
17333767881
17333773252
17333779600
17333785093
17333791257
17333797239
17333804258
17333809507
17333816037
17333826841
17333834043
17333847531
17333855588
17333864743
17333869321
17333875913
17333881894
17333887387
17333893247
17333898374
17333905149
17333910398
17333914975
17333923337
17333928037
17333933591
17333940671
17333946408
17333951291
17333957944
17333963925
17333967831
17333974728
17333979733
17333985043
17333991940
17333996335
17334003537
17334010129
17334015439
17334021542
17334027280
17334033261
17334037656
17334045041
17334051083
17334056515
17334062375
17334068112
17334073117
17334077633
17334086056
17334091916
17334096371
17334103390
17334108029
17334114315
17334119076
17334127011
17334130490
17334137692
17334143917
17334149899
17334155453
17334161618
17334168881
17334175045
17334180966
17334187008
17334192135
17334197689
17334204098
17334210934
17334217037
17334221676
17334228146
17334234066
17334239742
17334245846
17334250362
17334257382
17334263851
17334269405
17334276058
17334281796
17334288448
17334292599
17334299557
17334304378
17334312496
17334318539
17334323910
17334330074
17334336849
17334343990
17334349300
17334356563
17334361324
17334369381
17334377254
17334383785
17334390499
17334396663
17334402218
17334408077
17334412960
17334418941
17334424739
17334429500
17334437008
17334442867
17334448421
17334454708
17334460445
17334466182
17334471920
17334477840
17334484127
17334489498
17334495418
17334500423
17334506893
17334512264
17334516963
17334524043
17334529231
17334535701
17334542049
17334547481
17334553218
17334559200
17334564449
17334570430
17334576106
17334580806
17334587154
17334591792
17334600032
17334603999
17334611201
17334616817
17334623592
17334628902
17334634334
17334640254
17334646113
17334652583
17334657405
17334663569
17334668147
17334674922
17334681086
17334687678
17334693538
17334700007
17334704829
17334709895
17334717158
17334721370
17334728938
17334734309
17334739009
17334746272
17334752253
17334757380
17334763362
17334769465
17334774470
17334781001
17334785823
17334792231
17334797602
17334803462
17334809504
17334815058
17334821467
17334827570
17334833125
17334838862
17334846613
17334851313
17334858027
17334863581
17334870234
17334877009
17334887568
17334892329
17334899958
17334906428
17334914301
17334920038
17334926996
17334931574
17334940241
17334944086
17334951227
17334957087
17334962763
17334968561
17334974482
17334979853
17334986139
17334991938
17334996882
17335003717
17335008295
17335014826
17335019526
17335027399
17335030695
17335039545
17335044428
17335050287
17335057489
17335061701
17335068354
17335074335
17335079767
17335086664
17335092523
17335095819
17335102899
17335108148
17335115106
17335120844
17335126459
17335132868
17335138300
17335144708
17335149164
17335155939
17335162836
17335168207
17335174249
17335179620
17335185419
17335191217
17335198663
17335203912
17335210321
17335215631
17335221002
17335227045
17335232721
17335238946
17335245538
17335251092
17335256769
17335262506
17335267938
17335273492
17335280023
17335285272
17335291559
17335297784
17335303582
17335308526
17335314447
17335321771
17335328424
17335334222
17335340020
17335345697
17335350824
17335357110
17335363397
17335368646
17335374200
17335381036
17335385613
17335392266
17335397149
17335405206
17335416497
17335422723
17335431817
17335439080
17335447198
17335456353
17335461419
17335467156
17335474053
17335479424
17335484002
17335490350
17335495721
17335502434
17335506280
17335512994
17335519585
17335523980
17335531060
17335536858
17335542290
17335546990
17335553216
17335557915
17335564751
17335569512
17335578789
17335583611
17335588738
17335595879
17335600335
17335607903
17335611382
17335620049
17335626274
17335630425
17335637017
17335641533
17335648857
17335652275
17335663811
17335671807
17335678337
17335687004
17335693535
17335701775
17335708367
17335713799
17335719658
17335725945
17335731926
17335737663
17335743889
17335749321
17335755730
17335761284
17335765984
17335773003
17335779045
17335785637
17335791313
17335797661
17335802421
17335808464
17335813835
17335820122
17335827019
17335832329
17335838493
17335845024
17335850639
17335856132
17335861564
17335866569
17335872123
17335879387
17335885429
17335890495
17335896721
17335902824
17335909965
17335915458
17335921928
17335926567
17335932792
17335937492
17335944389
17335954887
17335963005
17335969474
17335975395
17335980705
17335991447
17335999137
17336005607
17336010002
17336017509
17336021842
17336027946
17336033866
17336039848
17336044486
17336052238
17336056876
17336065177
17336070670
17336076163
17336080985
17336086478
17336092643
17336098746
17336105582
17336110587
17336116874
17336123282
17336128409
17336132987
17336140311
17336146415
17336151847
17336158256
17336164176
17336169547
17336174552
17336181022
17336187003
17336192252
17336198050
17336203910
17336210746
17336213919
17336223075
17336228690
17336234366
17336240592
17336245414
17336252310
17336257865
17336264212
17336269705
17336275626
17336281668
17336286612
17336294303
17336299674
17336305716
17336312064
17336317496
17336323599
17336329642
17336335196
17336339896
17336346610
17336351309
17336358328
17336362967
17336370230
17336376089
17336381888
17336387869
17336393423
17336401053
17336405814
17336411307
17336417288
17336423636
17336429068
17336435293
17336440787
17336446829
17336452933
17336458609
17336465567
17336471365
17336477713
17336482901
17336490164
17336496878
17336503164
17336509634
17336518423
17336524893
17336531729
17336537893
17336543325
17336548208
17336555166
17336558340
17336567861
17336573721
17336579092
17336584158
17336589895
17336595815
17336600515
17336606741
17336611379
17336617849
17336621023
17336627859
17336631094
17336638235
17336643850
17336649648
17336654836
17336660696
17336665945
17336671377
17336677541
17336681997
17336687551
17336692434
17336699880
17336705434
17336710622
17336713918
17336720876
17336726247
17336731924
17336738088
17336743764
17336749502
17336754079
17336760305
17336766286
17336772329
17336776723
17336782277
17336786855
17336792653
17336797475
17336804616
17336807729
17336816945
17336822622
17336839589
17336844594
17336849904
17336855519
17336861806
17336866628
17336872487
17336877675
17336882131
17336887807
17336892385
17336899648
17336905507
17336910756
17336915090
17336922170
17336927541
17336932912
17336937978
17336944264
17336949391
17336955434
17336961171
17336966237
17336972768
17336977528
17336983266
17336988087
17336995717
17337001088
17337007680
17337015858
17337022389
17337031788
17337037099
17337045704
17337051747
17337058156
17337064564
17337070302
17337075184
17337079701
17337085927
17337090809
17337096730
17337101735
17337107655
17337113209
17337118946
17337122364
17337129261
17337135182
17337140492
17337145375
17337151295
17337157032
17337161671
17337167713
17337173512
17337178028
17337183766
17337190357
17337195423
17337200916
17337206043
17337210194
17337215443
17337221790
17337228382
17337234608
17337239552
17337244862
17337249317
17337254566
17337260487
17337264698
17337272388
17337277332
17337283009
17337287647
17337294910
17337301136
17337306690
17337311329
17337317432
17337323841
17337328907
17337334766
17337339527
17337346119
17337351185
17337356312
17337362049
17337366993
17337372303
17337378101
17337383716
17337389576
17337395679
17337399952
17337405567
17337411243
17337416614
17337421192
17337429615
17337436512
17337441577
17337446704
17337452747
17337455921
17337463489
17337470203
17337474536
17337481250
17337485340
17337491870
17337496448
17337501819
17337506458
17337512622
17337517322
17337524036
17337530933
17337537891
17337546008
17337555408
17337563403
17337573657
17337576953
17337584582
17337590686
17337595264
17337602344
17337607043
17337613696
17337618091
17337625781
17337630420
17337635730
17337640796
17337647815
17337654101
17337659594
17337664538
17337669848
17337675158
17337680835
17337686572
17337691577
17337697497
17337703845
17337708484
17337713122
17337720019
17337725146
17337730090
17337735583
17337741748
17337746875
17337752612
17337757861
17337763598
17337768969
17337774890
17337781176
17337785143
17337791308
17337795336
17337801318
17337805895
17337813159
17337817858
17337824816
17337828539
17337835558
17337838915
17337846240
17337849535
17337856982
17337861925
17337867663
17337873827
17337878466
17337885363
17337890002
17337895556
17337901293
17337906542
17337911486
17337917101
17337921618
17337927965
17337931200
17337938646
17337945177
17337950487
17337954943
17337960192
17337965746
17337969835
17337977526
17337982836
17337988756
17337994921
17338000658
17338005846
17338012804
17338015978
17338024401
17338030016
17338035692
17338041246
17338047655
17338058885
17338065355
17338074327
17338082994
17338088548
17338095873
17338101427
17338109361
17338115221
17338120775
17338126939
17338132799
17338138475
17338144334
17338150255
17338156419
17338162218
17338166917
17338173570
17338178758
17338184557
17338189744
17338197435
17338202562
17338208299
17338214586
17338221300
17338227769
17338233446
17338239244
17338245653
17338251146
17338257676
17338263902
17338268724
17338274705
17338281724
17338286912
17338292039
17338297410
17338304307
17338308885
17338316026
17338321824
17338326646
17338333787
17338336900
17338345445
17338350755
17338355821
17338361802
17338368455
17338374742
17338380113
17338386155
17338391587
17338397202
17338407395
17338412522
17338420152
17338426316
17338433396
17338439744
17338445786
17338452988
17338458482
17338465256
17338470017
17338475449
17338481736
17338486375
17338493760
17338498215
17338504563
17338509141
17338516465
17338522019
17338527512
17338537095
17338543625
17338555100
17338564499
17338576340
17338587204
17338597275
17338607895
17338616684
17338628159
17338638840
17338648117
17338658737
17338668747
17338679856
17338690415
17338700913
17338710861
17338721481
17338731735
17338741501
17338751083
17338761703
17338771774
17338782455
17338792038
17338802231
17338812057
17338823959
17338834396
17338845138
17338855148
17338865219
17338876266
17338886886
17338899215
17338909347
17338919540
17338929855
17338939376
17338949935
17338960128
17338970443
17338980514
17338990646
17339000961
17339010421
17339023361
17339033126
17339044173
17339054183
17339064071
17339073531
17339083297
17339093246
17339104293
17339114669
17339124129
17339134688
17339143844
17339152389
17339160567
17339170089
17339177901
17339186141
17339194625
17339202498
17339210677
17339217940
17339224837
17339231551
17339238082
17339243331
17339249922
17339255294
17339262496
17339268965
17339274642
17339281050
17339286849
17339293135
17339297835
17339306502
17339311995
17339317854
17339322859
17339329268
17339333601
17339340865
17339346236
17339352644
17339358076
17339362715
17339370222
17339376204
17339383101
17339389326
17339394514
17339402083
17339409041
17339415510
17339421553
17339428633
17339436445
17339441511
17339448164
17339454085
17339459517
17339464399
17339470991
17339477095
17339482527
17339488997
17339492781
17339500166
17339505842
17339511152
17339517012
17339521711
17339528181
17339534834
17339540083
17339544294
17339550459
17339556745
17339562727
17339568891
17339572492
17339578596
17339585066
17339590925
17339597822
17339602400
17339608381
17339614607
17339619795
17339625654
17339630170
17339637922
17339642988
17339648664
17339653852
17339660017
17339665144
17339670515
17339676496
17339680707
17339687055
17339693342
17339701765
17339707807
17339713422
17339719587
17339725263
17339730695
17339736493
17339742048
17339746076
17339751142
17339758344
17339764509
17339768781
17339774579
17339779584
17339785932
17339791852
17339797345
17339802594
17339808881
17339814435
17339819440
17339824140
17339828839
17339837995
17339843793
17339848432
17339854474
17339859418
17339866010
17339871381
17339877728
17339884564
17339896710
17339904462
17339913617
17339919110
17339927594
17339931317
17339939130
17339944318
17339950238
17339956708
17339962811
17339969403
17339974530
17339980389
17339986554
17339991376
17339998456
17340004254
17340009869
17340016400
17340022076
17340027875
17340033917
17340039044
17340048016
17340052838
17340057721
17340064312
17340070172
17340076336
17340081707
17340086407
17340092389
17340098431
17340104107
17340110211
17340116803
17340122296
17340127911
17340133404
17340139019
17340144757
17340150189
17340155316
17340162091
17340166851
17340172650
17340178143
17340183270
17340188458
17340195721
17340200665
17340206341
17340211041
17340217083
17340223003
17340228863
17340235210
17340240887
17340245953
17340251934
17340255840
17340261272
17340266827
17340273052
17340277630
17340284283
17340289776
17340294842
17340301433
17340307171
17340311565
17340317852
17340323955
17340328228
17340335491
17340342510
17340348125
17340354778
17340359661
17340367046
17340373577
17340379070
17340384868
17340391155
17340398906
17340405376
17340413982
17340424175
17340430217
17340437053
17340444072
17340450420
17340456951
17340461528
17340468852
17340472331
17340479961
17340485271
17340491741
17340498760
17340504131
17340511333
17340514995
17340522685
17340529460
17340535991
17340541057
17340546916
17340553264
17340559550
17340565166
17340570537
17340576701
17340582622
17340589336
17340594951
17340600322
17340605632
17340613383
17340620585
17340625957
17340632731
17340639140
17340645060
17340652995
17340658000
17340664164
17340670329
17340675151
17340681559
17340687297
17340694743
17340701152
17340706828
17340711894
17340718669
17340725505
17340732157
17340738139
17340743571
17340750468
17340756510
17340764018
17340770060
17340776591
17340783061
17340788310
17340794413
17340801615
17340807414
17340814005
17340818339
17340825053
17340831339
17340836649
17340842875
17340848429
17340853861
17340861674
17340866984
17340872904
17340880472
17340885355
17340892740
17340899271
17340906046
17340913248
17340919047
17340925455
17340932291
17340939921
17340946268
17340951700
17340958231
17340964090
17340970682
17340977274
17340983439
17340988749
17340993509
17341000345
17341005289
17341012491
17341018412
17341024088
17341030252
17341035990
17341041849
17341047342
17341054361
17341059366
17341065958
17341070596
17341077432
17341082803
17341088663
17341094644
17341100992
17341107217
17341112894
17341119119
17341125040
17341130045
17341135782
17341142557
17341145914
17341154825
17341160318
17341165811
17341172037
17341178262
17341184488
17341191812
17341197854
17341204080
17341208841
17341215677
17341220315
17341227395
17341233255
17341239053
17341244851
17341250222
17341256570
17341262613
17341269143
17341274026
17341280435
17341284707
17341291116
17341295938
17341301553
17341306863
17341312417
17341318154
17341323220
17341328530
17341334024
17341339028
17341345010
17341352151
17341358682
17341363809
17341368813
17341374001
17341379250
17341384683
17341391580
17341397683
17341403542
17341408059
17341414101
17341418374
17341424294
17341429238
17341438638
17341442544
17341449929
17341455056
17341460244
17341466897
17341473489
17341480935
17341485329
17341492104
17341497292
17341503701
17341508889
17341514016
17341519631
17341525551
17341530617
17341536171
17341541237
17341546792
17341552834
17341557778
17341564797
17341570351
17341578652
17341584877
17341590676
17341596047
17341600746
17341607216
17341611977
17341617592
17341622109
17341628578
17341631874
17341639260
17341648842
17341653237
17341659828
17341664406
17341670204
17341677101
17341682045
17341686745
17341693459
17341696755
17341704628
17341709999
17341715431
17341721352
17341725563
17341732765
17341737282
17341743568
17341748573
17341754433
17341759254
17341766212
17341769447
17341777138
17341782814
17341788612
17341794594
17341798866
17341804542
17341809791
17341815651
17341821937
17341826454
17341831032
17341838234
17341841957
17341848732
17341853553
17341860939
17341866554
17341871986
17341877906
17341882545
17341889503
17341893776
17341899818
17341905677
17341911232
17341916236
17341922340
17341926979
17341933448
17341939186
17341946083
17341951515
17341957618
17341964454
17341972572
17341982032
17341987830
17341998695
17342004737
17342010535
17342016212
17342021156
17342027259
17342031898
17342037940
17342042823
17342049720
17342052955
17342060584
17342067481
17342071448
17342076758
17342082191
17342087928
17342094276
17342099402
17342104957
17342110999
17342115760
17342122474
17342125892
17342135535
17342141272
17342147071
17342151893
17342157874
17342164100
17342168250
17342176429
17342183570
17342189612
17342198340
17342203650
17342211829
17342218543
17342223365
17342229773
17342233496
17342242652
17342247595
17342253211
17342259131
17342263709
17342269385
17342275488
17342280249
17342284644
17342291663
17342296851
17342301978
17342307410
17342312964
17342319922
17342324622
17342330725
17342335181
17342340918
17342347082
17342351477
17342355933
17342362830
17342368750
17342373877
17342379614
17342385046
17342390661
17342396155
17342402136
17342406897
17342412878
17342417151
17342424231
17342427405
17342434118
17342440710
17342446203
17342452551
17342456701
17342462561
17342467932
17342472998
17342479834
17342486914
17342493017
17342498571
17342503942
17342509497
17342516271
17342522619
17342529089
17342533728
17342540685
17342545629
17342552282
17342556799
17342561865
17342568090
17342574072
17342579565
17342583837
17342589819
17342594274
17342600317
17342604650
17342613439
17342619360
17342623754
17342630224
17342635473
17342641149
17342646642
17342652746
17342659154
17342663549
17342668066
17342674779
17342681371
17342686437
17342691381
17342697606
17342703222
17342708288
17342714086
17342719518
17342726415
17342731481
17342736913
17342743200
17342748388
17342753026
17342758336
17342766027
17342770726
17342775914
17342781774
17342787938
17342793004
17342798558
17342803868
17342809301
17342815160
17342820714
17342827062
17342832250
17342837926
17342842320
17342848119
17342852696
17342860448
17342865758
17342872228
17342876805
17342881932
17342887608
17342893468
17342900243
17342907079
17342912328
17342915318
17342923375
17342928746
17342933812
17342938634
17342944249
17342950597
17342954930
17342961217
17342965672
17342971165
17342975804
17342984166
17342989659
17342995152
17343001256
17343007176
17343014561
17343018834
17343026890
17343031773
17343039341
17343044285
17343051426
17343057530
17343062779
17343067479
17343073765
17343080906
17343085362
17343091465
17343095982
17343102024
17343108860
17343114781
17343119725
17343124974
17343130039
17343135472
17343142063
17343147312
17343153660
17343158177
17343165135
17343169529
17343175205
17343179539
17343186863
17343190586
17343198948
17343203709
17343209263
17343215061
17343219517
17343226231
17343230747
17343237400
17343243809
17343249302
17343254734
17343259800
17343265293
17343270786
17343275791
17343282566
17343290073
17343298008
17343306309
17343314121
17343321567
17343329807
17343337986
17343344700
17343353061
17343360019
17343366794
17343373020
17343380649
17343386386
17343391758
17343397007
17343402927
17343408420
17343413303
17343419712
17343426303
17343431430
17343436801
17343441928
17343447788
17343453037
17343458591
17343465244
17343470798
17343475009
17343481784
17343486057
17343492526
17343497531
17343504672
17343510776
17343516269
17343521030
17343526523
17343531833
17343539889
17343545871
17343552768
17343559238
17343565463
17343570834
17343577609
17343583407
17343591220
17343596469
17343603366
17343609225
17343613620
17343620517
17343625338
17343632480
17343639377
17343644931
17343649875
17343655734
17343662204
17343668246
17343675326
17343680575
17343686496
17343691928
17343697543
17343704867
17343710299
17343716281
17343723117
17343728366
17343735140
17343740817
17343746981
17343752535
17343759615
17343766085
17343771761
17343776400
17343783358
17343788851
17343794222
17343800509
17343807223
17343811800
17343817477
17343823885
17343830111
17343835055
17343842745
17343848788
17343856417
17343862582
17343868868
17343873507
17343879488
17343884127
17343892916
17343896456
17343904574
17343910128
17343915682
17343920504
17343926302
17343933870
17343938204
17343945284
17343950350
17343956026
17343961580
17343966768
17343974215
17343979097
17343985506
17343992098
17343997530
17344003084
17344008882
17344014253
17344019991
17344026155
17344031832
17344038545
17344043917
17344050081
17344055391
17344061922
17344066255
17344071565
17344083894
17344089021
17344096101
17344100740
17344108858
17344114412
17344122102
17344126802
17344132722
17344137422
17344143953
17344148530
17344155122
17344161775
17344167390
17344173128
17344178987
17344184724
17344190828
17344196565
17344202119
17344208101
17344214265
17344220979
17344225801
17344232454
17344237153
17344243318
17344249910
17344255281
17344260652
17344266267
17344272065
17344278840
17344285005
17344291047
17344295808
17344301667
17344307588
17344312471
17344319612
17344324861
17344331758
17344336335
17344341950
17344348115
17344353791
17344359712
17344365876
17344370942
17344377046
17344382783
17344389619
17344395051
17344400239
17344406892
17344412568
17344418061
17344424531
17344430329
17344435517
17344441376
17344446870
17344451325
17344459016
17344464081
17344469391
17344475861
17344481904
17344487824
17344492341
17344499055
17344503022
17344511262
17344516938
17344522980
17344528901
17344533783
17344540925
17344547638
17344552765
17344558747
17344564850
17344570710
17344575531
17344583466
17344588471
17344593964
17344600312
17344604584
17344611786
17344623078
17344631256
17344637604
17344643280
17344649811
17344657318
17344662140
17344669891
17344674652
17344680328
17344686737
17344692169
17344697662
17344704620
17344708771
17344715546
17344721222
17344726776
17344733307
17344737823
17344745941
17344750763
17344757233
17344762298
17344769195
17344773895
17344780426
17344785797
17344791961
17344798248
17344804046
17344809356
17344815277
17344821319
17344826935
17344832184
17344838836
17344844452
17344850616
17344855987
17344861480
17344867401
17344873260
17344877777
17344884307
17344887542
17344896026
17344901458
17344907135
17344915069
17344920379
17344927337
17344931671
17344937286
17344944122
17344948577
17344955108
17344959747
17344968658
17344975066
17344979522
17344986175
17344991424
17344998443
17345005157
17345011016
17345016265
17345020904
17345027373
17345033843
17345039336
17345044463
17345049895
17345055633
17345061309
17345067351
17345071929
17345080901
17345084746
17345091216
17345097808
17345103911
17345109405
17345113982
17345122344
17345126922
17345134002
17345140044
17345145781
17345154815
17345161711
17345168120
17345174041
17345180449
17345186553
17345192473
17345198638
17345204619
17345210295
17345215300
17345221709
17345226348
17345234099
17345239714
17345245329
17345251372
17345257231
17345263213
17345267424
17345273772
17345279631
17345285796
17345290434
17345296477
17345303252
17345308745
17345313567
17345319853
17345324492
17345332365
17345336394
17345343962
17345349882
17345355376
17345361418
17345367766
17345373015
17345378935
17345386992
17345392668
17345398344
17345404204
17345410185
17345414702
17345420378
17345426848
17345433561
17345439238
17345443876
17345450590
17345455168
17345462309
17345469389
17345475431
17345480741
17345486113
17345491789
17345497831
17345503080
17345509184
17345516813
17345520231
17345527372
17345534147
17345539701
17345545194
17345550688
17345557401
17345563505
17345568388
17345574796
17345580778
17345586759
17345592374
17345598661
17345604581
17345610197
17345615079
17345622282
17345626249
17345634122
17345639188
17345645292
17345650968
17345655546
17345661832
17345668790
17345674344
17345681180
17345692350
17345697294
17345703580
17345711515
17345719205
17345722928
17345734159
17345739835
17345745450
17345750882
17345757108
17345763700
17345769742
17345774991
17345780973
17345786954
17345791776
17345799283
17345804837
17345810453
17345815824
17345822537
17345828641
17345834256
17345840543
17345846036
17345851773
17345857694
17345863797
17345870023
17345876370
17345881680
17345887967
17345893460
17345899014
17345904752
17345910489
17345916104
17345921780
17345928372
17345934476
17345940091
17345946500
17345952359
17345957303
17345963345
17345969998
17345975247
17345980618
17345986600
17345992825
17345998623
17346004849
17346010342
17346015286
17346020840
17346027432
17346031643
17346038907
17346045803
17346051358
17346055142
17346061734
17346068570
17346072659
17346079617
17346084439
17346091946
17346095730
17346102261
17346108181
17346114041
17346119717
17346126248
17346131558
17346137539
17346142849
17346148342
17346154263
17346160061
17346164578
17346170925
17346177212
17346182522
17346187832
17346193264
17346200405
17346207302
17346212734
17346219082
17346225613
17346231045
17346237087
17346243435
17346250698
17346258816
17346263943
17346270656
17346275783
17346283169
17346286648
17346294155
17346299526
17346306728
17346311855
17346317898
17346324001
17346329982
17346336208
17346341091
17346347377
17346353481
17346358669
17346365139
17346370327
17346375637
17346381618
17346387050
17346393703
17346399806
17346405239
17346410976
17346416835
17346424404
17346429347
17346435512
17346442104
17346447536
17346450893
17346459499
17346465541
17346473048
17346480190
17346485500
17346493068
17346500697
17346506740
17346512416
17346518520
17346524379
17346532680
17346539760
17346545131
17346550929
17346554286
17346560817
17346565455
17346569667
17346573878
17346577968
17346582728
17346585841
17346591090
17346594569
17346599879
17346604152
17346608973
17346614283
17346617762
17346621119
17346626246
17346630275
17346634608
17346639674
17346644557
17346649562
17346653163
17346658656
17346663417
17346667445
17346670924
17346675257
17346679225
17346684352
17346688441
17346695033
17346698146
17346704249
17346709864
17346714320
17346718043
17346722621
17346727259
17346731654
17346738246
17346741847
17346747035
17346752528
17346756251
17346761683
17346767176
17346771327
17346777064
17346781641
17346787257
17346792017
17346797938
17346802637
17346808009
17346812647
17346817164
17346821314
17346826258
17346830592
17346835779
17346838709
17346844874
17346850001
17346854334
17346858484
17346862757
17346866785
17346871119
17346875941
17346879542
17346883814
17346888209
17346892237
17346896814
17346900660
17346904932
17346909571
17346914026
17346918360
17346921900
17346926477
17346928980
17346934412
17346936914
17346942957
17346947474
17346951990
17346957178
17346962305
17346966944
17346971155
17346976831
17346981592
17346985559
17346989771
17346994470
17346999781
17347003565
17347008325
17347014673
17347019434
17347024927
17347030664
17347034998
17347041101
17347044458
17347049646
17347056238
17347062219
17347067224
17347073267
17347077478
17347083093
17347087366
17347093958
17347100000
17347105066
17347109216
17347114526
17347118616
17347124597
17347129053
17347136133
17347141260
17347146936
17347151391
17347158349
17347163659
17347169153
17347175012
17347180017
17347184717
17347191186
17347196679
17347200219
17347207849
17347213342
17347220605
17347225000
17347233789
17347240686
17347247644
17347253869
17347259057
17347265100
17347268701
17347274743
17347278833
17347282678
17347289392
17347292871
17347300561
17347306115
17347311425
17347314660
17347321740
17347325341
17347332177
17347336938
17347342675
17347348412
17347356286
17347359948
17347366662
17347372277
17347379418
17347382958
17347389184
17347393700
17347398766
17347403954
17347410668
17347418236
17347422692
17347429101
17347436059
17347440575
17347446435
17347452416
17347458581
17347464867
17347468407
17347476830
17347480919
17347487206
17347490685
17347498192
17347503808
17347511315
17347516747
17347522789
17347528161
17347533593
17347539208
17347544518
17347549096
17347555504
17347563134
17347568199
17347573021
17347578881
17347585411
17347590355
17347594628
17347601097
17347605919
17347612694
17347617760
17347625572
17347630028
17347635704
17347641625
17347643700
17347653832
17347657860
17347667076
17347671104
17347678307
17347684044
17347689415
17347694969
17347700584
17347707481
17347712913
17347717491
17347724815
17347729454
17347735557
17347741539
17347746788
17347753685
17347759971
17347765953
17347770958
17347776695
17347782493
17347788292
17347794029
17347800560
17347806724
17347815330
17347820640
17347826927
17347833824
17347839073
17347846336
17347852928
17347858909
17347865196
17347869468
17347874839
17347879600
17347885520
17347889854
17347896812
17347903831
17347909629
17347914939
17347921714
17347927085
17347932823
17347937339
17347943809
17347951072
17347955833
17347961387
17347967429
17347972373
17347978538
17347984458
17347988609
17347996787
17348003257
17348008750
17348013938
17348019431
17348023337
17348030234
17348033530
17348042930
17348049155
17348053428
17348056907
17348064658
17348068381
17348076560
17348082236
17348089011
17348094382
17348101645
17348107566
17348113059
17348117637
17348123496
17348129172
17348136496
17348141379
17348148032
17348153281
17348156760
17348165427
17348169394
17348177756
17348183432
17348189414
17348195395
17348202841
17348207297
17348213217
17348216330
17348223776
17348227194
17348235617
17348242087
17348248251
17348254111
17348260397
17348265463
17348271506
17348278525
17348282431
17348290793
17348295798
17348300558
17348306845
17348312216
17348318686
17348324484
17348331625
17348337668
17348342673
17348348959
17348354391
17348359945
17348366049
17348371115
17348376486
17348384726
17348388754
17348395773
17348402243
17348409689
17348415243
17348424276
17348429831
17348436239
17348443991
17348450766
17348455954
17348462912
17348467245
17348474508
17348479086
17348485983
17348490377
17348496176
17348502096
17348507345
17348512960
17348517843
17348525350
17348532675
17348537435
17348543966
17348549520
17348554891
17348559164
17348565756
17348571676
17348576864
17348582845
17348588338
17348594015
17348598653
17348605245
17348609090
17348616659
17348622762
17348627950
17348632772
17348638998
17348644796
17348651510
17348656942
17348662130
17348669515
17348674459
17348682088
17348686910
17348691182
17348698568
17348703756
17348708638
17348715230
17348721639
17348727926
17348733602
17348738118
17348743612
17348749715
17348753316
17348762776
17348769185
17348773824
17348778768
17348786153
17348792317
17348798238
17348803243
17348808431
17348814839
17348819844
17348825826
17348830586
17348837239
17348843526
17348848042
17348854512
17348860555
17348868184
17348873677
17348879720
17348884480
17348890523
17348897298
17348899312
17348908772
17348915120
17348919270
17348925008
17348930989
17348934834
17348941975
17348947407
17348955403
17348959004
17348967427
17348970662
17348977620
17348982869
17348989094
17348993672
17348999897
17349005330
17349012898
17349018879
17349026204
17349032307
17349037007
17349041096
17349051045
17349056233
17349062825
17349066181
17349073994
17349077107
17349084919
17349090779
17349097065
17349101826
17349108174
17349111408
17349118061
17349122822
17349129902
17349135334
17349140888
17349148457
17349153278
17349158405
17349166096
17349170795
17349177448
17349182697
17349189045
17349195454
17349201801
17349206440
17349212849
17349217731
17349223286
17349228351
17349234211
17349240986
17349246479
17349252582
17349257282
17349262897
17349268146
17349273762
17349278278
17349284748
17349290790
17349297626
17349303547
17349308368
17349311542
17349324787
17349327472
17349338764
17349344440
17349350177
17349355976
17349360736
17349366596
17349372455
17349378681
17349386737
17349388996
17349396625
17349402667
17349409992
17349414874
17349420856
17349427509
17349434161
17349439349
17349445758
17349451068
17349457111
17349461932
17349468402
17349474139
17349479327
17349486407
17349492755
17349499835
17349504169
17349510821
17349515582
17349521625
17349523639
17349534503
17349541034
17349547198
17349551532
17349558307
17349561847
17349568255
17349574054
17349581134
17349586993
17349593463
17349598285
17349604998
17349611102
17349622393
17349626361
17349638140
17349644854
17349649981
17349657550
17349663958
17349669879
17349673907
17349679156
17349685443
17349690753
17349695880
17349701983
17349706378
17349712786
17349716937
17349722369
17349729449
17349734759
17349740618
17349745501
17349750811
17349754656
17349763079
17349766741
17349772967
17349778887
17349785418
17349790545
17349795306
17349801836
17349807574
17349812517
17349819842
17349824969
17349832598
17349837664
17349843767
17349848162
17349854143
17349861284
17349866656
17349873858
17349878435
17349884417
17349888567
17349895464
17349902239
17349907183
17349912310
17349917376
17349922625
17349929522
17349934587
17349939714
17349944780
17349952043
17349956682
17349964861
17349971208
17349977678
17349982744
17349989763
17349994707
17350001665
17350006304
17350012163
17350017290
17350020952
17350031145
17350035356
17350043169
17350047258
17350053240
17350059221
17350065691
17350070634
17350077287
17350084856
17350090410
17350095537
17350099748
17350109025
17350113237
17350120561
17350126482
17350132829
17350138811
17350144365
17350149614
17350156694
17350164140
17350166765
17350174455
17350178300
17350186479
17350192827
17350197831
17350204484
17350211076
17350216447
17350222978
17350230424
17350240007
17350247575
17350254716
17350261308
17350268571
17350274674
17350280473
17350288774
17350295732
17350301225
17350308793
17350313554
17350320023
17350324723
17350329240
17350338944
17350345719
17350350663
17350354630
17350362138
17350366837
17350372697
17350376237
17350383927
17350387650
17350394974
17350398637
17350406754
17350410050
17350416093
17350420853
17350427994
17350433976
17350441178
17350446854
17350451615
17350458329
17350462723
17350469315
17350475602
17350483353
17350488419
17350494462
17350498795
17350505875
17350509598
17350516678
17350521927
17350529068
17350534684
17350541581
17350546830
17350552628
17350557755
17350562821
17350569046
17350575943
17350583267
17350585526
17350594681
17350598831
17350606583
17350610611
17350618973
17350624832
17350630142
17350635635
17350643082
17350648880
17350655228
17350660538
17350665115
17350672379
17350676529
17350683365
17350690262
17350694900
17350701553
17350706314
17350713150
17350719131
17350722977
17350730911
17350736221
17350743484
17350748550
17350754349
17350760391
17350765457
17350771682
17350776626
17350785354
17350790176
17350797256
17350799514
17350808975
17350814590
17350821670
17350827713
17350835037
17350841873
17350847183
17350851089
17350861770
17350870498
17350877639
17350886794
17350895034
17350900894
17350908523
17350914199
17350922439
17350927932
17350932754
17350939101
17350944106
17350949905
17350954055
17350959365
17350965408
17350970596
17350977554
17350982986
17350987319
17350993789
17350998061
17351005019
17351011794
17351017837
17351021621
17351030837
17351035293
17351041762
17351046828
17351052566
17351058120
17351065017
17351070144
17351074660
17351081008
17351086135
17351091384
17351097915
17351102492
17351108962
17351114577
17351118789
17351126296
17351131850
17351137404
17351144118
17351148574
17351153456
17351162001
17351171401
17351182997
17351188857
17351198683
17351208510
17351215651
17351220961
17351235121
17351244215
17351253798
17351263808
17351270277
17351279066
17351285780
17351293776
17351300673
17351308668
17351316664
17351326246
17351331923
17351338820
17351345228
17351353041
17351359816
17351369887
17351377089
17351384596
17351391981
17351400099
17351409315
17351415724
17351426100
17351435560
17351443251
17351450087
17351459303
17351464002
17351474012
17351479139
17351490797
17351499464
17351507337
17351514662
17351522474
17351531019
17351537000
17351547498
17351556471
17351567945
17351577589
17351588392
17351596876
17351605054
17351617078
17351625745
17351632398
17351641797
17351649183
17351656812
17351663404
17351672986
17351677503
17351687146
17351696729
17351704358
17351710645
17351718030
17351725476
17351732862
17351740369
17351747876
17351756055
17351761670
17351771802
17351778516
17351787793
17351793958
17351801648
17351808057
17351818067
17351825391
17351833691
17351838330
17351849561
17351857129
17351865002
17351869946
17351880139
17351885205
17351895703
17351904004
17351913586
17351918652
17351930676
17351935986
17351947400
17351952649
17351963147
17351971142
17351981946
17351989636
17351996594
17352007397
17352015942
17352023938
17352030224
17352038342
17352045483
17352052563
17352059277
17352066235
17352073498
17352080456
17352087719
17352095532
17352101635
17352109936
17352118359
17352126415
17352134106
17352142223
17352149242
17352155956
17352163830
17352172192
17352181164
17352189526
17352196606
17352203747
17352211925
17352218578
17352227550
17352233898
17352241710
17352246410
17352255443
17352263195
17352269176
17352276989
17352285473
17352293163
17352301220
17352309826
17352315685
17352324413
17352331127
17352340343
17352346935
17352356029
17352365306
17352372508
17352380443
17352387401
17352394542
17352403941
17352411022
17352419383
17352426158
17352437022
17352444896
17352451366
17352458812
17352466502
17352476573
17352484508
17352490367
17352494701
17352502574
17352507884
17352513682
17352517222
17352522716
17352527049
17352531627
17352538524
17352543284
17352548472
17352552684
17352556407
17352560862
17352566295
17352571055
17352575328
17352581859
17352587291
17352592784
17352597483
17352602305
17352606578
17352612193
17352615733
17352623118
17352626597
17352633738
17352636912
17352642955
17352649180
17352656199
17352662364
17352669016
17352672434
17352679453
17352684886
17352689280
17352693797
17352699229
17352705699
17352712901
17352717417
17352722849
17352728159
17352734263
17352738474
17352745371
17352749949
17352755320
17352759898
17352765391
17352770151
17352777232
17352782236
17352788279
17352793345
17352799448
17352803843
17352809275
17352815012
17352819834
17352826548
17352832529
17352837534
17352842783
17352849802
17352855478
17352860788
17352866526
17352873240
17352878244
17352883738
17352890024
17352898325
17352904978
17352915171
17352917185
17352926462
17352933420
17352941111
17352950693
17352954538
17352962168
17352967783
17352972177
17352976755
17352983530
17352988535
17352994455
17352999216
17353004648
17353009470
17353016306
17353021677
17353029794
17353034921
17353041025
17353045541
17353051401
17353058054
17353062753
17353067392
17353071054
17353080820
17353084787
17353091440
17353096689
17353102426
17353107919
17353113473
17353118478
17353124460
17353130929
17353136117
17353141122
17353146371
17353153085
17353159067
17353165231
17353171212
17353175973
17353179574
17353189767
17353193856
17353201242
17353207101
17353213571
17353219247
17353226876
17353232553
17353238473
17353243600
17353251474
17353256600
17353263009
17353268258
17353272225
17353281442
17353287911
17353293893
17353299874
17353306893
17353312570
17353319955
17353325265
17353331673
17353337594
17353343819
17353350594
17353355782
17353362191
17353367257
17353374520
17353378365
17353386361
17353390145
17353397042
17353402718
17353409249
17353414559
17353421029
17353426949
17353432625
17353437935
17353446663
17353451790
17353459115
17353464364
17353471016
17353475838
17353483651
17353491463
17353498482
17353504219
17353511422
17353516549
17353520699
17353531197
17353538704
17353545967
17353552742
17353562447
17353564583
17353574654
17353578804
17353588692
17353592781
17353601448
17353604988
17353613289
17353619270
17353624764
17353630501
17353637154
17353642281
17353648384
17353653633
17353659920
17353665169
17353672310
17353677071
17353683052
17353689888
17353694404
17353702034
17353708565
17353715095
17353718757
17353726509
17353730171
17353738045
17353743538
17353749092
17353755684
17353760627
17353765632
17353771248
17353776985
17353784858
17353789558
17353796272
17353802559
17353810554
17353816047
17353822395
17353828437
17353833992
17353840339
17353845283
17353853401
17353857734
17353864753
17353868598
17353875495
17353880866
17353888313
17353893562
17353900398
17353905830
17353912483
17353917854
17353924323
17353929206
17353935371
17353941596
17353948249
17353953681
17353960578
17353968024
17353973395
17353980231
17353985358
17353991828
17353997565
17354006537
17354012153
17354018012
17354023078
17354029975
17354036994
17354042792
17354047492
17354053473
17354060798
17354066596
17354072760
17354078681
17354083930
17354091132
17354097846
17354101447
17354108832
17354114936
17354121772
17354125312
17354133490
17354137397
17354145453
17354149665
17354158209
17354162360
17354172553
17354177924
17354188178
17354196417
17354202338
17354206366
17354216132
17354222784
17354229254
17354234686
17354240668
17354245734
17354252142
17354257391
17354264899
17354270026
17354275946
17354281683
17354288946
17354294256
17354299505
17354304877
17354311712
17354317816
17354323248
17354329413
17354335211
17354341559
17354345892
17354353155
17354356939
17354364386
17354368170
17354376104
17354381720
17354387396
17354392096
17354398565
17354405828
17354412420
17354420233
17354426275
17354430914
17354436895
17354441778
17354448797
17354453924
17354458013
17354467413
17354471563
17354477667
17354482672
17354489691
17354494695
17354500982
17354506597
17354514471
17354520635
17354527105
17354533086
17354539190
17354544378
17354551702
17354557561
17354564092
17354569524
17354573308
17354579778
17354583318
17354591497
17354596380
17354603521
17354608709
17354614995
17354620855
17354628789
17354633428
17354640447
17354645757
17354650457
17354657537
17354661504
17354669866
17354675420
17354681585
17354687932
17354694524
17354700505
17354707097
17354711858
17354719670
17354725347
17354731816
17354737920
17354742131
17354748235
17354752385
17354760442
17354764226
17354771733
17354775212
17354781438
17354785344
17354792363
17354797002
17354806828
17354815068
17354819463
17354829717
17354837834
17354842595
17354852422
17354857304
17354862736
17354869023
17354873601
17354880498
17354885380
17354891484
17354895940
17354902348
17354908147
17354914067
17354919133
17354924748
17354930668
17354937260
17354941227
17354950383
17354954106
17354961308
17354966801
17354972905
17354976628
17354983220
17354987614
17354993901
17354999089
17355005925
17355010136
17355015568
17355020451
17355025944
17355031498
17355037358
17355044682
17355050480
17355055790
17355060795
17355065373
17355072636
17355077763
17355084721
17355089848
17355094181
17355101261
17355105167
17355112675
17355118473
17355124638
17355128178
17355135441
17355141605
17355147282
17355152653
17355159122
17355164310
17355172306
17355176945
17355181522
17355187870
17355192814
17355198856
17355205082
17355210697
17355216556
17355221500
17355226810
17355233890
17355239506
17355245914
17355252384
17355257694
17355263004
17355270633
17355275699
17355281009
17355289432
17355294315
17355300907
17355305362
17355312198
17355318790
17355324222
17355329349
17355337284
17355342960
17355350833
17355355960
17355362064
17355368289
17355375125
17355380130
17355386661
17355393497
17355399234
17355406192
17355413944
17355421451
17355427615
17355434207
17355440311
17355448367
17355455997
17355463504
17355469180
17355473453
17355480594
17355485293
17355491214
17355496097
17355502994
17355507449
17355512942
17355520083
17355522037
17355532168
17355538089
17355546206
17355552981
17355557559
17355563662
17355568606
17355575198
17355580874
17355589114
17355594912
17355600528
17355608157
17355613040
17355621402
17355627566
17355632144
17355638735
17355645632
17355648074
17355655764
17355659487
17355665774
17355670107
17355676638
17355679568
17355688845
17355693423
17355699343
17355702273
17355708865
17355713686
17355719241
17355725771
17355733584
17355736636
17355746279
17355748232
17355756045
17355760928
17355766482
17355769533
17355775820
17355780642
17355787844
17355791445
17355798159
17355804384
17355809694
17355814394
17355820070
17355827639
17355833437
17355838625
17355843569
17355850588
17355855593
17355861269
17355867006
17355871401
17355877932
17355883913
17355889284
17355894106
17355897463
17355905153
17355908632
17355919069
17355922792
17355930361
17355935060
17355942324
17355947023
17355952272
17355956789
17355964723
17355970461
17355977480
17355982179
17355987612
17355992372
17356000673
17356010500
17356016786
17356024660
17356031740
17356040590
17356047121
17356053407
17356061159
17356064394
17356071291
17356076967
17356082643
17356084718
17356092042
17356095949
17356101564
17356107362
17356113161
17356115297
17356123964
17356128847
17356134401
17356140931
17356147462
17356153688
17356159242
17356162782
17356169130
17356174989
17356180848
17356185548
17356192750
17356198304
17356205323
17356210145
17356215089
17356221192
17356227357
17356233888
17356239076
17356244081
17356247865
17356254762
17356260438
17356268311
17356274049
17356279542
17356285706
17356291078
17356297852
17356302674
17356310365
17356315553
17356320618
17356326783
17356333619
17356339417
17356346925
17356353333
17356359071
17356364869
17356371827
17356377259
17356382386
17356389405
17356395142
17356401612
17356408692
17356414246
17356420594
17356427247
17356432679
17356439698
17356445252
17356449463
17356457032
17356462342
17356469361
17356475586
17356480957
17356485230
17356494263
17356498413
17356506958
17356512879
17356519959
17356525940
17356531616
17356537781
17356543213
17356550110
17356557373
17356563355
17356570313
17356577088
17356583313
17356588440
17356594605
17356603577
17356607849
17356613586
17356626648
17356633301
17356640625
17356646851
17356659485
17356667236
17356670471
17356682190
17356692077
17356700073
17356708191
17356721985
17356727295
17356736206
17356741333
17356750183
17356756897
17356759765
17356772461
17356779480
17356786254
17356794250
17356800720
17356807312
17356813598
17356822570
17356830688
17356837890
17356845397
17356852783
17356858459
17356865905
17356872070
17356877014
17356885925
17356892700
17356899230
17356906066
17356912963
17356918945
17356923461
17356932616
17356939758
17356946654
17356953246
17356961730
17356971068
17356978271
17356985351
17356992919
17357001830
17357006774
17357013061
17357024169
17357029357
17357039977
17357048034
17357055907
17357062560
17357070983
17357078185
17357086242
17357093322
17357100096
17357110167
17357119139
17357124633
17357135131
17357142516
17357150389
17357157530
17357160643
17357171691
17357179869
17357189391
17357197081
17357204039
17357210570
17357219176
17357225768
17357234923
17357241698
17357249754
17357257201
17357265623
17357274046
17357280638
17357285521
17357294737
17357301939
17357307921
17357316405
17357324095
17357331663
17357337217
17357347105
17357354002
17357361448
17357368467
17357375059
17357382078
17357390135
17357397276
17357404905
17357413145
17357419493
17357425779
17357434141
17357442625
17357448240
17357455076
17357465391
17357471922
17357479673
17357486570
17357492002
17357501402
17357509702
17357517454
17357525999
17357534116
17357544248
17357554136
17357563047
17357569822
17357578672
17357586790
17357594968
17357602842
17357609983
17357620786
