3528501892
3528512878
3528520874
3528528015
3528536255
3528546081
3528553161
3528562683
3528570617
3528578125
3528584655
3528592651
3528600341
3528608154
3528617614
3528625488
3528632385
3528639404
3528644958
3528653869
3528660033
3528667419
3528673766
3528679809
3528687499
3528693847
3528700195
3528706298
3528714721
3528720092
3528728515
3528734374
3528742065
3528747619
3528755981
3528761657
3528769591
3528777587
3528784423
3528791320
3528798522
3528804931
3528812438
3528818847
3528825988
3528833129
3528842040
3528848815
3528854857
3528861083
3528868529
3528877135
3528885192
3528892028
3528900084
3528907103
3528915831
3528921446
3528931029
3528937804
3528946227
3528952574
3528960936
3528967711
3528975523
3528984068
3528991454
3529000304
3529009520
3529017332
3529024718
3529033629
3529041197
3529051085
3529058714
3529066160
3529074461
3529081907
3529088743
3529097471
3529105162
3529113218
3529120970
3529129637
3529137877
3529144896
3529153379
3529161131
3529170103
3529180418
3529188291
3529194578
3529201048
3529209654
3529217100
3529223020
3529232847
3529239866
3529247495
3529254209
3529262388
3529269529
3529278379
3529285154
3529291502
3529300962
3529308164
3529315855
3529322629
3529328855
3529336973
3529346067
3529353269
3529359434
3529365903
3529375547
3529383054
3529390745
3529401243
3529408994
3529417539
3529425412
3529432431
3529440671
3529449887
3529458554
3529466001
3529472715
3529481931
3529488156
3529497129
3529503720
3529514768
3529522153
3529529477
3529536862
3529545041
3529552060
3529561520
3529566708
3529577329
3529585324
3529591855
3529598691
3529608762
3529616757
3529623532
3529632870
3529639462
3529647092
3529653988
3529663510
3529670346
3529679196
3529686459
3529695675
3529703000
3529709225
3529718686
3529724789
3529732235
3529740231
3529751278
3529757748
3529767025
3529773556
3529783627
3529790890
3529797482
3529807430
3529815670
3529823239
3529830135
3529837521
3529845821
3529852963
3529863277
3529868710
3529882015
3529891537
3529899715
3529908138
3529916073
3529922542
3529932125
3529938595
3529946224
3529955684
3529963375
3529969845
3529979488
3529985958
3529995357
3530001949
3530009517
3530016353
3530025631
3530031917
3530039974
3530047420
3530056087
3530063838
3530069942
3530078487
3530085750
3530092525
3530099300
3530108333
3530115474
3530123348
3530130184
3530137142
3530144466
3530153560
3530160091
3530167049
3530174251
3530183894
3530188716
3530198726
3530205440
3530213679
3530220759
3530231013
3530239192
3530245662
3530253413
3530259822
3530266475
3530275935
3530283626
3530290584
3530297358
3530306392
3530313899
3530320369
3530327266
3530336116
3530343928
3530350642
3530358088
3530366755
3530374873
3530381404
3530389765
3530395991
3530404719
3530411311
3530420588
3530427058
3530435420
3530441828
3530449824
3530456477
3530463252
3530473872
3530482844
3530490717
3530498652
3530506098
3530513544
3530519953
3530529169
3530536860
3530544916
3530551691
3530559138
3530565729
3530573237
3530580134
3530588129
3530595026
3530602472
3530610041
3530618036
3530625483
3530632624
3530640497
3530651056
3530658930
3530666925
3530674860
3530682245
3530689630
3530696710
3530705316
3530712457
3530720026
3530727045
3530733881
3530741083
3530747186
3530753534
3530763544
3530771783
3530778497
3530785516
3530791925
3530798456
3530806451
3530813959
3530819879
3530827875
3530836236
3530844720
3530851312
3530858331
3530866449
3530874139
3530881219
3530887811
3530896600
3530902887
3530912042
3530916742
3530927606
3530933709
3530942559
3530950006
3530956903
3530962884
3530971551
3530979363
3530986199
3530993707
3531000176
3531005364
3531012933
3531020135
3531026483
3531032525
3531038201
3531043450
3531048394
3531054559
3531060845
3531066583
3531071709
3531078301
3531084954
3531091302
3531097344
3531103387
3531108941
3531116936
3531122002
3531130303
3531136773
3531141839
3531148919
3531155877
3531162957
3531168450
3531173455
3531177971
3531183892
3531187859
3531194268
3531200615
3531206170
3531211235
3531215996
3531220330
3531228997
3531234673
3531239617
3531246331
3531254387
3531259392
3531265923
3531270561
3531277397
3531283135
3531287834
3531292473
3531297661
3531304192
3531309502
3531314934
3531321404
3531326653
3531332634
3531337029
3531343803
3531348381
3531354546
3531359734
3531365593
3531370903
3531376457
3531383842
3531389641
3531394279
3531400017
3531404655
3531409965
3531415153
3531421135
3531427055
3531431328
3531437492
3531442863
3531447929
3531455375
3531461601
3531466362
3531471672
3531476616
3531482536
3531487541
3531493156
3531499015
3531504020
3531510612
3531515007
3531519767
3531526603
3531533378
3531538322
3531543937
3531550163
3531554191
3531560295
3531566215
3531570793
3531575798
3531581840
3531586112
3531590446
3531597038
3531602287
3531607292
3531612052
3531618705
3531623588
3531629875
3531635734
3531642082
3531647392
3531651420
3531656913
3531662040
3531669852
3531675895
3531681693
3531685783
3531691947
3531699515
3531705680
3531712211
3531717643
3531723929
3531729972
3531733756
3531741019
3531746757
3531752006
3531757743
3531762931
3531767508
3531774405
3531779471
3531785331
3531790763
3531796683
3531801139
3531806754
3531812247
3531818167
3531825858
3531831717
3531837088
3531842398
3531846854
3531850943
3531858939
3531865103
3531870780
3531876456
3531882010
3531887381
3531891715
3531897757
3531903189
3531908804
3531914847
3531920706
3531925406
3531933341
3531938590
3531946646
3531952200
3531957144
3531964407
3531969901
3531975821
3531980826
3531985342
3531991690
3531998038
3532004141
3532009695
3532014700
3532021231
3532026846
3532033377
3532038260
3532044485
3532049978
3532055533
3532060965
3532066824
3532071951
3532077017
3532084280
3532090323
3532095877
3532103384
3532109182
3532113882
3532119375
3532126150
3532132315
3532136648
3532143362
3532149465
3532156118
3532161795
3532168020
3532173574
3532179617
3532185049
3532191824
3532197439
3532202078
3532208669
3532213796
3532219717
3532225454
3532230032
3532237173
3532242849
3532247549
3532253225
3532259573
3532264639
3532270254
3532277517
3532281667
3532287771
3532292287
3532298635
3532303030
3532309133
3532316152
3532321096
3532325857
3532332998
3532338186
3532343252
3532349050
3532357229
3532361806
3532367605
3532372426
3532378835
3532385793
3532391225
3532397634
3532403066
3532408986
3532413564
3532419545
3532424733
3532432180
3532439077
3532446828
3532452016
3532457021
3532462575
3532467885
3532474965
3532480458
3532486684
3532492970
3532498097
3532504079
3532508840
3532515309
3532519948
3532525624
3532531484
3532535756
3532542470
3532549062
3532555165
3532559926
3532564565
3532571461
3532576833
3532582875
3532588307
3532594228
3532600209
3532606068
3532611439
3532616444
3532622853
3532627675
3532634694
3532639271
3532646535
3532654713
3532659901
3532665455
3532673146
3532678822
3532685231
3532690175
3532694874
3532701222
3532706532
3532712391
3532717518
3532723622
3532727711
3532732838
3532739796
3532746083
3532751759
3532757130
3532763172
3532768238
3532773121
3532778065
3532785023
3532789906
3532795643
3532801624
3532806996
3532813038
3532817616
3532824391
3532828907
3532835560
3532840138
3532846790
3532852833
3532858875
3532863880
3532869556
3532875843
3532880604
3532885914
3532891346
3532898426
3532902393
3532907459
3532914478
3532920032
3532924488
3532930469
3532935352
3532942493
3532947864
3532954029
3532959278
3532964649
3532969715
3532976062
3532981006
3532985706
3532992542
3532996997
3533001819
3533007251
3533013904
3533018604
3533026660
3533031665
3533035816
3533042469
3533047107
3533054309
3533058948
3533067493
3533072498
3533078052
3533083240
3533088062
3533094776
3533100818
3533106372
3533111072
3533116016
3533122241
3533128650
3533133777
3533139453
3533146655
3533153125
3533160999
3533167407
3533173877
3533179492
3533185657
3533191394
3533196948
3533202258
3533208240
3533213489
3533218432
3533224414
3533229663
3533234668
3533240771
3533246264
3533251208
3533255359
3533261767
3533267322
3533273303
3533278125
3533283618
3533289538
3533294238
3533300280
3533306079
3533311694
3533316577
3533322924
3533327807
3533333239
3533337878
3533343249
3533349841
3533353869
3533360644
3533366564
3533371447
3533377246
3533381884
3533388781
3533394152
3533399401
3533405505
3533412035
3533416308
3533422656
3533427050
3533433581
3533439684
3533444384
3533450121
3533456286
3533461474
3533467333
3533473315
3533479418
3533484301
3533491381
3533496020
3533500475
3533506701
3533513293
3533518297
3533523546
3533529955
3533535448
3533541430
3533546312
3533552843
3533559313
3533564440
3533569750
3533574755
3533580431
3533586901
3533591784
3533597338
3533603075
3533608141
3533613390
3533620165
3533624620
3533629503
3533636461
3533641649
3533648119
3533653368
3533659227
3533665880
3533671556
3533677538
3533686632
3533692247
3533698961
3533704576
3533709154
3533715379
3533720873
3533725267
3533731126
3533736559
3533742845
3533747362
3533753404
3533758043
3533763719
3533769701
3533776109
3533782091
3533787462
3533792223
3533797899
3533804430
3533808336
3533814073
3533818956
3533825609
3533830186
3533836961
3533842515
3533848008
3533854295
3533859483
3533864732
3533870164
3533876573
3533881028
3533888536
3533894395
3533899522
3533903978
3533911241
3533915635
3533922532
3533927598
3533933030
3533938157
3533943650
3533950059
3533955552
3533960557
3533966294
3533973130
3533977586
3533983872
3533988572
3533994859
3533999497
3534006150
3534010667
3534017381
3534022385
3534028001
3534033006
3534038316
3534043504
3534048997
3534055711
3534061143
3534066331
3534072861
3534077683
3534083543
3534089524
3534093980
3534103074
3534108079
3534113511
3534118577
3534123215
3534129746
3534137253
3534142563
3534148789
3534154770
3534160264
3534166794
3534171433
3534177536
3534184250
3534191086
3534197312
3534203049
3534209092
3534215134
3534220200
3534227280
3534233383
3534238510
3534244492
3534249802
3534254441
3534260178
3534265671
3534272446
3534277085
3534282944
3534289047
3534293625
3534299545
3534307236
3534312912
3534318039
3534323654
3534328781
3534335495
3534340561
3534346115
3534351181
3534355881
3534362350
3534368027
3534372787
3534378525
3534383408
3534389999
3534395981
3534401047
3534406662
3534411911
3534417221
3534423630
3534428940
3534434677
3534440597
3534445663
3534451095
3534456100
3534461654
3534466720
3534473983
3534478683
3534484481
3534489547
3534494003
3534500595
3534505233
3534511825
3534517746
3534524154
3534529525
3534535507
3534539901
3534545455
3534549911
3534555953
3534561996
3534567184
3534573715
3534578658
3534582992
3534589156
3534595138
3534602950
3534608016
3534612960
3534618087
3534624252
3534629195
3534634811
3534642379
3534648177
3534653670
3534658492
3534663924
3534669051
3534675338
3534681380
3534686568
3534692245
3534697372
3534703841
3534709579
3534715682
3534723922
3534730269
3534737166
3534742782
3534748702
3534753219
3534759749
3534765426
3534770308
3534775802
3534780928
3534786849
3534791854
3534797225
3534804061
3534808699
3534815352
3534820601
3534826400
3534831160
3534837630
3534842452
3534849227
3534853865
3534860335
3534864852
3534871199
3534875594
3534881575
3534888106
3534892806
3534899214
3534903914
3534910384
3534914778
3534921187
3534925520
3534932478
3534937117
3534943526
3534949446
3534954085
3534958723
3534965742
3534970320
3534977766
3534982771
3534987532
3534994002
3534999434
3535004622
3535010115
3535015486
3535020735
3535027388
3535033186
3535038191
3535042769
3535049788
3535054976
3535060835
3535067549
3535072554
3535077131
3535082624
3535087690
3535094404
3535100386
3535105391
3535110884
3535115644
3535120466
3535126997
3535131514
3535138349
3535145613
3535149641
3535155989
3535160383
3535167036
3535172590
3535178144
3535182905
3535189375
3535194013
3535200483
3535206281
3535210920
3535217390
3535224592
3535231001
3535236860
3535242353
3535248762
3535254621
3535261091
3535266645
3535273420
3535279584
3535284101
3535290449
3535295026
3535301435
3535307722
3535312604
3535319013
3535324262
3535329511
3535335065
3535340192
3535346784
3535352399
3535359174
3535364057
3535369855
3535374921
3535381513
3535386884
3535392133
3535397931
3535404340
3535410077
3535415143
3535419904
3535425031
3535430768
3535437177
3535443463
3535448834
3535454999
3535460065
3535465863
3535470685
3535476911
3535484418
3535489545
3535494733
3535501080
3535505475
3535511823
3535516522
3535521710
3535527264
3535533978
3535537946
3535544537
3535549176
3535555402
3535562848
3535568341
3535573346
3535578778
3535583905
3535589703
3535596295
3535601056
3535607648
3535612530
3535617596
3535622662
3535629193
3535635113
3535639813
3535646710
3535652142
3535656781
3535664166
3535669354
3535674847
3535679913
3535685772
3535690838
3535696331
3535703045
3535707989
3535712994
3535719036
3535724285
3535731121
3535738079
3535743389
3535748089
3535754925
3535760052
3535767132
3535771588
3535778912
3535786297
3535793255
3535798931
3535805340
3535810345
3535816387
3535821758
3535826519
3535832867
3535838970
3535844036
3535848248
3535855083
3535861980
3535867290
3535872356
3535877422
3535882000
3535889324
3535894512
3535900860
3535906231
3535912212
3535917400
3535922893
3535928142
3535933758
3535938946
3535945354
3535952312
3535957012
3535963970
3535968975
3535974651
3535979656
3535985210
3535990398
3535995769
3536000957
3536007183
3536012188
3536017559
3536022747
3536027935
3536033184
3536040081
3536044963
3536050762
3536056377
3536062847
3536067729
3536072429
3536079753
3536084880
3536090312
3536095378
3536101421
3536106670
3536111675
3536117961
3536123882
3536128642
3536133830
3536140666
3536145305
3536150066
3536156963
3536163249
3536168803
3536174419
3536179240
3536185161
3536190166
3536196391
3536202312
3536207622
3536213786
3536218730
3536224528
3536229838
3536234599
3536242534
3536246928
3536253520
3536258952
3536264262
3536270671
3536275126
3536283732
3536290690
3536296000
3536301982
3536308635
3536313273
3536320353
3536327800
3536333781
3536346720
3536364909
3536384562
3536396220
3536403422
3536410197
3536416300
3536421549
3536427164
3536432413
3536438761
3536445658
3536450968
3536456827
3536462809
3536467814
3536473490
3536479777
3536485697
3536491007
3536496500
3536499430
3536507609
3536512858
3536519022
3536524027
3536530436
3536535624
3536540262
3536546549
3536551676
3536558451
3536564554
3536571329
3536577921
3536582804
3536587931
3536593790
3536599039
3536605387
3536610514
3536615946
3536621134
3536627420
3536632120
3536637674
3536642313
3536649027
3536654215
3536660562
3536665567
3536670206
3536676676
3536681864
3536687967
3536693094
3536699625
3536704813
3536709818
3536714945
3536720987
3536725687
3536731851
3536738687
3536743143
3536749185
3536755411
3536759561
3536765970
3536772134
3536776651
3536784830
3536789285
3536795572
3536800455
3536806863
3536811746
3536817300
3536823831
3536828958
3536833780
3536840249
3536847024
3536852884
3536857522
3536865762
3536871560
3536877725
3536885354
3536890725
3536895974
3536902383
3536907510
3536913858
3536918557
3536924172
3536930825
3536935464
3536941873
3536946755
3536953347
3536957803
3536963723
3536970132
3536975625
3536982278
3536987100
3536992471
3536998208
3537004678
3537008584
3537015298
3537020303
3537025552
3537032693
3537037698
3537042336
3537048745
3537053323
3537059731
3537064370
3537070290
3537076760
3537082558
3537087563
3537092629
3537097695
3537103921
3537109109
3537116250
3537121804
3537126259
3537132790
3537137185
3537144326
3537148842
3537155007
3537160317
3537166420
3537171608
3537177163
3537183693
3537187966
3537194313
3537198647
3537205300
3537209755
3537214821
3537221779
3537226784
3537232643
3537239235
3537246620
3537252114
3537257240
3537262001
3537268166
3537273293
3537279030
3537283669
3537290688
3537295876
3537301674
3537306679
3537311989
3537317116
3537322914
3537329933
3537335182
3537340431
3537345558
3537352150
3537357216
3537362221
3537367592
3537374489
3537380226
3537389809
3537395058
3537401039
3537407387
3537416298
3537422523
3537428077
3537433326
3537438942
3537445411
3537449867
3537456093
3537462379
3537468116
3537473121
3537478737
3537483741
3537489173
3537498085
3537504676
3537510170
3537515296
3537520790
3537525917
3537532508
3537538795
3537544776
3537549903
3537554664
3537560523
3537565223
3537570350
3537575660
3537582557
3537587867
3537592140
3537596473
3537604408
3537609229
3537614356
3537620338
3537625404
3537630408
3537636329
3537641273
3537645972
3537650550
3537657020
3537663367
3537668372
3537673133
3537678138
3537682715
3537687964
3537693030
3537698951
3537705176
3537709388
3537714026
3537719275
3537724036
3537728980
3537736365
3537742713
3537747718
3537752540
3537758277
3537763099
3537768287
3537773352
3537778907
3537785987
3537792273
3537797095
3537803565
3537809851
3537816199
3537821570
3537827735
3537832617
3537838172
3537843115
3537849890
3537855750
3537860877
3537866980
3537871863
3537881751
3537888525
3537894080
3537903418
3537908606
3537914526
3537921423
3537928137
3537932776
3537938574
3537944434
3537950049
3537956213
3537961462
3537966345
3537970740
3537977515
3537983435
3537988867
3537993811
3537999487
3538005957
3538009680
3538015722
3538021521
3538026220
3538031530
3538036535
3538042700
3538047888
3538052649
3538058386
3538064795
3538070288
3538075476
3538080969
3538085974
3538092077
3538096594
3538102819
3538108190
3538112768
3538119543
3538124121
3538130285
3538137976
3538143835
3538149816
3538154394
3538159521
3538165563
3538170263
3538176977
3538182714
3538189001
3538193945
3538198522
3538205114
3538210119
3538215490
3538222448
3538228918
3538232580
3538239111
3538244360
3538250585
3538255712
3538261632
3538269018
3538275548
3538281286
3538287267
3538292394
3538298253
3538304906
3538309301
3538315587
3538321142
3538327428
3538332128
3538337743
3538344823
3538349035
3538355504
3538362157
3538367894
3538372899
3538378453
3538384862
3538391881
3538400243
3538407994
3538414891
3538421727
3538428319
3538433568
3538438634
3538445531
3538452855
3538457799
3538463902
3538469029
3538474950
3538479649
3538484044
3538488622
3538497289
3538503087
3538508458
3538513524
3538519566
3538523839
3538530064
3538536900
3538541783
3538546910
3538553075
3538557774
3538563634
3538568394
3538574437
3538578831
3538584019
3538592320
3538598057
3538606419
3538611363
3538617711
3538623448
3538629857
3538634678
3538640538
3538645909
3538650120
3538656590
3538661595
3538667454
3538672703
3538678013
3538682896
3538689427
3538695042
3538700230
3538705967
3538711277
3538716587
3538721531
3538727452
3538733738
3538738194
3538744786
3538750035
3538754551
3538760777
3538765476
3538771519
3538778294
3538783726
3538789097
3538794895
3538799900
3538805271
3538810154
3538817356
3538822971
3538829258
3538834446
3538839573
3538845371
3538850559
3538856785
3538863743
3538868931
3538874363
3538880649
3538885959
3538891880
3538897190
3538906894
3538912571
3538918918
3538923984
3538928806
3538935642
3538940342
3538946994
3538952793
3538957798
3538962192
3538968479
3538974826
3538980136
3538985324
3538990085
3538996250
3539001194
3539007541
3539013156
3539019016
3539025119
3539030246
3539036411
3539041660
3539046909
3539052890
3539058078
3539063693
3539069370
3539075168
3539080234
3539085666
3539092075
3539096896
3539102084
3539108005
3539114352
3539118930
3539125400
3539129977
3539136447
3539140842
3539147739
3539152988
3539158786
3539163974
3539169406
3539174045
3539179904
3539184787
3539191012
3539198276
3539203586
3539208652
3539214694
3539219455
3539224521
3539231845
3539236789
3539243380
3539248263
3539253146
3539258578
3539264926
3539269381
3539276950
3539281527
3539287814
3539292453
3539297885
3539304110
3539310641
3539315585
3539320223
3539326754
3539332980
3539338595
3539343173
3539349520
3539354525
3539362032
3539367220
3539372530
3539377779
3539383029
3539389315
3539394137
3539399386
3539405611
3539411044
3539418002
3539423983
3539429171
3539437289
3539443392
3539450655
3539457491
3539461825
3539467989
3539473360
3539478304
3539485201
3539490023
3539496493
3539501436
3539506563
3539512667
3539517855
3539523287
3539530367
3539535006
3539541903
3539549105
3539556002
3539560457
3539571505
3539577242
3539583467
3539587496
3539593355
3539598055
3539602816
3539608797
3539614595
3539619051
3539625826
3539631868
3539637789
3539644441
3539650118
3539655245
3539659822
3539666109
3539670442
3539676851
3539682832
3539688020
3539695100
3539701509
3539706697
3539712068
3539717073
3539723299
3539727876
3539733064
3539740022
3539746553
3539752107
3539756990
3539761690
3539768648
3539772981
3539779817
3539784273
3539790132
3539796480
3539801912
3539806795
3539811738
3539819002
3539823823
3539830354
3539835359
3539841340
3539846284
3539851167
3539857393
3539864106
3539869905
3539875520
3539880586
3539886750
3539892305
3539897370
3539903901
3539907136
3539912812
3539919160
3539925141
3539931672
3539937226
3539943940
3539951631
3539956513
3539963960
3539969636
3539975800
3539981049
3539987519
3539992646
3539998933
3540004670
3540009309
3540013947
3540021760
3540025910
3540031953
3540037690
3540042512
3540047944
3540054841
3540059663
3540066498
3540070893
3540077424
3540081574
3540088715
3540093964
3540099457
3540105134
3540110688
3540117096
3540121552
3540128510
3540133027
3540139069
3540145966
3540150666
3540157013
3540161896
3540167084
3540172638
3540178986
3540184418
3540189667
3540195282
3540200348
3540205719
3540213471
3540219147
3540223664
3540230988
3540236908
3540242096
3540248871
3540254059
3540259064
3540264130
3540269989
3540275177
3540281097
3540287811
3540293182
3540299286
3540303741
3540308929
3540315155
3540321808
3540326813
3540331757
3540337616
3540342560
3540348236
3540354645
3540359100
3540365448
3540372101
3540376678
3540381683
3540387604
3540393524
3540400238
3540406158
3540410614
3540417450
3540421722
3540428192
3540433502
3540440216
3540445892
3540451629
3540456695
3540462677
3540469452
3540474395
3540485260
3540490753
3540495452
3540502044
3540506561
3540512908
3540517059
3540523651
3540529693
3540535247
3540540252
3540545745
3540550506
3540557220
3540565276
3540570770
3540577483
3540582061
3540588104
3540592803
3540598296
3540604156
3540610259
3540615081
3540621185
3540626067
3540631133
3540636809
3540643401
3540648955
3540654021
3540659759
3540663909
3540670318
3540675445
3540679839
3540686126
3540692229
3540698272
3540703399
3540709014
3540714141
3540719573
3540725799
3540732085
3540738006
3540742766
3540748381
3540753508
3540759978
3540765471
3540771819
3540777190
3540783599
3540789275
3540795684
3540799956
3540806548
3540811125
3540817595
3540822478
3540827910
3540834136
3540839018
3540844145
3540850005
3540855986
3540860259
3540866118
3540872466
3540877654
3540884490
3540890532
3540895781
3540900420
3540907011
3540913237
3540917754
3540924162
3540928618
3540933989
3540940275
3540945952
3540951567
3540958647
3540965666
3540970976
3540976896
3540984526
3540990263
3540995146
3541002104
3541006743
3541013090
3541017546
3541024809
3541030058
3541035307
3541041716
3541046904
3541051847
3541057829
3541066008
3541070463
3541077055
3541083097
3541089567
3541094816
3541101530
3541106474
3541113249
3541118559
3541123075
3541129179
3541136076
3541141325
3541146574
3541153227
3541158293
3541163969
3541169096
3541174833
3541180265
3541185514
3541190702
3541197294
3541201933
3541207975
3541212675
3541219083
3541225248
3541230314
3541235624
3541240446
3541246549
3541251920
3541256925
3541261991
3541268400
3541273588
3541279081
3541283780
3541288053
3541293851
3541298124
3541305204
3541311368
3541315763
3541321683
3541326322
3541331083
3541335965
3541342130
3541346647
3541353116
3541358121
3541364225
3541368497
3541374356
3541378629
3541385099
3541389981
3541394986
3541401883
3541405606
3541411954
3541417691
3541423734
3541428800
3541434964
3541441861
3541448636
3541454678
3541460965
3541465726
3541476346
3541481534
3541487088
3541492825
3541499783
3541506741
3541513638
3541519498
3541526150
3541530179
3541537930
3541544705
3541550870
3541556973
3541562588
3541567288
3541573575
3541579373
3541585599
3541592373
3541597867
3541604092
3541609097
3541614956
3541618924
3541625271
3541631375
3541635952
3541642056
3541647244
3541653164
3541659390
3541664456
3541670254
3541675442
3541680752
3541687100
3541692227
3541697415
3541703457
3541708767
3541714443
3541719509
3541724514
3541729946
3541736904
3541742031
3541747891
3541755154
3541760769
3541766079
3541771206
3541777065
3541782253
3541788235
3541793972
3541799526
3541804714
3541811184
3541815823
3541823086
3541828457
3541832912
3541839565
3541844814
3541850429
3541855556
3541860927
3541867519
3541872768
3541878261
3541884731
3541890713
3541895229
3541901577
3541906643
3541912136
3541917507
3541923916
3541929897
3541934841
3541941860
3541950222
3541955532
3541959987
3541967495
3541973720
3541978115
3541984340
3541988369
3541993679
3542001613
3542009548
3542016139
3542021572
3542029140
3542034389
3542040859
3542048244
3542053249
3542059352
3542063930
3542068874
3542074123
3542080898
3542085292
3542092555
3542097072
3542103175
3542109706
3542115321
3542121242
3542127284
3542132167
3542138515
3542145167
3542149928
3542155665
3542162257
3542166469
3542173305
3542179042
3542185328
3542189784
3542195704
3542200282
3542206752
3542211268
3542217799
3542222926
3542228358
3542233729
3542239650
3542244654
3542250514
3542257289
3542261683
3542268092
3542273341
3542279750
3542284327
3542289759
3542296168
3542300746
3542306849
3542312831
3542317896
3542323512
3542328578
3542335108
3542341395
3542345973
3542352564
3542358607
3542365687
3542370753
3542376185
3542382716
3542388880
3542394801
3542399622
3542405238
3542409937
3542415797
3542422205
3542428675
3542434046
3542439051
3542444178
3542450159
3542454432
3542463465
3542468592
3542473780
3542478602
3542484583
3542490015
3542495508
3542502466
3542506983
3542513636
3542518702
3542525110
3542530420
3542537134
3542546167
3542552088
3542560694
3542568933
3542574121
3542580652
3542585962
3542591211
3542597498
3542603968
3542609033
3542614405
3542620142
3542625208
3542631067
3542636377
3542645044
3542651636
3542656641
3542661951
3542666712
3542671899
3542678369
3542682642
3542689050
3542693384
3542699365
3542705347
3542710657
3542716211
3542722009
3542726831
3542732324
3542737451
3542743982
3542749170
3542755090
3542762475
3542767785
3542772912
3542777917
3542782800
3542788965
3542795068
3542801721
3542807031
3542813257
3542819970
3542824487
3542830896
3542836267
3542841821
3542848108
3542852807
3542858972
3542864038
3542869836
3542875329
3542881921
3542887536
3542893823
3542898339
3542904748
3542909081
3542915490
3542920007
3542926293
3542931725
3542936364
3542942773
3542947839
3542953393
3542958581
3542963097
3542969933
3542976464
3542980553
3542986901
3542992150
3542997460
3543003747
3543012109
3543017052
3543022668
3543029259
3543033471
3543039879
3543044762
3543051903
3543060448
3543066308
3543071984
3543077355
3543081994
3543090966
3543096703
3543101708
3543106835
3543113366
3543118248
3543124535
3543129967
3543135704
3543141686
3543146447
3543152733
3543157799
3543163658
3543169152
3543176354
3543181908
3543188195
3543193321
3543199669
3543203942
3543210777
3543214928
3543222008
3543226463
3543232567
3543239098
3543244530
3543249535
3543255516
3543261192
3543267357
3543272423
3543278587
3543283836
3543289940
3543294945
3543299339
3543306725
3543313194
3543321617
3543326500
3543332298
3543337486
3543342735
3543347923
3543354515
3543359032
3543364464
3543370384
3543375450
3543382042
3543387352
3543394188
3543399437
3543404381
3543410484
3543415062
3543422325
3543428489
3543433555
3543439293
3543446495
3543453025
3543459800
3543466148
3543472557
3543477867
3543483421
3543490013
3543494712
3543501121
3543509056
3543515037
3543520713
3543525291
3543531089
3543537010
3543542320
3543548789
3543560447
3543569297
3543579124
3543583884
3543590903
3543597678
3543603110
3543608665
3543613425
3543620017
3543624351
3543631248
3543636375
3543643577
3543648643
3543655967
3543662742
3543670493
3543676597
3543681601
3543688315
3543693625
3543700034
3543706015
3543711631
3543715476
3543723777
3543728293
3543734580
3543739585
3543745200
3543750022
3543758017
3543763449
3543769858
3543774985
3543781211
3543786338
3543792563
3543798484
3543803977
3543808737
3543814353
3543821066
3543826621
3543833090
3543839194
3543844077
3543849387
3543854514
3543860312
3543865927
3543871664
3543877158
3543882956
3543887656
3543895163
3543900961
3543907797
3543913412
3543920004
3543924826
3543930014
3543935446
3543942648
3543947104
3543953573
3543959921
3543964926
3543971090
3543977011
3543983603
3543990378
3543996603
3544002768
3544008200
3544016378
3544022299
3544030355
3544037558
3544043539
3544048605
3544053671
3544061361
3544067892
3544072409
3544078207
3544083090
3544089071
3544094381
3544100851
3544106466
3544111654
3544117330
3544122640
3544128561
3544133688
3544140829
3544146017
3544151571
3544156698
3544162557
3544167745
3544173299
3544178304
3544184774
3544190755
3544195089
3544201376
3544208028
3544212362
3544219503
3544224996
3544230123
3544234762
3544241231
3544247396
3544252035
3544257406
3544263143
3544270345
3544276937
3544282918
3544287557
3544293355
3544300191
3544305684
3544310994
3544316976
3544322103
3544327108
3544333577
3544338460
3544343526
3544349691
3544356954
3544361409
3544368550
3544373433
3544378682
3544384847
3544390523
3544396932
3544403218
3544409322
3544413960
3544419576
3544425801
3544430135
3544440083
3544445210
3544449666
3544456258
3544461812
3544467549
3544472859
3544480000
3544484822
3544489217
3544495015
3544501546
3544506673
3544512105
3544518025
3544523030
3544530354
3544535542
3544540669
3544548115
3544553242
3544561238
3544566548
3544572102
3544579426
3544584736
3544589924
3544596150
3544600911
3544606221
3544612385
3544618977
3544623799
3544630146
3544634968
3544640278
3544645893
3544652424
3544658711
3544663899
3544669453
3544674519
3544680073
3544687580
3544691975
3544698139
3544702778
3544709797
3544715046
3544720722
3544727802
3544733235
3544738361
3544743183
3544750141
3544754170
3544760883
3544765339
3544771931
3544778400
3544783527
3544788410
3544793903
3544798969
3544805134
3544811603
3544816669
3544822956
3544827656
3544832600
3544838947
3544844440
3544850422
3544855610
3544860615
3544866962
3544872089
3544877094
3544883198
3544888935
3544893390
3544899555
3544904438
3544909992
3544916217
3544920063
3544927082
3544933002
3544938312
3544944477
3544950092
3544955036
3544961139
3544966205
3544972126
3544979206
3544984271
3544989765
3544995319
3545001544
3545007160
3545013385
3545019122
3545025409
3545030170
3545035053
3545041156
3545047626
3545057269
3545062762
3545068500
3545074054
3545079120
3545085345
3545090900
3545097125
3545103534
3545108050
3545114337
3545120807
3545125445
3545131915
3545136493
3545143024
3545148028
3545154498
3545158771
3545165301
3545170245
3545176837
3545181903
3545188739
3545193255
3545197833
3545204608
3545209491
3545216021
3545222247
3545227374
3545232379
3545237506
3545243182
3545249774
3545255267
3545260394
3545266314
3545271014
3545276080
3545282488
3545288470
3545293475
3545300311
3545306475
3545311663
3545317339
3545322405
3545328936
3545334429
3545338763
3545346392
3545351153
3545357867
3545362444
3545368609
3545374773
3545379839
3545386919
3545392168
3545398150
3545404436
3545408587
3545414751
3545419634
3545425005
3545431109
3545436114
3545440813
3545446429
3545450823
3545456072
3545464373
3545469317
3545474932
3545481402
3545487444
3545494280
3545499224
3545504961
3545510210
3545515642
3545521257
3545527300
3545531633
3545537798
3545544023
3545548784
3545556780
3545562029
3545570818
3545577288
3545584185
3545591204
3545596880
3545603227
3545608110
3545614519
3545620683
3545625749
3545630937
3545635820
3545641191
3545647234
3545652971
3545660051
3545666582
3545672441
3545679765
3545685991
3545692461
3545697588
3545705034
3545711504
3545721147
3545726518
3545734147
3545741716
3545748979
3545756547
3545763383
3545770646
3545778093
3545785417
3545790666
3545796525
3545801286
3545805925
3545810746
3545815141
3545821061
3545826127
3545832231
3545837236
3545842302
3545847795
3545852616
3545857865
3545862748
3545868180
3545873124
3545877641
3545883317
3545888688
3545893144
3545898576
3545904130
3545909135
3545914506
3545919877
3545926225
3545932389
3545938676
3545944718
3545949235
3545954545
3545959306
3545967057
3545971635
3545978165
3545984757
3545989762
3545996720
3546001725
3546008683
3546013383
3546019364
3546025345
3546030961
3546037064
3546043412
3546048112
3546055314
3546061417
3546066605
3546072220
3546079606
3546086258
3546090409
3546095841
3546100663
3546106522
3546112687
3546118668
3546123856
3546130204
3546135941
3546141129
3546148636
3546155045
3546159989
3546166031
3546174820
3546180863
3546187882
3546193314
3546198746
3546204544
3546209427
3546215714
3546220413
3546226090
3546232803
3546238907
3546244034
3546248001
3546253677
3546262039
3546268509
3546274246
3546278824
3546283707
3546288406
3546295303
3546300796
3546306168
3546312210
3546317703
3546322647
3546329788
3546335403
3546341202
3546345413
3546351150
3546356766
3546361526
3546367080
3546373123
3546378860
3546383926
3546389908
3546394180
3546402542
3546407303
3546413223
3546417862
3546424453
3546430008
3546434463
3546440445
3546446487
3546452896
3546458816
3546464614
3546470474
3546475540
3546481643
3546487075
3546493118
3546498123
3546504226
3546511733
3546517593
3546522781
3546527786
3546534255
3546539809
3546544631
3546552200
3546559036
3546564651
3546571487
3546575942
3546583144
3546589553
3546597915
3546603530
3546607802
3546613601
3546619887
3546625197
3546630691
3546635818
3546640761
3546647658
3546651992
3546658156
3546664321
3546669997
3546675551
3546681228
3546684523
3546691237
3546697219
3546703627
3546708266
3546713332
3546718886
3546722976
3546730178
3546734816
3546740737
3546746352
3546750502
3546755812
3546761855
3546767775
3546773879
3546779067
3546784072
3546789076
3546794448
3546800551
3546806960
3546811537
3546817275
3546823073
3546827040
3546834792
3546840102
3546844984
3546851271
3546856215
3546861159
3546867934
3546873976
3546880202
3546884413
3546890150
3546894728
3546900770
3546908034
3546914503
3546920424
3546924269
3546928175
3546931959
3546937086
3546942640
3546948256
3546954054
3546958143
3546962599
3546968397
3546973463
3546977186
3546981276
3546985487
3546989760
3546993666
3546998182
3547003004
3547006422
3547010328
3547014662
3547020765
3547024183
3547028700
3547032728
3547037062
3547041456
3547046217
3547051527
3547055799
3547060072
3547064100
3547067518
3547071913
3547079176
3547082716
3547087599
3547091139
3547095594
3547099867
3547105177
3547109022
3547113600
3547118360
3547121656
3547127821
3547131849
3547135145
3547140516
3547144056
3547148512
3547153089
3547156751
3547162366
3547167188
3547170057
3547174635
3547179212
3547182569
3547186414
3547191785
3547196912
3547202222
3547207105
3547211927
3547216505
3547221143
3547225538
3547229749
3547234083
3547238355
3547241895
3547246229
3547250623
3547255079
3547258802
3547263013
3547267225
3547273755
3547278089
3547288831
3547296827
3547300977
3547305433
3547312146
3547316724
3547321912
3547327039
3547330945
3547336866
3547340589
3547346143
3547351209
3547354932
3547359143
3547364087
3547368543
3547371839
3547379590
3547384900
3547389722
3547395459
3547399121
3547403150
3547408826
3547414319
3547418164
3547422192
3547425671
3547430432
3547436108
3547441052
3547445203
3547448743
3547453564
3547457288
3547461560
3547466809
3547470715
3547475842
3547479626
3547484570
3547488171
3547493542
3547497754
3547502637
3547506238
3547510022
3547514599
3547517895
3547525525
3547529736
3547534375
3547538952
3547543835
3547547009
3547553418
3547557568
3547563489
3547567334
3547571606
3547577221
3547581921
3547585461
3547590527
3547595410
3547600354
3547604870
3547610241
3547615490
3547620434
3547623791
3547628308
3547631909
3547635693
3547642346
3547647106
3547653210
3547656933
3547660717
3547665417
3547671276
3547676831
3547681347
3547687084
3547694287
3547703503
3547710095
3547719189
3547727123
3547739025
3547746777
3547752453
3547760082
3547766857
3547771923
3547779003
3547785351
3547793774
3547799267
3547807262
3547814342
3547820263
3547827648
3547835460
3547843090
3547851391
3547862133
3547869274
3547873302
3547883068
3547888195
3547897228
3547903576
3547910228
3547917492
3547928234
3547935375
3547940502
3547947155
3547955089
3547961620
3547968395
3547973522
3547981334
3547987682
3547995860
3548002086
3548005748
3548014964
3548021739
3548027843
3548035167
3548041270
3548045665
3548057262
3548062144
3548069163
3548075084
3548083507
3548089854
3548097423
3548103465
3548110118
3548115245
3548123607
3548131114
3548137889
3548143626
3548151378
3548156383
3548164317
3548171275
3548181712
3548190318
3548197093
3548204966
3548210643
3548218455
3548226512
3548232920
3548240367
3548245860
3548254466
3548261546
3548269969
3548276072
3548284068
3548292368
3548296946
3548305613
3548311289
3548319102
3548332285
3548337595
3548342905
3548351389
3548359934
3548366709
3548372385
3548380137
3548389841
3548397227
3548405588
3548412668
3548419810
3548427317
3548432444
3548439463
3548447336
3548453074
3548460642
3548471018
3548475718
3548484201
3548491098
3548496531
3548505747
3548514780
3548520578
3548530100
3548537790
3548549387
3548556345
3548561533
3548568796
3548576608
3548582468
3548592478
3548597482
3548604196
3548613657
3548620554
3548625620
3548633737
3548641672
3548646677
3548653940
3548657846
3548665048
3548672983
3548679330
3548687265
3548694833
3548704782
3548713083
3548717966
3548727853
3548733957
3548743112
3548753488
3548761117
3548768441
3548774911
3548781991
3548796762
3548802804
3548813058
3548822152
3548830026
3548837411
3548845651
3548852609
3548861398
3548867257
3548877145
3548884652
3548891366
3548899423
3548907174
3548914254
3548919198
3548928780
3548936227
3548941842
3548950265
3548956918
3548965340
3548975594
3548981087
3548987862
3548996773
3549003060
3549008431
3549014046
3549023812
3549034127
3549042489
3549049202
3549055794
3549063302
3549071297
3549077462
3549083321
3549090218
3549095040
3549105111
3549113045
3549120552
3549126839
3549135811
3549142647
3549147713
3549154976
3549162483
3549170784
3549177559
3549185799
3549191231
3549198250
3549203438
3549211128
3549219368
3549226265
3549231514
3549242439
3549247078
3549255379
3549261787
3549269966
3549275642
3549282661
3549288277
3549295479
3549304634
3549312507
3549318001
3549326729
3549333992
3549339241
3549347725
3549353584
3549361580
3549366829
3549376411
3549384895
3549390327
3549399543
3549406746
3549413459
3549419502
3549427192
3549433662
3549442268
3549450019
3549456977
3549462532
3549469062
3549473945
3549479072
3549482612
3549489997
3549494880
3549501106
3549506110
3549512214
3549516975
3549521491
3549528388
3549532356
3549538886
3549545600
3549551337
3549557075
3549562324
3549567512
3549573005
3549577094
3549582709
3549588081
3549594001
3549599372
3549604804
3549610053
3549613654
3549618354
3549624518
3549629889
3549636054
3549642035
3549646857
3549652289
3549658759
3549667548
3549671882
3549678595
3549685065
3549691230
3549698737
3549703131
3549709052
3549715155
3549720221
3549726630
3549732550
3549738349
3549745673
3549753791
3549759101
3549765082
3549768927
3549774909
3549782599
3549790289
3549794135
3549800787
3549807135
3549812689
3549818671
3549823309
3549829474
3549834967
3549841437
3549847113
3549852484
3549855536
3549863226
3549867133
3549873175
3549880194
3549885138
3549891119
3549896246
3549901678
3549908453
3549912848
3549918524
3549925116
3549932379
3549936529
3549941961
3549947577
3549953070
3549960089
3549964972
3549971319
3549977423
3549983587
3549988897
3549995001
3550000799
3550007086
3550013372
3550017523
3550027899
3550032415
3550038763
3550043524
3550046942
3550054693
3550061224
3550065557
3550071173
3550076116
3550081610
3550087164
3550092657
3550097296
3550102483
3550107488
3550113043
3550119939
3550123907
3550129705
3550134283
3550140813
3550146062
3550150884
3550156255
3550163885
3550168890
3550174505
3550180059
3550185613
3550191717
3550198186
3550203191
3550210576
3550215825
3550220708
3550224859
3550230169
3550235601
3550241094
3550246648
3550253362
3550259343
3550263799
3550269109
3550274968
3550280706
3550284185
3550291387
3550296331
3550301519
3550308843
3550316228
3550322454
3550328496
3550334661
3550341741
3550349126
3550355840
3550360784
3550366765
3550373052
3550378972
3550384404
3550390386
3550395451
3550399114
3550406438
3550412358
3550416753
3550421574
3550427129
3550431767
3550438603
3550443791
3550449590
3550455083
3550461186
3550466923
3550472722
3550477483
3550482732
3550488103
3550492741
3550499394
3550504582
3550509770
3550515813
3550520756
3550526677
3550531743
3550537297
3550545353
3550551518
3550557438
3550562870
3550566716
3550573063
3550579167
3550585698
3550590519
3550597599
3550604496
3550609623
3550616764
3550622807
3550628666
3550631413
3550637760
3550646000
3550653446
3550659916
3550664616
3550669621
3550675175
3550680424
3550685917
3550691227
3550696964
3550702641
3550708073
3550712833
3550718205
3550723087
3550728764
3550735600
3550741337
3550746159
3550750675
3550756474
3550761173
3550766544
3550770817
3550776554
3550783207
3550788151
3550794987
3550801334
3550806278
3550813785
3550818912
3550822696
3550831241
3550836063
3550841129
3550847599
3550852726
3550857975
3550862919
3550869449
3550876346
3550881900
3550886905
3550892704
3550896854
3550902774
3550908207
3550913333
3550919864
3550925235
3550931949
3550937625
3550942935
3550947574
3550953494
3550958255
3550971805
3550990360
3551001956
3551011295
3551019046
3551026004
3551033328
3551039859
3551047061
3551056338
3551060855
3551064700
3551068851
3551074283
3551079105
3551086124
3551093570
3551097659
3551102664
3551106998
3551111758
3551117496
3551123782
3551128116
3551134036
3551140017
3551145877
3551151553
3551156619
3551163028
3551168338
3551174319
3551178225
3551186221
3551190005
3551195987
3551203311
3551209414
3551215213
3551220462
3551224673
3551232608
3551237429
3551243106
3551249209
3551253237
3551259463
3551264407
3551268740
3551276125
3551280886
3551286013
3551290286
3551296084
3551301882
3551306094
3551314639
3551319766
3551325503
3551330203
3551336245
3551340090
3551346804
3551352541
3551358645
3551361697
3551367495
3551372134
3551376406
3551381228
3551387026
3551392275
3551398012
3551401980
3551406252
3551411074
3551417483
3551423403
3551427920
3551432253
3551437197
3551442080
3551445620
3551450441
3551454287
3551460756
3551465639
3551470766
3551475039
3551478945
3551484194
3551489504
3551495729
3551501650
3551506838
3551512758
3551518129
3551523256
3551528444
3551533388
3551538637
3551544679
3551550356
3551553713
3551560365
3551567201
3551573610
3551577822
3551584047
3551589601
3551595461
3551601198
3551606935
3551613710
3551620424
3551626161
3551634950
3551640932
3551648561
3551654237
3551661256
3551667055
3551675294
3551683778
3551692995
3551700258
3551706300
3551712831
3551723695
3551730409
3551740236
3551748109
3551754091
3551763002
3551768556
3551776490
3551785524
3551791749
3551799195
3551806398
3551813783
3551819154
3551826966
3551833497
3551839295
3551847779
3551856812
3551865235
3551869752
3551877931
3551885377
3551891602
3551898072
3551902711
3551913148
3551921754
3551926637
3551933228
3551940553
3551947694
3551953370
3551959595
3551964112
3551973756
3551978944
3551985596
3551991517
3551999451
3552006898
3552012818
3552020508
3552025330
3552034913
3552042115
3552050354
3552058716
3552065125
3552071839
3552076722
3552087464
3552092102
3552101319
3552108948
3552117005
3552124451
3552130432
3552138489
3552145935
3552154114
3552160950
3552168152
3552178406
3552185303
3552193604
3552201538
3552207642
3552214905
3552220215
3552229370
3552237183
3552243469
3552251587
3552258911
3552266052
3552273865
3552279419
3552289734
3552296081
3552304077
3552309448
3552319824
3552328125
3552333984
3552341369
3552346801
3552352600
3552363647
3552371765
3552378723
3552384460
3552395446
3552401306
3552408691
3552414611
3552423339
3552431213
3552436523
3552442443
3552450805
3552458801
3552465881
3552474304
3552479736
3552487426
3552493713
3552501891
3552510009
3552517333
3552526000
3552536803
3552545165
3552553649
3552560485
3552567504
3552573485
3552580993
3552589232
3552594726
3552606200
3552611693
3552618651
3552625976
3552631652
3552638427
3552642943
3552650023
3552655761
3552665526
3552673339
3552681334
3552686827
3552694335
3552700621
3552707152
3552713683
3552720885
3552726622
3552734801
3552742919
3552748534
3552755004
3552759886
3552766905
3552774291
3552779357
3552786681
3552795775
3552804198
3552808226
3552815611
3552823180
3552829466
3552834959
3552842039
3552846678
3552856261
3552863035
3552867857
3552875792
3552881285
3552888182
3552892637
3552900389
3552907347
3552913450
3552923643
3552933409
3552940550
3552945372
3552954466
3552958372
3552965941
3552972776
3552978758
3552986265
3552992369
3553000791
3553008726
3553014219
3553021482
3553031370
3553037657
3553045347
3553052305
3553063963
3553070677
3553078123
3553083311
3553088377
3553097105
3553104917
3553111814
3553117612
3553127683
3553135984
3553141050
3553148191
3553156126
3553161497
3553168516
3553175840
3553182371
3553188779
3553198240
3553206724
3553212888
3553220151
3553226133
3553233335
3553239133
3553246763
3553253782
3553261960
3553271238
3553278989
3553285154
3553290525
3553300779
3553305295
3553314145
3553321958
3553328427
3553335202
3553347043
3553353696
3553364133
3553371274
3553384213
3553389157
3553397031
3553403806
3553410764
3553418149
3553426755
3553432553
3553438962
3553446469
3553450680
3553458432
3553467221
3553473447
3553479428
3553484006
3553492978
3553496823
3553504086
3553510312
3553518063
3553526242
3553536679
3553541195
3553550290
3553556881
3553563168
3553568783
3553576718
3553581356
3553591366
3553599240
3553603451
3553612850
3553619564
3553624813
3553632565
3553639034
3553646725
3553655453
3553663082
3553667843
3553676022
3553683895
3553689388
3553697018
3553703182
3553709774
3553715511
3553724545
3553730343
3553738033
3553742672
3553750606
3553757320
3553764278
3553770687
3553778988
3553786495
3553792232
3553801632
3553806148
3553813228
3553818722
3553826351
3553832821
3553837215
3553849422
3553856380
3553864559
3553872493
3553877987
3553884212
3553891231
3553896236
3553906551
3553912715
3553921566
3553929927
3553936275
3553945369
3553952571
3553958003
3553966182
3553975581
3553982173
3553992061
3553999507
3554006892
3554012202
3554020198
3554027400
3554036006
3554038386
3554048885
3554055904
3554064998
3554073909
3554081782
3554088862
3554099360
3554105159
3554111506
3554122920
3554129146
3554139827
3554146724
3554153804
3554161494
3554167476
3554175715
3554183833
3554191706
3554199397
3554207698
3554219111
3554228877
3554234309
3554242976
3554247187
3554255976
3554263728
3554271784
3554278864
3554289851
3554294856
3554303706
3554308344
3554315302
3554321650
3554329340
3554335444
3554340021
3554351679
3554359064
3554364069
3554372553
3554378290
3554385798
3554391596
3554400080
3554406611
3554411921
3554420038
3554426386
3554433222
3554437983
3554445124
3554451288
3554458551
3554464899
3554472651
3554480341
3554486139
3554490107
3554499079
3554505976
3554512079
3554517633
3554523798
3554530939
3554539667
3554546442
3554553766
3554562677
3554569696
3554579889
3554585748
3554596735
3554601984
3554612299
3554620538
3554632379
3554641290
3554648798
3554657587
3554663385
3554672174
3554679132
3554693414
3554700860
3554709283
3554715143
3554722101
3554727411
3554735650
3554743707
3554750360
3554756341
3554765008
3554773797
3554779229
3554788263
3554795037
3554802178
3554809747
3554815423
3554824639
3554831841
3554839898
3554845819
3554853875
3554861749
3554868279
3554877007
3554882134
3554887811
3554897332
3554904107
3554914605
3554921441
3554927972
3554934930
3554940606
3554948540
3554957513
3554963311
3554970757
3554979058
3554987847
3554996880
3555005303
3555012688
3555020623
3555029900
3555037713
3555045891
3555052239
3555062493
3555074334
3555080132
3555090630
3555096611
3555106987
3555114739
3555125298
3555134880
3555140801
3555148369
3555154656
3555164482
3555171745
3555176689
3555182243
3555190056
3555198845
3555205620
3555214043
3555218376
3555224785
3555231560
3555237541
3555244865
3555251091
3555255669
3555267082
3555273125
3555280754
3555287346
3555294609
3555300407
3555307914
3555314506
3555319572
3555327385
3555335991
3555341545
3555348869
3555354545
3555362297
3555367057
3555373710
3555381523
3555387382
3555398674
3555406913
3555412528
3555420280
3555424247
3555433158
3555439933
3555444755
3555452628
3555460441
3555467338
3555472343
3555480155
3555487907
3555493095
3555500541
3555507987
3555513419
3555521659
3555528739
3555538505
3555543998
3555552787
3555559806
3555567618
3555573051
3555581718
3555590690
3555597342
3555605887
3555612235
3555619193
3555624442
3555633170
3555639212
3555647391
3555652335
3555660392
3555667411
3555675467
3555681021
3555688956
3555690787
3555701529
3555708853
3555716422
3555722891
3555733573
3555741019
3555745291
3555753348
3555761893
3555768485
3555773367
3555782828
3555787466
3555796133
3555805777
3555812430
3555820364
3555826712
3555834097
3555841177
3555848501
3555854910
3555861502
3555870779
3555879446
3555883719
3555892935
3555900992
3555907766
3555914175
3555922354
3555929800
3555940359
3555950125
3555956717
3555965933
3555974539
3555983023
3555992239
3556000601
3556007925
3556015127
3556026602
3556031118
3556039419
3556047231
3556056814
3556063711
3556068838
3556076955
3556085745
3556092825
3556101675
3556107778
3556112051
3556120046
3556129690
3556135000
3556142080
3556147573
3556157827
3556164724
3556170522
3556178335
3556184804
3556192861
3556200490
3556209951
3556218313
3556224111
3556232473
3556239492
3556245717
3556252553
3556260060
3556265615
3556272390
3556281301
3556287953
3556296620
3556302358
3556309682
3556314992
3556322682
3556330495
3556336843
3556342030
3556352345
3556359548
3556369435
3556377431
3556383962
3556391652
3556396108
3556404774
3556411671
3556420888
3556428517
3556437123
3556442738
3556449818
3556458485
3556465077
3556473134
3556478688
3556487294
3556494496
3556502553
3556509022
3556514271
3556522816
3556530812
3556539051
3556545399
3556550038
3556559803
3556568837
3556576893
3556583485
3556590443
3556595814
3556603443
3556610523
3556618519
3556624806
3556630238
3556641468
3556648914
3556654286
3556661305
3556670338
3556677845
3556683521
3556691395
3556699329
3556705982
3556714588
3556721119
3556729176
3556734119
3556741321
3556748340
3556754505
3556763050
3556768055
3556778492
3556787159
3556795704
3556801136
3556806873
3556817554
3556824573
3556831897
3556840320
3556849048
3556854969
3556861927
3556866565
3556876026
3556881824
3556889575
3556895618
3556903186
3556911914
3556916919
3556923816
3556932117
3556939136
3556945239
3556951038
3556958423
3556963245
3556971607
3556978381
3556988391
3556996753
3557004687
3557012683
3557019214
3557028613
3557034289
3557040698
3557050830
3557058520
3557065295
3557074328
3557083911
3557090869
3557096484
3557107165
3557113696
3557122790
3557131640
3557136828
3557143847
3557149340
3557157519
3557163684
3557170947
3557175891
3557185778
3557193225
3557198901
3557205981
3557213977
3557220080
3557225451
3557233752
3557242053
3557250048
3557259936
3557267199
3557271655
3557281237
3557287341
3557295519
3557300890
3557306750
3557316332
3557323534
3557332445
3557340014
3557344408
3557354906
3557360522
3557369860
3557376574
3557383410
3557390917
3557397020
3557405993
3557415270
3557420946
3557425951
3557435411
3557440050
3557449266
3557456102
3557464830
3557472643
3557501879
3557512499
3557518358
3557525865
3557532213
3557542650
3557548876
3557557359
3557565660
3557572618
3557580675
3557586046
3557593797
3557600999
3557610094
3557619554
3557626512
3557633043
3557640550
3557646165
3557653490
3557662095
3557671068
3557679429
3557685106
3557697191
3557706346
3557714402
3557719224
3557725633
3557733140
3557739671
3557745042
3557755357
3557762498
3557771226
3557777818
3557785447
3557792344
3557801988
3557810594
3557816575
3557823106
3557859788
3557863816
3557868211
3557870652
3557874314
3557877671
3557881089
3557884812
3557887864
3557890916
3557894273
3557897446
3557900681
3557903916
3557906785
3557909409
3557912583
3557915330
3557918442
3557920823
3557923814
3557926621
3557929185
3557932419
3557935776
3557939194
3557942795
3557946030
3557949204
3557952073
3557955002
3557958237
3557960740
3557963669
3557965745
3557968430
3557971482
3557975205
3557977585
3557979905
3557982590
3557985032
3557987656
3557990708
3557993760
3557996140
3557999131
3558001816
3558004624
3558007615
3558010300
3558013352
3558016404
3558018967
3558021470
3558024033
3558026902
3558029770
3558032578
3558035386
3558037949
3558040512
3558043076
3558045456
3558048935
3558052414
3558055466
3558058091
3558061142
3558063645
3558066269
3558068650
3558071518
3558074326
3558077133
3558080429
3558083542
3558087509
3558090744
3558092819
3558096665
3558099167
3558102341
3558105149
3558108078
3558111008
3558113510
3558116257
3558119614
3558122544
3558125595
3558128098
3558131577
3558134934
3558137558
3558140732
3558143356
3558147690
3558150803
3558153732
3558156601
3558159531
3558162705
3558165634
3558168076
3558170883
3558173019
3558176315
3558179367
3558181320
3558184372
3558187058
3558189560
3558192062
3558194809
3558197067
3558199814
3558202499
3558204941
3558207504
3558210190
3558213547
3558216232
3558218979
3558221664
3558225021
3558227707
3558231186
3558234360
3558236984
3558240341
3558243576
3558245956
3558248398
3558250656
3558253464
3558256454
3558259323
3558262619
3558265426
3558267929
3558271042
3558273910
3558276718
3558279403
3558282455
3558285568
3558288254
3558291244
3558294052
3558296615
3558299362
3558301864
3558304489
3558307846
3558310348
3558312729
3558315048
3558317794
3558319931
3558322555
3558325302
3558327987
3558330612
3558332992
3558335983
3558338913
3558341171
3558343734
3558346420
3558349044
3558351974
3558354721
3558357833
3558360763
3558363327
3558365341
3558368392
3558371566
3558375412
3558378280
3558381027
3558385360
3558387863
3558390365
3558392684
3558396224
3558398483
3558401412
3558405441
3558408676
3558411300
3558413558
3558415634
3558418319
3558420883
3558423019
3558424972
3558428329
3558431320
3558433334
3558436080
3558439498
3558443282
3558445785
3558448592
3558451461
3558454147
3558456649
3558459213
3558462631
3558465438
3558468002
3558470687
3558473312
3558475692
3558478133
3558480819
3558483810
3558486617
3558489425
3558492110
3558495101
3558497604
3558499984
3558502059
3558504806
3558508102
3558511275
3558515609
3558519576
3558525497
3558530379
3558533370
3558535873
3558538192
3558540694
3558543258
3558546676
3558549422
3558552474
3558555343
3558558211
3558561080
3558564071
3558566634
3558569198
3558572127
3558575484
3558577926
3558580428
3558582808
3558585494
3558587752
3558591414
3558594527
3558596724
3558599471
3558602584
3558604415
3558607283
3558609786
3558612105
3558615157
3558618453
3558620284
3558624007
3558626754
3558628829
3558631392
3558634871
3558637191
3558639876
3558642501
3558645247
3558649031
3558651900
3558654280
3558657332
3558660140
