3805327050
3805332360
3805337304
3805342187
3805348107
3805353234
3805359643
3805364342
3805369469
3805374413
3805379845
3805385094
3805390648
3805397362
3805402306
3805408409
3805414086
3805421532
3805427697
3805434777
3805441124
3805445763
3805453942
3805459313
3805464623
3805471276
3805477501
3805485008
3805490868
3805497521
3805505089
3805511986
3805517235
3805524010
3805531273
3805538536
3805546898
3805553062
3805559471
3805566551
3805573143
3805580406
3805587974
3805594932
3805602562
3805609703
3805616783
3805623619
3805630516
3805638939
3805645042
3805652305
3805658409
3805665916
3805675682
3805684471
3805692711
3805700767
3805707237
3805714439
3805722007
3805728782
3805738609
3805745567
3805751060
3805760520
3805767723
3805776878
3805784141
3805792442
3805799522
3805805991
3805813621
3805821616
3805828819
3805836509
3805844077
3805852134
3805859153
3805867515
3805877341
3805886069
3805893394
3805899314
3805906638
3805915366
3805922996
3805928306
3805937705
3805946189
3805951499
3805962241
3805972495
3805983176
3805991050
3805998252
3806005454
3806011191
3806020346
3806030295
3806035544
3806044699
3806052024
3806059348
3806064597
3806073386
3806080588
3806087973
3806096701
3806102377
3806110739
3806118796
3806126730
3806133078
3806142050
3806148215
3806156332
3806162558
3806170004
3806176413
3806185263
3806191366
3806200583
3806207358
3806215231
3806222189
3806230368
3806235373
3806243979
3806252096
3806259543
3806266989
3806274313
3806279562
3806287863
3806296103
3806303671
3806311422
3806319235
3806326193
3806331625
3806336813
3806346640
3806355856
3806362203
3806370504
3806379110
3806388448
3806395406
3806401998
3806409017
3806417806
3806424947
3806434164
3806439474
3806449911
3806455160
3806464437
3806472250
3806480672
3806487874
3806493429
3806502035
3806507711
3806516500
3806522237
3806529867
3806537313
3806545492
3806553792
3806560384
3806568441
3806575643
3806581502
3806590047
3806597860
3806605001
3806612874
3806620870
3806627034
3806635274
3806642232
3806648946
3806655049
3806664693
3806671590
3806679280
3806686238
3806692769
3806700154
3806707906
3806714681
3806723775
3806731404
3806737202
3806746541
3806752339
3806759724
3806767293
3806774312
3806782735
3806792622
3806799946
3806808003
3806812398
3806822041
3806831135
3806838948
3806846455
3806852376
3806860005
3806866963
3806874470
3806879719
3806888997
3806894429
3806902241
3806910115
3806916767
3806924580
3806931965
3806937214
3806946919
3806952839
3806961140
3806967121
3806973774
3806982258
3806989399
3806996601
3807004292
3807011189
3807018818
3807025593
3807033283
3807040485
3807045795
3807054218
3807062214
3807072834
3807078998
3807088337
3807096088
3807103351
3807110859
3807118549
3807124958
3807132831
3807141620
3807148578
3807156757
3807163776
3807172443
3807180988
3807188312
3807196369
3807204303
3807211017
3807216266
3807226032
3807231952
3807240192
3807246479
3807252582
3807257892
3807268268
3807278644
3807286579
3807293781
3807300372
3807307086
3807313678
3807320392
3807327106
3807334064
3807340533
3807348163
3807355365
3807361407
3807368304
3807376178
3807382587
3807391925
3807400226
3807407794
3807415729
3807422381
3807430865
3807439898
3807448565
3807457171
3807464434
3807471454
3807479449
3807486956
3807493182
3807502337
3807509722
3807516803
3807524798
3807531085
3807539080
3807545916
3807553912
3807560931
3807569476
3807577288
3807584246
3807590472
3807598467
3807606219
3807614153
3807621844
3807630267
3807636065
3807642962
3807650347
3807656756
3807665850
3807674029
3807679522
3807687395
3807693499
3807699480
3807708086
3807713762
3807719134
3807724322
3807732683
3807741289
3807748430
3807755999
3807761370
3807766741
3807772478
3807779009
3807785173
3807791582
3807796282
3807803545
3807810930
3807816912
3807821184
3807829973
3807835588
3807841570
3807847856
3807852861
3807858965
3807865190
3807871111
3807878374
3807883013
3807888872
3807893999
3807900957
3807908037
3807912126
3807919511
3807924638
3807930437
3807936784
3807942033
3807947160
3807952226
3807957902
3807963823
3807969377
3807975969
3807982194
3807988359
3807993608
3807999772
3808004960
3808011796
3808018937
3808023393
3808029558
3808036210
3808045060
3808049150
3808056047
3808062883
3808068315
3808073442
3808078996
3808084428
3808090593
3808096574
3808102861
3808107804
3808113664
3808118669
3808123185
3808129960
3808137040
3808142839
3808148332
3808153764
3808158830
3808163590
3808168778
3808175675
3808182023
3808187577
3808193803
3808199174
3808205033
3808208939
3808214982
3808221024
3808227433
3808232316
3808238419
3808242936
3808249284
3808254288
3808261735
3808269059
3808276871
3808282548
3808288163
3808293717
3808298783
3808305863
3808311234
3808317032
3808321732
3808327347
3808333207
3808339188
3808345047
3808351822
3808357560
3808363785
3808368729
3808374772
3808379959
3808386551
3808392350
3808397660
3808403397
3808408524
3808413285
3808418412
3808424149
3808429398
3808438431
3808444412
3808450333
3808455582
3808460221
3808466263
3808472794
3808477982
3808484573
3808490006
3808495194
3808500748
3808506607
3808512039
3808517960
3808525406
3808531754
3808537125
3808542740
3808548050
3808553665
3808558914
3808567154
3808573135
3808577713
3808584671
3808589126
3808595535
3808600662
3808605789
3808610428
3808616897
3808622207
3808628189
3808633438
3808639602
3808646805
3808653152
3808658035
3808664077
3808669082
3808675064
3808680374
3808686355
3808691665
3808698196
3808703140
3808707778
3808713577
3808720108
3808725051
3808730361
3808736953
3808742446
3808748245
3808754165
3808760818
3808764968
3808771194
3808776626
3808783157
3808787124
3808793533
3808799758
3808805862
3808811172
3808818984
3808824233
3808830947
3808834914
3808841872
3808848586
3808852798
3808858779
3808864699
3808870559
3808877090
3808882705
3808887343
3808893142
3808899917
3808905044
3808910048
3808916274
3808921584
3808927504
3808932998
3808938552
3808944960
3808951430
3808957412
3808963454
3808968764
3808974990
3808980788
3808985366
3808991164
3808996962
3809002516
3809008986
3809014540
3809019850
3809025710
3809028823
3809035781
3809040908
3809047194
3809053176
3809058974
3809065138
3809070754
3809076125
3809082167
3809086867
3809092787
3809098097
3809104872
3809110854
3809115553
3809121840
3809126357
3809132521
3809139174
3809144118
3809149367
3809155470
3809160780
3809167433
3809171217
3809177626
3809184035
3809189467
3809193251
3809199843
3809206618
3809212538
3809218397
3809223036
3809229323
3809234022
3809240370
3809244948
3809252638
3809257704
3809263502
3809269178
3809274916
3809281080
3809284986
3809291212
3809296888
3809302504
3809307325
3809313368
3809320143
3809324720
3809331373
3809338392
3809345167
3809351026
3809357740
3809362684
3809368910
3809373426
3809379591
3809386060
3809391126
3809396375
3809403333
3809407850
3809413465
3809419630
3809425489
3809430433
3809436781
3809442213
3809448072
3809453626
3809458265
3809464185
3809470838
3809476087
3809480604
3809487501
3809492811
3809498487
3809503675
3809509717
3809516431
3809522107
3809528272
3809533094
3809539380
3809546277
3809552259
3809557508
3809563245
3809568433
3809574414
3809577710
3809585279
3809591931
3809601148
3809606885
3809610730
3809616284
3809622205
3809627515
3809632886
3809639356
3809644361
3809650281
3809656018
3809659680
3809665845
3809672559
3809676160
3809682630
3809688733
3809693250
3809698438
3809704602
3809710584
3809716565
3809722546
3809727979
3809731763
3809737988
3809743603
3809749158
3809756848
3809761365
3809767834
3809772473
3809778515
3809783337
3809789807
3809794568
3809801098
3809806103
3809812573
3809815808
3809823193
3809829358
3809835156
3809840710
3809847180
3809852368
3809857556
3809863720
3809869458
3809875500
3809880017
3809887402
3809893444
3809899121
3809904370
3809909802
3809915661
3809921704
3809927380
3809933178
3809938000
3809944287
3809949963
3809954479
3809960583
3809967175
3809972485
3809979382
3809984997
3809990978
3809996105
3810000866
3810006298
3810013195
3810019421
3810024853
3810029369
3810036388
3810042126
3810048046
3810053356
3810059643
3810065868
3810071361
3810076794
3810082226
3810087169
3810092602
3810099560
3810104503
3810110607
3810116527
3810122875
3810127880
3810133617
3810140148
3810146496
3810152172
3810157726
3810163036
3810169139
3810173534
3810179882
3810186229
3810192333
3810196971
3810203746
3810209606
3810214244
3810220043
3810226024
3810230907
3810237010
3810242504
3810247020
3810253673
3810260082
3810265331
3810270580
3810276134
3810281505
3810287181
3810292430
3810298595
3810304637
3810310008
3810315318
3810320995
3810327159
3810331309
3810338329
3810342540
3810349254
3810355296
3810362437
3810367747
3810373729
3810378856
3810383922
3810389171
3810395213
3810398448
3810406993
3810412913
3810417796
3810424022
3810430247
3810436778
3810442576
3810447337
3810452952
3810459910
3810463878
3810470225
3810476207
3810480723
3810487071
3810493968
3810498606
3810504893
3810511790
3810516490
3810521067
3810527903
3810533152
3810539439
3810545542
3810550974
3810556956
3810560740
3810566905
3810572459
3810577342
3810583323
3810590098
3810595103
3810600840
3810604380
3810610728
3810618906
3810623118
3810629526
3810633677
3810639963
3810649973
3810655527
3810661936
3810669443
3810675425
3810680613
3810685679
3810690684
3810696421
3810703318
3810710154
3810715647
3810722056
3810729075
3810733164
3810739695
3810745493
3810751719
3810756540
3810762522
3810767221
3810773203
3810780039
3810785532
3810790842
3810797190
3810802561
3810808664
3810815317
3810819834
3810826731
3810830820
3810837656
3810842478
3810849436
3810854685
3810860178
3810865305
3810872446
3810879038
3810883310
3810890268
3810894846
3810900034
3810906442
3810912424
3810917795
3810924081
3810929575
3810935495
3810940988
3810945932
3810953012
3810961374
3810967050
3810973337
3810977426
3810984567
3810989084
3810995187
3811001291
3811006173
3811012582
3811018075
3811024484
3811029184
3811034128
3811041208
3811046640
3811052743
3811058175
3811064218
3811068063
3811074655
3811080270
3811085641
3811091745
3811097604
3811103341
3811108102
3811115121
3811119760
3811126596
3811131722
3811138070
3811143502
3811148934
3811154794
3811160348
3811164193
3811171151
3811176949
3811182443
3811188485
3811192696
3811199593
3811206185
3811212045
3811216561
3811222420
3811228951
3811234994
3811241158
3811246468
3811251351
3811258919
3811262032
3811269295
3811274422
3811279854
3811286507
3811291878
3811297432
3811301644
3811308785
3811314705
3811320260
3811326363
3811331185
3811337227
3811343209
3811349739
3811355599
3811359139
3811366463
3811369698
3811377388
3811383797
3811389168
3811394173
3811400154
3811406075
3811410713
3811417122
3811422005
3811427620
3811434334
3811439949
3811445259
3811450630
3811456123
3811461617
3811466927
3811473946
3811479622
3811485420
3811489815
3811497505
3811504158
3811508736
3811514717
3811520637
3811526802
3811531502
3811538155
3811542671
3811548775
3811553413
3811560554
3811565132
3811571968
3811577949
3811583687
3811589058
3811594612
3811599800
3811606880
3811611519
3811616951
3811622566
3811628059
3811634468
3811638801
3811646675
3811653511
3811659614
3811664985
3811671150
3811676887
3811682441
3811688179
3811693550
3811699104
3811705085
3811710212
3811714485
3811720771
3811726814
3811732307
3811738166
3811745002
3811750312
3811756294
3811761604
3811766731
3811771858
3811778632
3811786079
3811790107
3811797492
3811802192
3811807380
3811813361
3811819099
3811823920
3811830695
3811835273
3811841560
3811846381
3811852912
3811858283
3811865668
3811870856
3811876349
3811881660
3811887580
3811893012
3811899054
3811905768
3811911750
3811917731
3811922492
3811928534
3811934455
3811939948
3811944526
3811950019
3811956733
3811962348
3811967658
3811973517
3811978644
3811984503
3811989569
3811994879
3812001960
3812006171
3812013495
3812018500
3812025275
3812031012
3812037665
3812043402
3812049445
3812054511
3812060370
3812066779
3812072272
3812078803
3812085455
3812091986
3812096503
3812102728
3812107367
3812114569
3812120489
3812126105
3812131293
3812136542
3812141913
3812147772
3812153021
3812159308
3812164862
3812170599
3812175848
3812181402
3812188116
3812192511
3812198187
3812204046
3812210028
3812215887
3812221930
3812226446
3812232000
3812237860
3812243597
3812248236
3812256414
3812260199
3812266790
3812272650
3812278448
3812284429
3812291326
3812296820
3812302313
3812309210
3812314947
3812319952
3812325994
3812332830
3812338323
3812344183
3812350225
3812355779
3812361578
3812367071
3812372991
3812377020
3812383367
3812389898
3812395818
3812400457
3812407293
3812411810
3812417181
3812423284
3812429632
3812434820
3812440801
3812445989
3812451299
3812456548
3812462408
3812467718
3812473455
3812479925
3812484014
3812490484
3812496587
3812502141
3812506658
3812513006
3812517766
3812523748
3812528508
3812535161
3812539922
3812546514
3812551336
3812557500
3812564031
3812569890
3812574590
3812582219
3812588140
3812593816
3812600835
3812605352
3812611333
3812616033
3812622624
3812629216
3812634892
3812640691
3812647954
3812653813
3812659245
3812664861
3812670232
3812675847
3812681340
3812686711
3812692693
3812697820
3812703679
3812709111
3812713444
3812720097
3812726079
3812732976
3812739751
3812745488
3812751103
3812755376
3812761967
3812766240
3812773503
3812777775
3812784672
3812788762
3812795720
3812800175
3812806645
3812811345
3812817204
3812823796
3812829716
3812835453
3812841069
3812846379
3812852482
3812856511
3812865788
3812872135
3812877018
3812882206
3812888798
3812893742
3812898381
3812905461
3812912174
3812916447
3812922306
3812940739
3812950016
3812955326
3812961125
3812966740
3812972355
3812977726
3812983219
3812988407
3812993961
3812999821
3813005375
3813011295
3813015568
3813021732
3813026859
3813032535
3813039127
3813045170
3813049991
3813055790
3813061954
3813066898
3813072635
3813078556
3813084537
3813090519
3813096378
3813102115
3813107181
3813115848
3813119693
3813126712
3813132267
3813138187
3813143497
3813150150
3813155643
3813161319
3813168094
3813172306
3813178348
3813184879
3813190006
3813195926
3813201847
3813206729
3813212955
3813217777
3813224674
3813229251
3813235599
3813240848
3813248538
3813252323
3813258792
3813262882
3813269717
3813276370
3813280765
3813287967
3813295047
3813300967
3813307864
3813312930
3813317569
3813324832
3813330386
3813336246
3813341678
3813347110
3813353274
3813358707
3813364749
3813370852
3813377017
3813382998
3813388431
3813394351
3813399356
3813405520
3813411075
3813417056
3813423526
3813428408
3813434573
3813441653
3813445987
3813452578
3813458010
3813461856
3813468692
3813474917
3813480410
3813486331
3813490786
3813496524
3813501956
3813508853
3813513491
3813520938
3813526126
3813530825
3813537417
3813542849
3813548037
3813553469
3813558657
3813565432
3813570864
3813576296
3813580141
3813585940
3813592471
3813598818
3813604922
3813609438
3813615847
3813620425
3813625857
3813630434
3813637270
3813641970
3813649416
3813655031
3813660830
3813666872
3813672976
3813678713
3813684328
3813690798
3813696779
3813702150
3813706789
3813713320
3813717836
3813725771
3813731142
3813736147
3813740847
3813747438
3813754274
3813759645
3813762819
3813770388
3813777529
3813783022
3813788515
3813794130
3813799806
3813805300
3813811281
3813817507
3813822695
3813829653
3813834780
3813841310
3813848818
3813853395
3813861208
3813867555
3813871645
3813877138
3813882265
3813888673
3813892274
3813899416
3813906374
3813912050
3813918092
3813923585
3813929140
3813933595
3813938905
3813944765
3813951662
3813956422
3813962037
3813967470
3813972474
3813977907
3813984376
3813989259
3813994630
3814000062
3814005983
3814010927
3814015931
3814023439
3814029298
3814035157
3814039552
3814045045
3814049989
3814055543
3814060792
3814067201
3814071656
3814075868
3814082093
3814086915
3814092897
3814096559
3814105042
3814109803
3814115113
3814121827
3814128724
3814133851
3814139100
3814145997
3814151307
3814156556
3814162965
3814167359
3814172730
3814178162
3814185426
3814197755
3814202760
3814208985
3814213013
3814219544
3814225342
3814230714
3814236146
3814240113
3814246705
3814254151
3814258179
3814264344
3814269349
3814274048
3814280701
3814285706
3814290833
3814296326
3814301819
3814307557
3814313965
3814319092
3814325013
3814330262
3814336243
3814341858
3814346619
3814353333
3814359986
3814364807
3814370056
3814376526
3814381775
3814387696
3814391419
3814398682
3814402649
3814409790
3814415528
3814421204
3814427979
3814432678
3814441040
3814446045
3814452454
3814457031
3814463562
3814468262
3814474548
3814481262
3814485962
3814490540
3814497864
3814501343
3814508789
3814514160
3814520996
3814525513
3814530823
3814537414
3814543518
3814548828
3814553772
3814559265
3814565796
3814572204
3814577514
3814583069
3814588379
3814593994
3814599365
3814605224
3814611328
3814617370
3814623535
3814629577
3814634887
3814638916
3814645507
3814649597
3814656494
3814663513
3814668579
3814673706
3814679565
3814682739
3814690795
3814695373
3814702880
3814707824
3814712768
3814719970
3814725585
3814730529
3814737487
3814743530
3814747558
3814754333
3814760558
3814766174
3814771789
3814777587
3814782470
3814788940
3814793700
3814800353
3814808654
3814813903
3814818481
3814824950
3814829833
3814835204
3814841796
3814847350
3814853026
3814858703
3814864196
3814869567
3814875792
3814882445
3814889281
3814894347
3814900390
3814906005
3814910766
3814917968
3814924498
3814928710
3814935302
3814940917
3814946166
3814952086
3814957824
3814963561
3814969237
3814974974
3814979064
3814985778
3814992186
3814996398
3815003600
3815007933
3815014830
3815021605
3815027037
3815032286
3815037596
3815042906
3815051085
3815057188
3815061278
3815067748
3815073180
3815078917
3815084837
3815090392
3815095152
3815101683
3815107603
3815113219
3815117918
3815124815
3815129698
3815135557
3815142088
3815147581
3815152769
3815158507
3815164305
3815169676
3815173582
3815180418
3815186949
3815191160
3815197386
3815203001
3815208922
3815214781
3815221129
3815225828
3815231749
3815239012
3815244383
3815249571
3815254454
3815259458
3815267820
3815273741
3815279661
3815285215
3815291197
3815297483
3815302976
3815309690
3815315977
3815320616
3815326475
3815331419
3815338682
3815343748
3815348325
3815356199
3815361387
3815366392
3815371885
3815378538
3815382444
3815389585
3815393491
3815400388
3815406187
3815411985
3815417356
3815423276
3815428342
3815434507
3815440732
3815445371
3815452146
3815457456
3815463743
3815467039
3815474241
3815479490
3815486753
3815492368
3815497800
3815503537
3815509519
3815515195
3815519529
3815526609
3815534177
3815540281
3815546689
3815552121
3815557492
3815563352
3815569150
3815576169
3815581967
3815587400
3815591367
3815598569
3815605344
3815609494
3815615964
3815622006
3815627255
3815631528
3815640195
3815646298
3815650449
3815657651
3815662717
3815669553
3815674802
3815681821
3815687314
3815692868
3815699155
3815705136
3815710812
3815715817
3815722165
3815726865
3815732907
3815739499
3815744931
3815751584
3815755978
3815762326
3815767880
3815771969
3815778378
3815783200
3815789670
3815795651
3815800656
3815808163
3815813961
3815820126
3815826107
3815833310
3815838742
3815844174
3815851132
3815855404
3815862301
3815866879
3815873410
3815880062
3815886288
3815892025
3815898068
3815903561
3815909176
3815914669
3815920284
3815926144
3815931637
3815937496
3815943539
3815948971
3815953182
3815961056
3815966183
3815972469
3815979244
3815984554
3815989742
3815994869
3816000240
3816006100
3816012936
3816018307
3816022152
3816028377
3816034298
3816039852
3816045284
3816051693
3816057308
3816063595
3816070369
3816075008
3816081478
3816086055
3816093258
3816100643
3816106441
3816112240
3816118221
3816123226
3816129268
3816135921
3816141353
3816147396
3816152584
3816158504
3816164058
3816169551
3816175167
3816180843
3816186580
3816192012
3816198909
3816203182
3816209651
3816213863
3816221126
3816225826
3816232295
3816236873
3816242366
3816248958
3816254024
3816258662
3816267085
3816272701
3816278743
3816284358
3816291133
3816295711
3816302486
3816308345
3816314204
3816319636
3816323360
3816329402
3816334712
3816341426
3816347957
3816355220
3816361629
3816368281
3816374202
3816380488
3816385859
3816391230
3816398005
3816403499
3816408870
3816414729
3816421565
3816426081
3816433345
3816438411
3816444941
3816450190
3816456599
3816461787
3816467585
3816471369
3816477595
3816484980
3816491023
3816496943
3816501399
3816507990
3816512690
3816518916
3816525569
3816530695
3816536189
3816542353
3816547541
3816552790
3816558039
3816565058
3816572016
3816576167
3816583247
3816587275
3816594294
3816598933
3816605402
3816611628
3816616511
3816621943
3816629145
3816632990
3816639643
3816645746
3816653620
3816659113
3816663202
3816669611
3816675470
3816680231
3816686213
3816692377
3816696955
3816703119
3816707941
3816714350
3816719965
3816725214
3816729731
3816736139
3816742731
3816748285
3816752314
3816758600
3816763910
3816769525
3816775812
3816781549
3816787409
3816791437
3816798517
3816802728
3816809564
3816815546
3816820490
3816826471
3816832880
3816838129
3816843439
3816848749
3816853998
3816860346
3816866510
3816872186
3816876154
3816881891
3816888422
3816895441
3816900873
3816907831
3816912652
3816919122
3816924615
3816930963
3816934747
3816942316
3816947992
3816954034
3816961053
3816965448
3816972650
3816977166
3816983941
3816988153
3816995355
3816999994
3817006402
3817010919
3817017328
3817021905
3817028009
3817032647
3817039117
3817045709
3817051263
3817057305
3817063165
3817067193
3817073663
3817080377
3817084405
3817091180
3817096002
3817102349
3817106988
3817113152
3817119805
3817125726
3817130975
3817136895
3817140984
3817149041
3817154717
3817159051
3817165215
3817170770
3817177483
3817182488
3817188531
3817195122
3817199517
3817206170
3817211419
3817216668
3817222710
3817228020
3817233269
3817238579
3817244378
3817249688
3817256951
3817263665
3817267876
3817274834
3817279107
3817286126
3817292107
3817297661
3817302239
3817308831
3817313408
3817320244
3817325493
3817330315
3817336968
3817341973
3817347283
3817353081
3817358452
3817364678
3817370781
3817376396
3817380425
3817386833
3817394707
3817402825
3817411736
3817420647
3817428337
3817435356
3817444389
3817452934
3817460991
3817468193
3817476433
3817483940
3817490898
3817498650
3817505119
3817514336
3817521355
3817529106
3817536980
3817544365
3817551506
3817560173
3817568168
3817575309
3817583854
3817591179
3817598442
3817606681
3817614860
3817621269
3817629570
3817634819
3817639946
3817645317
3817650444
3817657279
3817663749
3817668937
3817674736
3817680046
3817685783
3817691093
3817697502
3817703239
3817709098
3817714958
3817721305
3817727104
3817732475
3817738517
3817745597
3817750724
3817757377
3817762931
3817767570
3817773734
3817779899
3817787772
3817793143
3817797965
3817804862
3817809379
3817816825
3817822745
3817828666
3817834220
3817839835
3817846427
3817851188
3817858939
3817865165
3817871512
3817876822
3817882377
3817888175
3817893790
3817897818
3817904105
3817910697
3817916495
3817921988
3817928092
3817933829
3817938407
3817943778
3817949698
3817955924
3817960684
3817967581
3817972830
3817977835
3817983084
3817989798
3817993460
3818001090
3818006033
3818011405
3818016593
3818022086
3818028677
3818033194
3818039298
3818046378
3818051749
3818057486
3818062613
3818068411
3818074149
3818079398
3818087332
3818093253
3818098379
3818104605
3818109427
3818115530
3818122244
3818126517
3818133230
3818137625
3818144217
3818149038
3818155203
3818162222
3818167959
3818173391
3818179373
3818183767
3818190909
3818195974
3818201712
3818207693
3818212454
3818218863
3818223989
3818229971
3818235525
3818240774
3818247122
3818254385
3818259207
3818263906
3818271658
3818277395
3818282705
3818288626
3818294790
3818300466
3818306448
3818312734
3818318838
3818323782
3818330679
3818337087
3818343557
3818348867
3818354116
3818359975
3818364187
3818371755
3818376577
3818382925
3818387502
3818393728
3818399892
3818406484
3818412282
3818417226
3818424428
3818429677
3818434011
3818441518
3818447133
3818453298
3818458974
3818464528
3818473134
3818478750
3818484365
3818491750
3818496755
3818502126
3818508168
3818513417
3818519460
3818525563
3818533132
3818539174
3818545644
3818550099
3818556630
3818562306
3818567983
3818573964
3818580129
3818586782
3818591359
3818596303
3818604115
3818609364
3818615651
3818621205
3818627980
3818633229
3818639211
3818644643
3818648732
3818655507
3818662282
3818668446
3818673207
3818679555
3818684926
3818690968
3818696217
3818701832
3818708913
3818714223
3818719899
3818725819
3818731007
3818737233
3818742299
3818747914
3818753895
3818758656
3818764882
3818771473
3818776906
3818782765
3818788990
3818794667
3818800099
3818805165
3818811085
3818817128
3818822499
3818830067
3818834950
3818841725
3818846913
3818852894
3818858143
3818863697
3818869557
3818875233
3818880726
3818886341
3818892079
3818897694
3818902821
3818908863
3818915699
3818922047
3818928089
3818932606
3818940113
3818945301
3818950733
3818954639
3818962330
3818967701
3818973133
3818979237
3818984730
3818988575
3818995228
3819001026
3819007069
3819012684
3819018604
3819024036
3819028736
3819034717
3819041004
3819046924
3819053516
3819057789
3819063831
3819069629
3819075245
3819080433
3819086353
3819093006
3819099598
3819103992
3819111560
3819117481
3819123462
3819129200
3819137867
3819143543
3819149097
3819153614
3819160327
3819164966
3819169971
3819175952
3819181446
3819186389
3819191211
3819196216
3819203235
3819207935
3819213062
3819219104
3819224658
3819232349
3819237964
3819242969
3819249927
3819254199
3819260425
3819266956
3819271899
3819277026
3819282764
3819289416
3819293994
3819300342
3819305041
3819312244
3819317920
3819323840
3819329211
3819335437
3819340991
3819346667
3819352832
3819358142
3819363452
3819369067
3819375293
3819379931
3819385669
3819392260
3819397754
3819402880
3819408862
3819414233
3819420947
3819427844
3819432055
3819438037
3819443652
3819449023
3819454577
3819460253
3819466662
3819473132
3819477831
3819483508
3819488268
3819494555
3819501147
3819507311
3819512560
3819518054
3819523119
3819528613
3819534228
3819539416
3819543139
3819549853
3819555895
3819561694
3819568224
3819573595
3819580004
3819586169
3819592150
3819597155
3819603625
3819610216
3819614855
3819621203
3819625902
3819632189
3819638476
3819652270
3819658251
3819665636
3819672838
3819678820
3819684679
3819690477
3819697374
3819702257
3819709276
3819713854
3819720568
3819725817
3819731371
3819736498
3819741930
3819747118
3819754320
3819758654
3819764818
3819771288
3819776903
3819780870
3819787523
3819793566
3819800096
3819805711
3819811632
3819817003
3819821703
3819828355
3819832933
3819839098
3819844591
3819850999
3819855760
3819863268
3819866502
3819873460
3819880662
3819886217
3819892931
3819898851
3819904649
3819909227
3819915636
3819919725
3819925767
3819932908
3819937059
3819942918
3819947679
3819953721
3819958665
3819963548
3819969590
3819974717
3819980088
3819985154
3819990709
3819995897
3820001512
3820007371
3820012254
3820019334
3820024400
3820030137
3820035691
3820041490
3820048387
3820055528
3820060350
3820066331
3820071336
3820076402
3820083604
3820088304
3820094834
3820099656
3820104722
3820109544
3820117112
3820124558
3820131089
3820136948
3820143113
3820149278
3820156297
3820161118
3820167832
3820176377
3820180894
3820188462
3820193101
3820199876
3820204819
3820210740
3820217576
3820221909
3820227341
3820232834
3820238816
3820244553
3820249802
3820256821
3820261521
3820265610
3820273056
3820278367
3820283493
3820287156
3820294114
3820300217
3820306687
3820312363
3820317429
3820323777
3820329636
3820336838
3820343186
3820346970
3820352707
3820357834
3820364548
3820371262
3820376816
3820381943
3820389511
3820394943
3820401840
3820406418
3820412399
3820417587
3820423019
3820429977
3820434128
3820440720
3820447678
3820453354
3820460068
3820466476
3820471909
3820477951
3820481918
3820488754
3820493942
3820500778
3820506943
3820512131
3820516891
3820523727
3820529465
3820534897
3820540085
3820545334
3820551132
3820557602
3820563888
3820569015
3820575363
3820580490
3820586471
3820592086
3820598922
3820603927
3820610336
3820616806
3820623642
3820629501
3820634323
3820640731
3820648300
3820653854
3820660201
3820665267
3820671920
3820677596
3820684554
3820689926
3820695541
3820702133
3820707321
3820713424
3820716659
3820724349
3820727584
3820736984
3820742355
3820747909
3820752364
3820758224
3820765182
3820772506
3820776656
3820784103
3820788680
3820796187
3820801375
3820808089
3820813582
3820819015
3820825606
3820831588
3820836410
3820842452
3820847884
3820854537
3820860213
3820864730
3820870894
3820877547
3820882064
3820886641
3820896102
3820902083
3820907576
3820913436
3820917891
3820924117
3820929610
3820935225
3820941024
3820947615
3820952437
3820959029
3820964400
3820970992
3820976241
3820981917
3820988631
3820994612
3820999800
3821005843
3821011153
3821015791
3821022688
3821027449
3821033980
3821039229
3821045149
3821050276
3821055403
3821060835
3821066939
3821072432
3821078169
3821081465
3821089339
3821095930
3821100081
3821106367
3821112959
3821119429
3821123884
3821130659
3821135725
3821141096
3821147627
3821153792
3821157942
3821165083
3821171858
3821178267
3821184370
3821188887
3821195478
3821202253
3821208479
3821215376
3821221785
3821228437
3821233625
3821239607
3821244856
3821251081
3821254377
3821261152
3821266279
3821273542
3821277632
3821284162
3821289716
3821295149
3821301008
3821306989
3821312849
3821318769
3821323652
3821329694
3821335920
3821340620
3821346113
3821352766
3821357404
3821364118
3821369550
3821374860
3821381330
3821387189
3821392805
3821397565
3821403913
3821409467
3821416486
3821422773
3821428632
3821434736
3821439557
3821450361
3821455976
3821461774
3821468000
3821473676
3821480390
3821484723
3821491681
3821496991
3821504071
3821507795
3821514020
3821520368
3821526654
3821531476
3821537519
3821543805
3821550336
3821556134
3821561444
3821566388
3821571820
3821577802
3821583112
3821589154
3821595746
3821599896
3821605695
3821611188
3821617841
3821622052
3821629376
3821633710
3821640485
3821645306
3821652447
3821658490
3821664044
3821669781
3821675885
3821682721
3821687543
3821693768
3821698834
3821706097
3821711224
3821717023
3821723553
3821730084
3821736859
3821741498
3821748150
3821753033
3821761151
3821768902
3821774517
3821779705
3821784161
3821790631
3821794781
3821800824
3821805828
3821811383
3821816449
3821823040
3821826641
3821833538
3821838970
3821845867
3821850933
3821856304
3821862408
3821867596
3821874371
3821880047
3821885540
3821890911
3821896221
3821903301
3821907818
3821913494
3821919598
3821924969
3821933208
3821938580
3821945965
3821950542
3821956402
3821963177
3821968792
3821974895
3821981609
3821986797
3821992962
3821998760
3822004131
3822009075
3822015240
3822021648
3822026409
3822032818
3822038189
3822043499
3822048748
3822056072
3822062053
3822067791
3822073772
3822077922
3822084026
3822089702
3822096294
3822103313
3822108684
3822114116
3822118267
3822124980
3822129375
3822135417
3822142314
3822148052
3822153423
3822159038
3822164531
3822168804
3822175517
3822181133
3822187480
3822193340
3822198772
3822203410
3822209636
3822214336
3822221782
3822227885
3822234050
3822239909
3822245647
3822251384
3822256999
3822262614
3822269145
3822274577
3822282695
3822288066
3822292949
3822299663
3822305095
3822311137
3822316264
3822321879
3822327434
3822333659
3822339824
3822344401
3822351115
3822357341
3822362651
3822368937
3822374369
3822380046
3822384990
3822391459
3822396891
3822400737
3822407145
3822412944
3822417765
3822423259
3822428691
3822433512
3822440531
3822445658
3822450968
3822456889
3822463481
3822466899
3822473734
3822479777
3822484904
3822490458
3822496623
3822502665
3822507060
3822513102
3822517985
3822524332
3822529459
3822535441
3822540690
3822546366
3822551737
3822558512
3822565531
3822569620
3822576334
3822582438
3822588053
3822592692
3822598368
3822604532
3822610636
3822615397
3822621561
3822626139
3822632609
3822637797
3822644083
3822651468
3822657206
3822661966
3822668192
3822673685
3822678812
3822684610
3822690897
3822696451
3822703958
3822709269
3822713053
3822718851
3822724649
3822731058
3822737528
3822744058
3822750894
3822755411
3822763162
3822769510
3822777933
3822782511
3822787943
3822793680
3822799539
3822805826
3822812112
3822817423
3822823587
3822828897
3822835062
3822840494
3822845926
3822851236
3822856424
3822862711
3822868448
3822874124
3822880411
3822885904
3822892007
3822896524
3822903482
3822909402
3822915323
3822920022
3822925699
3822931802
3822938211
3822943399
3822948831
3822953653
3822960672
3822965799
3822971292
3822976541
3822982278
3822992593
3822997903
3823003091
3823008462
3823015176
3823019265
3823027078
3823033547
3823038674
3823044473
3823050271
3823057534
3823060830
3823067605
3823072732
3823079690
3823085916
3823090310
3823097024
3823101785
3823109475
3823114785
3823121926
3823127236
3823132485
3823137856
3823143716
3823149697
3823155251
3823161050
3823166482
3823171914
3823177468
3823182717
3823188637
3823194070
3823199990
3823205239
3823211220
3823216591
3823221352
3823228493
3823233315
3823240212
3823245461
3823251076
3823256569
3823263039
3823268776
3823274392
3823278664
3823286110
3823293923
3823298806
3823305336
3823311501
3823317421
3823322365
3823329567
3823335549
3823341896
3823348122
3823353981
3823360024
3823366005
3823369972
3823376320
3823383705
3823387734
3823394508
3823398842
3823405190
3823411049
3823416969
3823421974
3823428627
3823433144
3823439796
3823445595
3823451515
3823456886
3823462501
3823467934
3823473488
3823478676
3823485023
3823491371
3823496742
3823502296
3823508583
3823513832
3823519630
3823525429
3823530067
3823537880
3823543251
3823548256
3823552772
3823558754
3823564125
3823571510
3823576088
3823582801
3823588661
3823595680
3823601539
3823606178
3823611915
3823616981
3823623573
3823627662
3823635108
3823640968
3823646400
3823652259
3823658302
3823664222
3823668983
3823674964
3823681129
3823686073
3823692725
3823697303
3823703895
3823709327
3823714393
3823721534
3823726722
3823732276
3823736243
3823742957
3823748756
3823754188
3823758216
3823764747
3823771888
3823776160
3823782203
3823788306
3823793616
3823799659
3823804603
3823809180
3823815650
3823820411
3823827735
3823832374
3823839209
3823844703
3823850989
3823858924
3823864905
3823870337
3823876380
3823881751
3823887061
3823893531
3823900428
3823906470
3823910742
3823917456
3823923072
3823928504
3823934302
3823940711
3823946326
3823950904
3823958045
3823962744
3823969519
3823974890
3823981055
3823988257
3823993872
3823999487
3824005408
3824011328
3824016089
3824023230
3824028479
3824033850
3824039160
3824045569
3824051428
3824057410
3824063147
3824069250
3824077490
3824084143
3824089209
3824094397
3824100195
3824105444
3824112707
3824118384
3824123877
3824129858
3824136206
3824141943
3824146093
3824152502
3824158361
3824164221
3824168982
3824175634
3824180334
3824187048
3824192480
3824199316
3824204870
3824211035
3824217077
3824222570
3824226660
3824232885
3824238867
3824244604
3824250219
3824256140
3824261022
3824267065
3824272985
3824277197
3824283605
3824289892
3824295446
3824300024
3824306249
3824310888
3824318273
3824323400
3824329565
3824334814
3824339941
3824345312
3824351659
3824357580
3824363012
3824368810
3824375158
3824380407
3824386693
3824393163
3824398168
3824404760
3824409521
3824416601
3824421300
3824427160
3824434362
3824439122
3824444494
3824450658
3824456212
3824464147
3824469823
3824475499
3824482030
3824486730
3824492650
3824497533
3824505162
3824510656
3824516149
3824521398
3824527196
3824533666
3824539647
3824543736
3824549535
3824554540
3824558141
3824563085
3824566319
3824570653
3824574010
3824578832
3824583531
3824588719
3824593297
3824597142
3824601964
3824606786
3824610509
3824615636
3824620091
3824624059
3824628026
3824632481
3824636876
3824640599
3824645360
3824649388
3824653783
3824658421
3824661595
3824666783
3824669774
3824674534
3824679600
3824683812
3824687718
3824692845
3824698155
3824701695
3824705479
3824709630
3824715977
3824720555
3824723546
3824728306
3824733128
3824737523
3824740757
3824747349
3824751683
3824756260
3824760350
3824764805
3824769444
3824772679
3824777317
3824782200
3824787022
3824791966
3824796727
3824800999
3824806553
3824811009
3824816319
3824822178
3824827244
3824833775
3824838413
3824844029
3824848789
3824853794
3824858311
3824864231
3824868748
3824873020
3824877659
3824880894
3824887547
3824891514
3824896580
3824902561
3824906956
3824910740
3824916966
3824921421
3824926121
3824930454
3824934238
3824938511
3824944126
3824949802
3824954868
3824958652
3824964695
3824969517
3824974705
3824979282
3824984714
3824989963
3824995029
3824999729
3825004856
3825009189
3825013462
3825018100
3825022495
3825027866
3825032016
3825038120
3825043003
3825047397
3825052646
3825056736
3825061863
3825066379
3825070285
3825075473
3825081333
3825086032
3825091770
3825095981
3825099399
3825105014
3825109043
3825114353
3825118076
3825122898
3825128025
3825132175
3825136875
3825141818
3825146701
3825151828
3825156040
3825161289
3825166171
3825171298
3825175266
3825180454
3825186862
3825191074
3825195956
3825201022
3825205966
3825210361
3825214755
3825220859
3825226535
3825232028
3825236362
3825241733
3825246066
3825251987
3825256320
3825261813
3825266513
3825272677
3825279025
3825283725
3825287936
3825292209
3825299228
3825303500
3825311007
3825315829
3825321567
3825327182
3825332004
3825337008
3825343112
3825348422
3825354464
3825359652
3825365573
3825370028
3825375277
3825381564
3825385531
3825391818
3825395724
3825402072
3825407504
3825413180
3825417025
3825422091
3825426974
3825433322
3825438815
3825443209
3825451144
3825455660
3825460299
3825466403
3825471468
3825478060
3825482882
3825488314
3825495150
3825499789
3825505831
3825509859
3825516146
3825519381
3825526705
3825530306
3825536349
3825542757
3825549532
3825554232
3825559298
3825564242
3825572665
3825578951
3825588839
3825594210
3825601473
3825606295
3825610323
3825617403
3825622286
3825629122
3825632418
3825639254
3825647677
3825651705
3825657442
3825661593
3825666597
3825672152
3825675020
3825681673
3825686861
3825693026
3825696871
3825703340
3825708467
3825712740
3825717256
3825723909
3825730928
3825735445
3825740206
3825745638
3825751680
3825756014
3825760408
3825764375
3825772798
3825778475
3825782686
3825789278
3825793733
3825796968
3825804048
3825809602
3825813631
3825819673
3825825594
3825830476
3825836458
3825840730
3825847627
3825851839
3825857881
3825863801
3825870820
3825875093
3825880586
3825887239
3825893953
3825899751
3825905610
3825910188
3825915803
3825923189
3825928254
3825935151
3825938813
3825946077
3825952119
3825958223
3825964570
3825972139
3825975862
3825982698
3825986665
3825992585
3825998017
3826007722
3826014924
3826019929
3826025483
3826032075
3826038972
3826044038
3826051545
3826057038
3826061982
3826069856
3826074494
3826081208
3826085664
3826093537
3826095551
3826104951
3826109406
3826116425
3826120454
3826131867
3826135651
3826141022
3826146455
3826151948
3826158539
3826164277
3826169709
3826174958
3826180878
3826186982
3826190278
3826197907
3826205903
3826211579
3826215485
3826222626
3826226838
3826232148
3826237885
3826243317
3826249604
3826255646
3826261017
3826266388
3826271943
3826277069
3826282441
3826286896
3826293061
3826299286
3826304901
3826310028
3826315155
3826319611
3826324433
3826330780
3826337250
3826341767
3826346588
3826353668
3826358612
3826364472
3826370392
3826378510
3826386078
3826391022
3826396027
3826402313
3826406769
3826412689
3826418304
3826423553
3826429413
3826434967
3826439545
3826443878
3826451935
3826457733
3826463104
3826468597
3826474518
3826478546
3826484894
3826489960
3826495880
3826501861
3826508209
3826513092
3826519806
3826524078
3826528473
3826534881
3826541046
3826546722
3826551239
3826555145
3826562286
3826566375
3826571746
3826576568
3826584014
3826589874
3826595367
3826600311
3826606781
3826610565
3826616668
3826623321
3826627288
3826634124
3826640106
3826644500
3826650787
3826655181
3826659210
3826666351
3826670562
3826676910
3826683746
3826688445
3826694000
3826699371
3826704803
3826710357
3826715789
3826720794
3826727203
3826734405
3826737823
3826744720
3826749663
3826754180
3826760528
3826764922
3826769927
3826777740
3826782073
3826786101
3826793548
3826799163
3826803618
3826806914
3826814422
3826821380
3826826262
3826831633
3826836699
3826842559
3826849212
3826855010
3826860503
3826866423
3826871917
3826876616
3826882964
3826888762
3826894194
3826899199
3826905913
3826911467
3826917388
3826922331
3826927214
3826931731
3826938506
3826943144
3826947600
3826955962
3826961028
3826966826
3826972563
3826978117
3826983977
3826988432
3826993376
3826999358
3827005461
3827012175
3827017058
3827023100
3827029570
3827033293
3827039946
3827045256
3827050688
3827055876
3827065703
3827070891
3827075712
3827081450
3827085783
3827092741
3827099394
3827107145
3827113493
3827119169
3827123869
3827129301
3827133635
3827139311
3827145292
3827150236
3827156645
3827162504
3827166655
3827172575
3827176786
3827182402
3827188932
3827192961
3827202604
3827206755
3827213224
3827218595
3827222868
3827226347
3827234037
3827239713
3827245634
3827249784
3827255399
3827260832
3827266386
3827269743
3827277006
3827284330
3827290800
3827296232
3827301054
3827306364
3827312467
3827318204
3827322904
3827327970
3827334928
3827341459
3827347562
3827351774
3827355985
3827363615
3827369108
3827373929
3827379545
3827386136
3827390897
3827397184
3827402006
3827406949
3827411100
3827417203
3827424466
3827431730
3827436612
3827443082
3827448575
3827456937
3827462247
3827470304
3827476834
3827483426
3827488431
3827495755
3827500638
3827505460
3827513822
3827520474
3827526456
3827531522
3827539700
3827543973
3827549527
3827554837
3827561246
3827566434
3827571927
3827577054
3827583707
3827589810
3827597134
3827602261
3827607938
3827612637
3827617093
3827626675
3827632046
3827638882
3827646390
3827651761
3827657254
3827663235
3827668484
3827676114
3827680630
3827688260
3827694302
3827700039
3827705899
3827712124
3827717129
3827721768
3827728177
3827733548
3827739773
3827744534
3827748745
3827754361
3827760403
3827763821
3827769741
3827775540
3827782620
3827787442
3827793850
3827799465
3827805630
3827811062
3827816738
3827821377
3827825405
3827832424
3827836514
3827842190
3827847744
3827853237
3827858730
3827864468
3827871243
3827876736
3827881924
3827887417
3827894436
3827898525
3827904995
3827910549
3827916347
3827924099
3827930324
3827934414
3827939846
3827945766
3827951565
3827954922
3827961147
3827967739
3827973659
3827979946
3827984401
3827988674
3827994838
3827999538
3828003200
3828012050
3828018276
3828022915
3828028591
3828034267
3828039638
3828044887
3828052272
3828056789
3828062221
3828069057
3828073452
3828079128
3828084804
3828089626
3828094142
3828099636
3828105556
3828110927
3828116237
3828121425
3828127040
3828132594
3828137538
3828142909
3828149623
3828155238
3828161281
3828166286
3828172206
3828176845
3828182765
3828187587
3828193813
3828201198
3828205470
3828211757
3828215724
3828222011
3828229091
3828233668
3828239345
3828245387
3828252650
3828259913
3828266261
3828271083
3828276332
3828283046
3828288783
3828295009
3828302638
3828307948
3828313075
3828318629
3828324855
3828329921
3828334315
3828340297
3828345057
3828351832
3828356410
3828360316
3828367091
3828372462
3828376673
3828382289
3828387477
3828394679
3828401026
3828406703
3828412013
3828417384
3828422877
3828427821
3828433985
3828439906
3828444544
3828449244
3828455897
3828460413
3828465662
3828470606
3828475855
3828483302
3828488490
3828492884
3828500330
3828506434
3828513392
3828518641
3828525355
3828530970
3828539820
3828545557
3828552149
3828555994
3828562464
3828567347
3828573878
3828580774
3828586817
3828591639
3828597437
3828602381
3828607447
3828611658
3828618372
3828624964
3828629297
3828637049
3828642115
3828648157
3828652369
3828658960
3828664270
3828668665
3828674097
3828680750
3828684351
3828690332
3828695032
3828700586
3828705042
3828711389
3828717249
3828723596
3828729822
3828734705
3828740991
3828745569
3828750696
3828756128
3828762720
3828768457
3828775415
3828780725
3828785730
3828792444
3828797205
3828803491
3828807886
3828814355
3828822778
3828829126
3828833520
3828841821
3828847192
3828853784
3828860376
3828865137
3828870325
3828876367
3828881128
3828887170
3828892358
3828897790
3828902002
3828906274
3828914148
3828920434
3828926721
3828931360
3828938745
3828942834
3828948754
3828954553
3828959802
3828966821
3828972070
3828977441
3828982629
3828987512
3828993737
3828998803
3829003503
3829010217
3829014916
3829021325
3829026452
3829030725
3829037194
3829041589
3829047814
3829052331
3829058740
3829063439
3829067529
3829074365
3829079858
3829084313
3829089562
3829095177
3829102196
3829108056
3829111718
3829118249
3829122948
3829130151
3829135461
3829139733
3829147301
3829152550
3829157189
3829161156
3829168480
3829174279
3829178429
3829184228
3829188744
3829194176
3829200036
3829205468
3829210228
3829215477
3829220787
3829225731
3829231163
3829238915
3829244530
3829249291
3829254479
3829258812
3829264916
3829269249
3829275536
3829281700
3829287865
3829292321
3829296837
3829302391
3829307945
3829313683
3829316979
3829323815
3829329552
3829335411
3829340660
3829347191
3829352684
3829357811
3829363976
3829369469
3829376122
3829382713
3829387352
3829391685
3829397667
3829404198
3829409935
3829415733
3829422142
3829427940
3829434471
3829439293
3829445640
3829449791
3829455650
3829461754
3829466575
3829472740
3829479698
3829485924
3829490989
3829496971
3829502403
3829506614
3829512169
3829517418
3829523460
3829529686
3829533287
3829538841
3829543785
3829550315
3829555137
3829561058
3829568382
3829575340
3829581871
3829587730
3829592674
3829597801
3829602195
3829608238
3829612693
3829616783
3829624961
3829632652
3829637107
3829640403
3829648338
3829651756
3829658714
3829664512
3829669700
3829674461
3829680320
3829685386
3829692039
3829696738
3829701865
3829706382
3829714744
3829720664
3829727195
3829732505
3829739402
3829744651
3829750632
3829756858
3829762717
3829768577
3829772239
3829777915
3829782432
3829786216
3829789939
3829798301
3829804770
3829809897
3829815329
3829819114
3829825583
3829829551
3829833884
3829839865
3829844199
3829851157
3829855551
3829860678
3829865744
3829869834
3829875327
3829880027
3829888022
3829894126
3829899680
3829904135
3829908774
3829913596
3829917929
3829923911
3829928488
3829936118
3829942648
3829948020
3829952292
3829955588
3829962363
3829967978
3829973349
3829980185
3829986777
3829992514
3829999289
3830004965
3830010275
3830016806
3830021750
3830026633
3830033224
3830038595
3830044333
3830050925
3830057638
3830061911
3830068686
3830074545
3830080954
3830086264
3830092001
3830097311
3830102011
3830107870
3830113791
3830119955
3830124899
3830129904
3830136007
3830141623
3830146627
3830152975
3830157797
3830162924
3830170492
3830174459
3830180624
3830186422
3830190878
3830196310
3830202047
3830210653
3830216146
3830222006
3830227255
3830231893
3830238729
3830244833
3830247030
3830254476
3830261617
3830268087
3830273946
3830279195
3830284872
3830290304
3830296041
3830302023
3830307577
3830314291
3830319295
3830324483
3830329000
3830335470
3830339620
3830343587
3830351400
3830356038
3830363241
3830366964
3830374715
3830378621
3830387044
3830392415
3830397420
3830404134
3830412679
3830417562
3830422933
3830429158
3830433492
3830439473
3830445333
3830450338
3830456990
3830463765
3830469075
3830474324
3830479085
3830483663
3830491414
3830495809
3830502461
3830509053
3830514668
3830520528
3830525899
3830531819
3830537740
3830542378
3830549642
3830554768
3830560201
3830566670
3830571309
3830577168
3830584065
3830590108
3830596028
3830602559
3830608601
3830616475
3830621663
3830628071
3830633565
3830639851
3830644490
3830649190
3830657063
3830664387
3830669331
3830673482
3830681172
3830685078
3830691975
3830695332
3830701985
3830707783
3830713948
3830717427
3830723103
3830728047
3830734455
3830739155
3830745930
3830751728
3830756672
3830763691
3830770466
3830776326
3830782368
3830787312
3830792317
3830798298
3830804280
3830810749
3830815449
3830821797
3830827412
3830833332
3830840229
3830844624
3830852192
3830858234
3830863728
3830868244
3830876850
3830880939
3830889545
3830893269
3830900043
3830905292
3830913349
3830917683
3830924641
3830928669
3830934833
3830938190
3830944843
3830950397
3830956745
3830961628
3830967731
3830972431
3830976703
3830982197
3830987201
3830992023
3830998371
3831004657
3831008625
3831013813
3831019306
3831024921
3831030536
3831035480
3831042377
3831048420
3831053791
3831058979
3831065204
3831071369
3831075946
3831081806
3831086872
3831094318
3831100421
3831104022
3831111164
3831116229
3831122394
3831127216
3831132404
3831139057
3831143878
3831151264
3831155963
3831162067
3831168597
3831174518
3831178424
3831184528
3831189899
3831197650
3831205646
3831211261
3831219745
3831226642
3831233356
3831243732
3831250262
3831253131
3831266192
3831273028
3831280597
3831289325
3831298907
3831306781
3831313800
3831321307
3831331622
3831338702
3831345050
3831351641
3831357806
3831365313
3831370928
3831377520
3831384478
3831391009
3831397296
3831405169
3831412921
3831420245
3831425005
3831433306
3831440081
3831447100
3831455828
3831465167
3831473833
3831478838
3831485857
3831491961
3831499285
3831505328
3831513201
3831518877
3831527666
3831534441
3831540667
3831546831
3831555437
3831560442
3831570452
3831574785
3831581011
3831589312
3831599932
3831607134
3831614519
3831620745
3831627275
3831633562
3831641741
3831650591
3831658647
3831665544
3831673174
3831681719
3831684343
3831693682
3831701921
3831707414
3831714189
3831722246
3831729204
3831734575
3831742876
3831749895
3831757402
3831763811
3831770464
3831778886
3831785905
3831793779
3831802324
3831810136
3831817094
3831822710
3831831499
3831838518
3831841630
3831852556
3831858415
3831864396
3831872575
3831880571
3831887040
3831893144
3831901811
3831906816
3831915605
3831922197
3831929521
3831936540
3831943498
3831951982
3831959184
3831965837
3831971757
3831979936
3831986283
3831993608
3831999589
3832008683
3832018083
3832024980
3832029618
3832039445
3832044816
3832054093
3832061662
3832068314
3832076310
3832086381
3832095353
3832100236
3832108720
3832115739
3832121415
3832127885
3832136246
3832142411
3832151444
3832159989
3832166398
3832172318
3832181839
3832187394
3832196000
3832202591
3832209000
3832215897
3832222367
3832231217
3832236405
3832244522
3832251358
3832257340
3832263871
3832272415
3832278763
3832288956
3832296341
3832302628
3832310990
3832317093
3832321976
3832331558
3832336746
3832344498
3832351944
3832360611
3832366470
3832374893
3832381424
3832388443
3832398392
3832404556
3832413650
3832421402
3832428482
3832438431
3832444046
3832452713
3832459976
3832468826
3832475418
3832481888
3832487991
3832496902
3832509048
3832517471
3832524185
3832531875
3832535537
3832544754
3832553604
3832560806
3832570510
3832577835
3832584426
3832590652
3832597427
3832604751
3832613174
3832617629
3832623855
3832632217
3832641677
3832648574
3832655776
3832662734
3832669448
3832675430
3832682632
3832689834
3832697158
3832704177
3832710769
3832719314
3832724746
3832731826
3832738662
3832747207
3832753676
3832759109
3832766738
3832775649
3832782363
3832791152
3832797011
3832803481
3832810988
3832818129
3832824782
3832830703
3832838576
3832847670
3832855483
3832859694
3832867385
3832873976
3832882033
3832888014
3832895339
3832898390
3832908278
3832915236
3832927565
3832932753
3832940382
3832947707
3832954665
3832963454
3832969740
3832978407
3832987624
3832994154
3833001112
3833008803
3833015272
3833021681
3833029310
3833036818
3833043287
3833051039
3833057753
3833065748
3833070570
3833077589
3833083204
3833091139
3833096205
3833102980
3833107985
3833115370
3833120131
3833123548
3833130873
3833136366
3833141554
3833146498
3833151380
3833160353
3833165602
3833170729
3833177870
3833184339
3833191725
3833196913
3833204237
3833211134
3833215223
3833221021
3833226637
3833231947
3833237684
3833244581
3833247083
3833254896
3833263563
3833269544
3833273939
3833280469
3833284498
3833290235
3833296888
3833301954
3833308607
3833314710
3833319715
3833325696
3833330518
3833335950
3833340406
3833346204
3833350843
3833358472
3833363599
3833368238
3833375318
3833379773
3833387464
3833392835
3833398633
3833404676
3833411695
3833415113
3833421888
3833427320
3833432080
3833436353
3833440320
3833447766
3833452039
3833459607
3833463697
3833469007
3833474988
3833481153
3833484632
3833490613
3833497327
3833503186
3833508069
3833514783
3833519605
3833525220
3833529431
3833534741
3833542065
3833547986
3833552502
3833556775
3833564160
3833570325
3833576245
3833582165
3833587048
3833593030
3833600720
3833606091
3833611462
3833617322
3833621960
3833626843
3833632092
3833638745
3833643994
3833648144
3833655102
3833660962
3833666516
3833672986
3833678479
3833686535
3833692700
3833698620
3833703137
3833708630
3833715222
3833720410
3833727185
3833733532
3833740063
3833744824
3833749829
3833754528
3833760388
3833766613
3833770886
3833775463
3833782177
3833786816
3833793469
3833797802
3833802136
3833809704
3833814404
3833821056
3833828442
3833833447
3833838818
3833844189
3833848888
3833856152
3833861767
3833868420
3833873547
3833877941
3833887157
3833893505
3833898327
3833905102
3833910107
3833914989
3833921825
3833928478
3833933056
3833939037
3833943432
3833948803
3833957775
3833964367
3833970897
3833975902
3833982921
3833986828
3833992931
3833999523
3834005382
3834010570
3834015270
3834022777
3834027416
3834031688
3834038585
3834044506
3834049449
3834055431
3834059703
3834065807
3834073986
3834077587
3834084300
3834089488
3834095104
3834099925
3834104198
3834112621
3834117137
3834123729
3834127696
3834135448
3834139171
3834145946
3834151195
3834156688
3834162486
3834170787
3834178538
3834184703
3834189464
3834195811
3834200694
3834204417
3834214183
3834219249
3834226634
3834230601
3834236339
3834242320
3834248851
3834252147
3834258983
3834266185
3834271617
3834276439
3834281688
3834286448
3834292247
3834297618
3834303660
3834308238
3834314952
3834319957
3834326792
3834331126
3834336741
3834341197
3834347056
3834352366
3834358409
3834363902
3834368601
3834374034
3834378977
3834384532
3834388743
3834395091
3834400157
3834406870
3834412364
3834419199
3834424326
3834428416
3834436350
3834440134
3834446604
3834453928
3834460581
3834466318
3834473948
3834479990
3834485972
3834493052
3834499766
3834504099
3834510081
3834516611
3834522288
3834527720
3834531870
3834536631
3834542063
3834546885
3834554514
3834560312
3834565195
3834569895
3834577158
3834582102
3834585703
3834592905
3834599802
3834605661
3834611032
3834617258
3834622324
3834627756
3834632822
3834639658
3834644846
3834651560
3834656504
3834660166
3834668161
3834671823
3834679270
3834684641
3834690744
3834697946
3834703928
3834708811
3834714670
3834719675
3834726938
3834731699
3834737863
3834744272
3834751047
3834756174
3834761606
3834765817
3834770639
3834777048
3834783823
3834790292
3834794992
3834803354
3834808176
3834814035
3834819162
3834825509
3834831308
3834837228
3834842355
3834850229
3834855478
3834860971
3834866830
3834872934
3834878427
3834881906
3834888498
3834894540
3834901498
3834905221
