3713935682
3713941603
3713947645
3713952772
3713958204
3713963453
3713968885
3713974317
3713980482
3713986036
3713992201
3713999281
3714005384
3714010755
3714016432
3714022291
3714029371
3714035719
3714040662
3714047254
3714054639
3714060438
3714065992
3714073682
3714080579
3714086134
3714093824
3714101514
3714107130
3714113477
3714121595
3714128736
3714138013
3714144971
3714152234
3714158948
3714167981
3714176465
3714183362
3714189527
3714198255
3714205518
3714212415
3714219617
3714227430
3714232740
3714240186
3714249036
3714255933
3714263318
3714268750
3714277600
3714287427
3714294873
3714303296
3714310986
3714317090
3714326550
3714332105
3714341260
3714347974
3714355420
3714361768
3714368909
3714375317
3714382336
3714390637
3714397900
3714406933
3714412427
3714420910
3714427502
3714435986
3714445813
3714452649
3714461804
3714469067
3714476025
3714484265
3714491833
3714497815
3714509411
3714513256
3714522961
3714529736
3714537548
3714547375
3714553540
3714566967
3714576916
3714585522
3714592358
3714601086
3714608288
3714613964
3714624401
3714632641
3714640026
3714648571
3714655102
3714666332
3714672375
3714681408
3714688122
3714695385
3714703564
3714713695
3714720714
3714728527
3714736767
3714744335
3714751049
3714759289
3714767162
3714775585
3714782604
3714790783
3714799083
3714804393
3714815319
3714823864
3714832286
3714841014
3714848644
3714856517
3714864452
3714872386
3714881725
3714888622
3714896678
3714905101
3714913707
3714922069
3714929088
3714938182
3714953319
3714961803
3714968028
3714976817
3714984996
3714991283
3714999827
3715006236
3715012828
3715022471
3715030284
3715038524
3715046275
3715053721
3715060985
3715068858
3715075755
3715083690
3715090464
3715099315
3715105723
3715113414
3715121775
3715128733
3715135264
3715143565
3715151866
3715160227
3715165660
3715173106
3715181223
3715188731
3715196909
3715204112
3715212962
3715219737
3715226389
3715234141
3715241770
3715251048
3715258616
3715267527
3715272898
3715281565
3715288767
3715294993
3715302378
3715310557
3715316965
3715324900
3715331431
3715339670
3715347483
3715353098
3715359812
3715367746
3715376108
3715384165
3715391245
3715399485
3715406565
3715414072
3715421091
3715428415
3715437021
3715444712
3715450998
3715457712
3715465708
3715473398
3715482065
3715492197
3715499460
3715506113
3715513925
3715520700
3715527719
3715534616
3715543039
3715549631
3715557504
3715565500
3715571786
3715579721
3715585519
3715596628
3715605661
3715613840
3715619760
3715626474
3715635507
3715644296
3715649728
3715660531
3715669870
3715676706
3715683114
3715691476
3715698861
3715705148
3715712960
3715720956
3715728891
3715734445
3715743356
3715750863
3715758737
3715766244
3715775033
3715781320
3715789864
3715795907
3715804452
3715809640
3715818124
3715828194
3715833138
3715840951
3715849679
3715856515
3715864083
3715871835
3715879464
3715887154
3715894906
3715902169
3715909005
3715916329
3715923714
3715930794
3715939217
3715947762
3715955697
3715964730
3715972176
3715979866
3715987069
3715994454
3716002144
3716009957
3716017525
3716023262
3716031807
3716039009
3716046334
3716056282
3716062935
3716069222
3716076363
3716085030
3716090828
3716099739
3716107552
3716114815
3716121468
3716130196
3716136116
3716143135
3716150825
3716157295
3716165352
3716173103
3716181221
3716188240
3716195076
3716202949
3716212654
3716220161
3716226326
3716233650
3716242866
3716249763
3716259163
3716266609
3716271919
3716278633
3716283882
3716290413
3716297248
3716302253
3716310859
3716318611
3716325813
3716334236
3716341499
3716347602
3716355598
3716361701
3716366584
3716372260
3716378120
3716384223
3716392097
3716398322
3716404487
3716409248
3716415900
3716421088
3716426887
3716433051
3716439033
3716445319
3716450813
3716458930
3716465034
3716471137
3716474799
3716481818
3716487617
3716493049
3716499824
3716505439
3716511725
3716516852
3716521125
3716529731
3716536078
3716542914
3716549506
3716555243
3716560737
3716567328
3716573432
3716578986
3716585334
3716592353
3716597602
3716605231
3716611640
3716616034
3716621649
3716629645
3716635626
3716641059
3716646674
3716652106
3716657538
3716663947
3716669745
3716675971
3716682440
3716687689
3716692511
3716699591
3716707343
3716711859
3716717719
3716724371
3716728156
3716735541
3716741034
3716746466
3716751959
3716758246
3716762823
3716770026
3716774969
3716785895
3716791510
3716797491
3716804083
3716811041
3716817450
3716826300
3716831732
3716839178
3716845099
3716850470
3716858526
3716863226
3716870245
3716875921
3716881537
3716887518
3716894598
3716899176
3716905401
3716912176
3716917913
3716924627
3716929632
3716937384
3716942572
3716947943
3716953802
3716959234
3716964971
3716971319
3716976385
3716981939
3716988287
3716993475
3716999517
3717007635
3717013799
3717021612
3717028570
3717032598
3717038763
3717046636
3717050420
3717058172
3717062933
3717069341
3717076421
3717080755
3717088933
3717093572
3717099615
3717105596
3717110906
3717117071
3717123906
3717128423
3717134466
3717141546
3717146489
3717151433
3717157598
3717163762
3717169988
3717175969
3717180852
3717186956
3717192693
3717199834
3717204351
3717210759
3717216741
3717221746
3717228520
3717236028
3717242009
3717247624
3717253606
3717258733
3717264775
3717270940
3717276433
3717282353
3717288579
3717294866
3717302190
3717307195
3717313176
3717318974
3717325505
3717330205
3717337041
3717343510
3717348454
3717355473
3717360234
3717367741
3717372807
3717378117
3717384831
3717390935
3717396672
3717401311
3717407719
3717412785
3717420415
3717425358
3717432133
3717438969
3717443364
3717449467
3717456059
3717460576
3717466801
3717474064
3717479557
3717485112
3717492436
3717497441
3717505497
3717513310
3717518742
3717524723
3717528813
3717536381
3717541325
3717547734
3717552799
3717558903
3717564152
3717570622
3717577702
3717582035
3717589909
3717595158
3717603581
3717607426
3717614262
3717619877
3717625858
3717631779
3717637394
3717644535
3717651432
3717656559
3717661381
3717668034
3717672611
3717679325
3717685367
3717691471
3717696415
3717702579
3717708256
3717713688
3717719974
3717726139
3717731449
3717737613
3717742862
3717748417
3717753605
3717758609
3717765140
3717771732
3717777897
3717782779
3717788822
3717794864
3717799198
3717806034
3717812442
3717825199
3717831485
3717836307
3717843509
3717848514
3717853763
3717859805
3717865116
3717870059
3717876102
3717881900
3717886295
3717892032
3717899051
3717904422
3717909671
3717915469
3717922000
3717926944
3717932071
3717937930
3717944888
3717951541
3717956424
3717963260
3717967471
3717974612
3717979007
3717986392
3717992007
3717997439
3718002933
3718008304
3718013797
3718020328
3718025638
3718035098
3718040652
3718046817
3718053347
3718058902
3718063784
3718070376
3718076175
3718082034
3718086184
3718093081
3718098025
3718104800
3718110049
3718115908
3718120852
3718126895
3718132510
3718138674
3718144045
3718149356
3718154482
3718160098
3718166445
3718171389
3718177310
3718182803
3718189211
3718195803
3718200930
3718207461
3718212466
3718218325
3718224184
3718228213
3718238039
3718242922
3718249697
3718255617
3718262942
3718269289
3718275698
3718280947
3718286867
3718291811
3718297671
3718303164
3718309389
3718314577
3718321901
3718327639
3718334414
3718341005
3718348330
3718353396
3718358828
3718365053
3718369692
3718375612
3718382875
3718388735
3718393862
3718399660
3718405947
3718412050
3718416506
3718422853
3718430361
3718435549
3718441469
3718447512
3718453249
3718457948
3718465700
3718471742
3718476259
3718481569
3718487795
3718494142
3718497987
3718506105
3718512575
3718518007
3718524477
3718530885
3718537721
3718545717
3718550722
3718556276
3718562135
3718568300
3718574647
3718579835
3718585451
3718590455
3718597291
3718601991
3718607057
3718613160
3718618715
3718624208
3718629152
3718635255
3718640870
3718646364
3718652040
3718657838
3718664308
3718668946
3718675477
3718679994
3718686586
3718691407
3718697877
3718703614
3718709962
3718716188
3718722718
3718727967
3718733094
3718739747
3718745545
3718751893
3718756837
3718762940
3718769227
3718773255
3718780030
3718786195
3718792970
3718797303
3718804017
3718808411
3718814942
3718820618
3718827576
3718836732
3718843262
3718846986
3718854371
3718860108
3718866090
3718870484
3718877503
3718881043
3718886902
3718893677
3718899048
3718906190
3718912171
3718916382
3718921937
3718927369
3718933289
3718939087
3718944031
3718950257
3718955872
3718960511
3718967102
3718972351
3718977600
3718983338
3718989869
3718996827
3719001526
3719008057
3719013306
3719019532
3719024231
3719030213
3719036255
3719042908
3719050171
3719054871
3719061768
3719068115
3719073120
3719078735
3719084412
3719089600
3719095154
3719100403
3719105652
3719112244
3719117676
3719122986
3719129517
3719134644
3719140015
3719146423
3719151794
3719156677
3719162842
3719168823
3719173706
3719179626
3719185547
3719191894
3719197143
3719203613
3719208801
3719213867
3719220337
3719225036
3719231689
3719235779
3719242309
3719248108
3719254089
3719258850
3719264892
3719270996
3719276672
3719283142
3719287963
3719295044
3719299865
3719306396
3719311584
3719317626
3719322509
3719331298
3719336547
3719342346
3719349121
3719355590
3719362487
3719370178
3719375305
3719381896
3719386291
3719393188
3719398437
3719404540
3719409789
3719415893
3719422973
3719428405
3719433654
3719439025
3719445556
3719450133
3719456603
3719462218
3719466979
3719473205
3719479369
3719484008
3719490233
3719496642
3719500670
3719507812
3719512023
3719518493
3719524840
3719529967
3719535033
3719541503
3719547179
3719553344
3719558226
3719564391
3719570556
3719576354
3719582274
3719590270
3719597167
3719602965
3719609069
3719615172
3719620726
3719626952
3719633055
3719638243
3719643798
3719650450
3719656249
3719661070
3719666991
3719673155
3719678710
3719684874
3719689330
3719695372
3719701415
3719706908
3719712340
3719717772
3719725462
3719738707
3719744139
3719750059
3719754088
3719760924
3719767393
3719771666
3719777830
3719783934
3719789549
3719796202
3719801512
3719807615
3719812437
3719817625
3719823546
3719828062
3719834105
3719840941
3719846434
3719851805
3719857786
3719863035
3719868956
3719876829
3719883116
3719887999
3719896055
3719901548
3719906736
3719912229
3719918333
3719924925
3719929380
3719934812
3719940672
3719945799
3719951414
3719957578
3719963255
3719968931
3719974912
3719979307
3719984922
3719990781
3719995725
3720001463
3720006406
3720012022
3720017698
3720022825
3720027708
3720033689
3720039976
3720045774
3720050169
3720055051
3720062253
3720067930
3720072690
3720080137
3720086423
3720093748
3720100950
3720107175
3720113767
3720119871
3720125547
3720131711
3720136289
3720143186
3720148984
3720154477
3720160459
3720166806
3720171689
3720178098
3720184873
3720190305
3720195554
3720201535
3720207334
3720212155
3720218564
3720225095
3720231015
3720236875
3720242856
3720248166
3720255856
3720261716
3720266049
3720272092
3720277402
3720284543
3720289426
3720295773
3720301328
3720308225
3720314267
3720320981
3720326169
3720332700
3720337643
3720342160
3720348752
3720355771
3720361325
3720367734
3720374203
3720379086
3720387631
3720393918
3720400632
3720405697
3720411679
3720417233
3720423092
3720429501
3720434506
3720441098
3720446957
3720453183
3720458859
3720464169
3720470761
3720475216
3720481198
3720487789
3720493161
3720499508
3720505917
3720512020
3720517819
3720523190
3720528622
3720536007
3720541805
3720545773
3720554135
3720560116
3720566342
3720571774
3720577999
3720585262
3720592892
3720598934
3720605221
3720611568
3720616146
3720623470
3720629147
3720634579
3720640133
3720645382
3720651607
3720657284
3720663082
3720668209
3720675533
3720680416
3720686642
3720692806
3720697628
3720703609
3720709408
3720713558
3720720821
3720726192
3720731563
3720737728
3720743099
3720749691
3720754940
3720761715
3720768001
3720772701
3720778865
3720783626
3720789730
3720796443
3720800655
3720808223
3720813350
3720818660
3720825008
3720830318
3720835689
3720840999
3720847286
3720853694
3720858638
3720864681
3720870967
3720876460
3720881526
3720887752
3720896480
3720901912
3720908565
3720915523
3720921260
3720926448
3720930476
3720937801
3720942805
3720949275
3720953914
3720959407
3720965144
3720971797
3720977962
3720984065
3720988948
3720994929
3721000422
3721005977
3721011653
3721018550
3721023921
3721029170
3721035701
3721041987
3721046809
3721053218
3721057978
3721064387
3721070613
3721076716
3721081111
3721088618
3721092768
3721099604
3721105342
3721112116
3721117549
3721124446
3721131770
3721136530
3721142939
3721147029
3721155146
3721160517
3721165949
3721170832
3721177546
3721183344
3721189326
3721194453
3721200678
3721206294
3721212092
3721217280
3721223261
3721228388
3721234675
3721241572
3721245905
3721252375
3721258295
3721262995
3721268488
3721274409
3721281794
3721287287
3721292292
3721298945
3721304133
3721310724
3721315424
3721321772
3721327814
3721331965
3721338007
3721344233
3721350092
3721355219
3721361322
3721368280
3721373041
3721379572
3721385004
3721391291
3721395502
3721401361
3721407770
3721413019
3721419916
3721424982
3721432184
3721438043
3721445001
3721452326
3721457880
3721464227
3721469721
3721476373
3721480951
3721487604
3721491876
3721498407
3721504388
3721510919
3721515131
3721521173
3721527826
3721533563
3721541193
3721546075
3721553033
3721558221
3721564325
3721569879
3721574457
3721581048
3721587213
3721592767
3721598199
3721603937
3721609918
3721615106
3721620965
3721628045
3721632379
3721639032
3721645074
3721649713
3721656182
3721663140
3721670404
3721676934
3721683404
3721689263
3721695489
3721700860
3721707025
3721712335
3721718560
3721723992
3721729852
3721735345
3721740472
3721747064
3721753350
3721759637
3721764153
3721770318
3721775079
3721781121
3721787896
3721793450
3721799981
3721805352
3721810540
3721815728
3721822320
3721827569
3721833672
3721838921
3721845330
3721850335
3721856499
3721863335
3721869012
3721874138
3721879876
3721886712
3721892388
3721897576
3721902825
3721909356
3721915032
3721921013
3721926445
3721932244
3721938591
3721944146
3721950188
3721955986
3721963066
3721971306
3721977166
3721984001
3721990593
3721994683
3722001091
3722006645
3722013542
3722018913
3722025505
3722030083
3722036553
3722041985
3722047966
3722052544
3722059929
3722065361
3722069450
3722076653
3722080925
3722088127
3722093926
3722100578
3722104912
3722111687
3722116753
3722122734
3722127373
3722133537
3722141167
3722146782
3722152214
3722158012
3722163139
3722168571
3722175163
3722179802
3722186210
3722192436
3722197868
3722205009
3722210441
3722216667
3722222709
3722230339
3722235893
3722242485
3722247978
3722253227
3722259391
3722264152
3722270439
3722276542
3722281242
3722287651
3722294303
3722299919
3722305107
3722310783
3722317314
3722322929
3722327690
3722333915
3722340019
3722345939
3722350089
3722357414
3722363090
3722368583
3722374137
3722379447
3722385246
3722392020
3722396598
3722403251
3722409049
3722415214
3722419974
3722426139
3722431632
3722437125
3722444572
3722450492
3722455863
3722460380
3722466727
3722472159
3722478263
3722485282
3722490714
3722497245
3722502677
3722508292
3722514945
3722522147
3722527335
3722533622
3722540213
3722546195
3722551505
3722557669
3722562979
3722568961
3722575614
3722579642
3722586417
3722592337
3722597037
3722603018
3722609183
3722615103
3722621207
3722626456
3722630789
3722637015
3722643668
3722649039
3722654532
3722661002
3722667105
3722671805
3722678091
3722683951
3722688162
3722694327
3722700491
3722706351
3722711233
3722716605
3722721426
3722727957
3722737173
3722744498
3722750601
3722756583
3722763785
3722769705
3722775259
3722782156
3722788199
3722793265
3722799429
3722804434
3722810660
3722817007
3722821158
3722828543
3722834341
3722839651
3722845510
3722850760
3722855825
3722862539
3722868460
3722874563
3722879812
3722885794
3722891653
3722897329
3722902151
3722908926
3722915518
3722919607
3722925405
3722932302
3722938040
3722942983
3722949148
3722955435
3722959768
3722965688
3722971792
3722975759
3722983144
3722988454
3722995168
3723000356
3723006460
3723012136
3723017446
3723022512
3723028249
3723040517
3723046682
3723053640
3723058217
3723064504
3723069875
3723074941
3723081350
3723085683
3723090688
3723096425
3723101308
3723108327
3723113454
3723118642
3723124929
3723129750
3723136342
3723142385
3723148610
3723153798
3723160146
3723165517
3723171376
3723176625
3723182729
3723188527
3723194020
3723201100
3723206288
3723210500
3723216908
3723222707
3723228383
3723234548
3723238454
3723244924
3723251637
3723258962
3723264882
3723270314
3723275624
3723282643
3723288625
3723294728
3723300343
3723306264
3723311452
3723315480
3723323048
3723328358
3723334889
3723340260
3723346486
3723351247
3723357350
3723362843
3723370961
3723378285
3723383473
3723388722
3723393788
3723400258
3723406666
3723412770
3723418690
3723424122
3723429554
3723435414
3723440663
3723447010
3723453724
3723458180
3723464772
3723470753
3723476857
3723481373
3723487599
3723494435
3723499928
3723505238
3723511524
3723517445
3723522511
3723527943
3723535023
3723540455
3723545521
3723550770
3723558094
3723563160
3723570301
3723577259
3723582874
3723588612
3723594715
3723600086
3723606068
3723611256
3723617054
3723623524
3723627735
3723634754
3723640247
3723646412
3723651356
3723657642
3723665272
3723670887
3723676075
3723681568
3723688343
3723694324
3723699268
3723705311
3723711292
3723715992
3723722095
3723728626
3723734119
3723739490
3723744983
3723751819
3723757557
3723762867
3723768238
3723773487
3723779285
3723786426
3723793445
3723803394
3723809436
3723814441
3723820911
3723827442
3723833301
3723838428
3723844104
3723850696
3723855579
3723860889
3723866504
3723873035
3723877795
3723884692
3723890674
3723896899
3723902515
3723907825
3723913745
3723919788
3723924976
3723930591
3723937060
3723942798
3723947375
3723952685
3723958606
3723965930
3723972766
3723978137
3723983203
3723989856
3723994006
3724000537
3724005420
3724013232
3724018481
3724023974
3724030383
3724034777
3724041125
3724046557
3724054553
3724059741
3724064746
3724071398
3724076892
3724082995
3724088427
3724095446
3724102526
3724107043
3724115710
3724120715
3724125964
3724131579
3724138049
3724144152
3724149035
3724155016
3724161120
3724165881
3724171984
3724177050
3724183276
3724190112
3724195788
3724201037
3724206835
3724212084
3724218127
3724223437
3724229296
3724234484
3724240649
3724246813
3724251513
3724257738
3724262621
3724268725
3724274096
3724280504
3724287523
3724293139
3724298388
3724304003
3724310473
3724316881
3724322619
3724329271
3724333544
3724341356
3724347277
3724352526
3724358568
3724363878
3724370287
3724375109
3724381090
3724387194
3724392504
3724398424
3724403185
3724409349
3724416185
3724421556
3724426744
3724432970
3724439073
3724443651
3724450304
3724456651
3724461717
3724467943
3724473253
3724479906
3724485826
3724490465
3724496568
3724503770
3724509447
3724514696
3724518785
3724526781
3724531663
3724538255
3724544420
3724549119
3724553941
3724560472
3724568101
3724574327
3724579576
3724585862
3724591234
3724596727
3724601915
3724607530
3724614305
3724618943
3724625535
3724631944
3724637254
3724643174
3724650010
3724657762
3724663438
3724668443
3724674302
3724681016
3724686387
3724692552
3724697129
3724704515
3724709703
3724713853
3724721360
3724726853
3724732163
3724738145
3724745591
3724750962
3724755540
3724762193
3724766953
3724772385
3724778550
3724784653
3724790208
3724796860
3724800950
3724808213
3724813279
3724818528
3724823960
3724830552
3724835129
3724841538
3724847703
3724852463
3724859604
3724868882
3724877305
3724884263
3724890122
3724896042
3724900681
3724906296
3724912888
3724919297
3724924118
3724929062
3724936264
3724940842
3724946518
3724952805
3724958786
3724963669
3724968308
3724974289
3724978989
3724983811
3724990219
3724995957
3725002182
3725006027
3725011276
3725016831
3725022446
3725028488
3725033798
3725039414
3725045456
3725050522
3725056015
3725060288
3725065903
3725072922
3725076889
3725084335
3725090744
3725097031
3725103622
3725108505
3725116074
3725122299
3725128342
3725133285
3725139877
3725146042
3725152328
3725158249
3725169418
3725175827
3725181259
3725187484
3725193161
3725198654
3725204147
3725210983
3725215744
3725222030
3725227646
3725232406
3725237960
3725243576
3725248581
3725254379
3725259872
3725266098
3725270309
3725276474
3725281723
3725287338
3725291976
3725297470
3725303390
3725309799
3725316085
3725321517
3725327255
3725333236
3725337020
3725344405
3725348739
3725355331
3725360519
3725367355
3725374191
3725380904
3725387496
3725391463
3725398666
3725403243
3725409408
3725415084
3725420638
3725425277
3725430831
3725438094
3725442367
3725449386
3725453414
3725459884
3725465621
3725472274
3725477279
3725484054
3725487960
3725494552
3725500106
3725506087
3725511214
3725517379
3725523970
3725530440
3725535750
3725540633
3725547042
3725552230
3725559005
3725564681
3725569564
3725574752
3725582625
3725588118
3725594039
3725599471
3725605025
3725610213
3725616316
3725621565
3725627547
3725634139
3725639082
3725645186
3725651228
3725657454
3725663252
3725668684
3725676558
3725682295
3725688033
3725694807
3725702986
3725708235
3725714400
3725719893
3725726057
3725730208
3725736189
3725742415
3725751387
3725757246
3725761763
3725767988
3725775129
3725779402
3725787214
3725791609
3725798079
3725802656
3725809248
3725814680
3725820906
3725827436
3725832930
3725838118
3725843489
3725850508
3725856001
3725861128
3725867109
3725873518
3725878950
3725883955
3725890303
3725896650
3725900434
3725907759
3725913862
3725919782
3725927534
3725934065
3725939192
3725944380
3725950483
3725957502
3725963239
3725968427
3725974226
3725980878
3725985273
3725991865
3725998395
3726004499
3726009504
3726015485
3726020429
3726026472
3726032453
3726038679
3726044111
3726049848
3726055036
3726061017
3726066144
3726071576
3726078107
3726082624
3726089338
3726094526
3726100873
3726105939
3726112104
3726118329
3726125287
3726131452
3726137067
3726141889
3726147504
3726153241
3726159772
3726163739
3726171308
3726176313
3726182538
3726187909
3726193769
3726199079
3726204877
3726211713
3726219342
3726224408
3726232282
3726238080
3726242230
3726248334
3726255292
3726259442
3726267316
3726272443
3726277570
3726283856
3726289288
3726294171
3726302594
3726307843
3726314191
3726319684
3726325055
3726331341
3726335614
3726343304
3726349469
3726354779
3726359418
3726365948
3726372052
3726376874
3726383893
3726388714
3726394085
3726400189
3726406414
3726412335
3726417584
3726424420
3726429669
3726435223
3726442181
3726446820
3726454205
3726459820
3726466595
3726471600
3726477581
3726483807
3726489300
3726494427
3726500225
3726506817
3726512127
3726518719
3726524822
3726529705
3726535198
3726541363
3726545940
3726552044
3726557720
3726563763
3726570232
3726574444
3726581768
3726587383
3726592449
3726598247
3726605205
3726610760
3726616924
3726621319
3726627544
3726632915
3726639141
3726646221
3726652263
3726657207
3726663494
3726669719
3726675091
3726679973
3726687237
3726693096
3726698162
3726703716
3726708965
3726714580
3726721111
3726725444
3726732647
3726737529
3726744121
3726749065
3726756206
3726762676
3726767436
3726775859
3726782207
3726788982
3726793682
3726800212
3726804790
3726811382
3726816448
3726822612
3726827556
3726833598
3726838481
3726844585
3726851177
3726855327
3726863628
3726869121
3726874492
3726879924
3726887004
3726893352
3726898173
3726903484
3726909526
3726914958
3726920878
3726927104
3726935588
3726941142
3726946208
3726953044
3726957988
3726965861
3726971415
3726975505
3726983134
3726989421
3726995646
3727001323
3727009684
3727014201
3727020243
3727026408
3727033061
3727039347
3727044169
3727050761
3727055583
3727061808
3727068766
3727072856
3727080607
3727085368
3727091899
3727096171
3727102763
3727107340
3727113932
3727119303
3727125285
3727130351
3727136759
3727143046
3727149332
3727154398
3727160624
3727168131
3727173197
3727179362
3727184855
3727190958
3727196940
3727202799
3727209330
3727213969
3727220804
3727226176
3727232035
3727236918
3727242533
3727250345
3727256571
3727261393
3727266215
3727272196
3727279093
3727283182
3727289652
3727298136
3727307901
3727315653
3727320658
3727326090
3727332499
3727338602
3727344583
3727349161
3727355387
3727361307
3727366312
3727372843
3727378153
3727382730
3727388651
3727393839
3727399515
3727406412
3727412882
3727418497
3727423197
3727428751
3727434671
3727441019
3727446085
3727452371
3727456827
3727463113
3727467569
3727473062
3727477640
3727485208
3727490884
3727500345
3727507547
3727511880
3727519998
3727525796
3727531717
3727537759
3727544412
3727548196
3727557107
3727563028
3727569131
3727576150
3727582742
3727587991
3727593484
3727599893
3727605142
3727611062
3727618997
3727624673
3727628457
3727635537
3727641030
3727647073
3727651406
3727658670
3727664590
3727670144
3727675271
3727681497
3727686379
3727692666
3727698037
3727702126
3727708047
3727714028
3727720132
3727723916
3727731606
3727736916
3727742898
3727749246
3727755044
3727761514
3727768288
3727775124
3727781533
3727785989
3727791909
3727797585
3727803017
3727808572
3727813698
3727817971
3727824135
3727829568
3727835061
3727841530
3727847512
3727853798
3727859353
3727866005
3727871010
3727876809
3727881752
3727887673
3727893471
3727898903
3727903420
3727911171
3727918007
3727922646
3727928078
3727934243
3727940163
3727947304
3727952614
3727959084
3727965431
3727970925
3727976357
3727983071
3727987587
3728003456
3728014443
3728023598
3728031227
3728039284
3728046730
3728055397
3728063515
3728070778
3728079018
3728086525
3728092567
3728098610
3728103920
3728109352
3728115761
3728121376
3728127174
3728132545
3728138466
3728144325
3728149879
3728155983
3728162758
3728168800
3728173927
3728180275
3728185280
3728190406
3728196144
3728203773
3728209816
3728213905
3728218422
3728223793
3728229713
3728234962
3728241004
3728247596
3728253211
3728258766
3728264991
3728271095
3728277076
3728282936
3728291786
3728298011
3728303748
3728308997
3728312538
3728321082
3728325355
3728331031
3728337867
3728343238
3728349342
3728355445
3728361793
3728368995
3728373817
3728380958
3728387000
3728392982
3728399451
3728405494
3728410865
3728414771
3728421607
3728427527
3728433448
3728438331
3728444861
3728450171
3728456702
3728463660
3728470008
3728475379
3728481910
3728487159
3728492408
3728498389
3728504371
3728508948
3728515967
3728521277
3728527381
3728534156
3728540381
3728545264
3728551001
3728557166
3728562781
3728568396
3728574500
3728578589
3728584876
3728590857
3728595679
3728602393
3728611243
3728617407
3728622534
3728628516
3728632849
3728638525
3728644629
3728650977
3728655615
3728661230
3728667212
3728672766
3728677954
3728685095
3728689551
3728695044
3728701392
3728708105
3728713904
3728718970
3728727087
3728734411
3728740454
3728745459
3728750097
3728757605
3728763220
3728769323
3728773962
3728780249
3728786413
3728791967
3728797949
3728803747
3728809729
3728815039
3728820898
3728826147
3728831823
3728836523
3728843725
3728851171
3728857092
3728862890
3728868139
3728873693
3728881628
3728888098
3728893469
3728899694
3728905432
3728910009
3728917211
3728923742
3728930639
3728936987
3728942175
3728946752
3728952428
3728959081
3728964452
3728971166
3728977026
3728982885
3728989294
3728995702
3729000524
3729005468
3729012792
3729019445
3729024999
3729030309
3729036230
3729041051
3729048253
3729056066
3729062597
3729068273
3729076024
3729082738
3729089086
3729094579
3729100927
3729106359
3729112157
3729119603
3729124608
3729131139
3729138280
3729143651
3729150670
3729157018
3729163182
3729170201
3729175328
3729181005
3729185887
3729192296
3729198033
3729204259
3729211766
3729215978
3729222264
3729227940
3729232945
3729238622
3729243810
3729248326
3729252660
3729259862
3729265538
3729270604
3729276219
3729279942
3729286534
3729290379
3729298985
3729304295
3729310033
3729315953
3729321263
3729325291
3729330784
3729337742
3729342564
3729348546
3729354344
3729360570
3729366368
3729373448
3729378941
3729383763
3729389744
3729395298
3729401280
3729406346
3729412693
3729420750
3729425328
3729431370
3729437107
3729441624
3729447850
3729453343
3729456883
3729463841
3729469151
3729474949
3729479710
3729484471
3729490635
3729496739
3729502781
3729507664
3729513523
3729517796
3729523472
3729530003
3729533970
3729540745
3729546482
3729551426
3729557713
3729562168
3729568516
3729572788
3729577793
3729586521
3729591587
3729595371
3729601047
3729606663
3729612949
3729615513
3729624119
3729629612
3729635349
3729640903
3729646030
3729651462
3729656955
3729662449
3729668003
3729674106
3729680393
3729684909
3729692539
3729699680
3729705539
3729712436
3729719333
3729725498
3729731540
3729737766
3729742832
3729748874
3729753879
3729759922
3729767063
3729772495
3729778781
3729783969
3729790500
3729796604
3729800693
3729808017
3729812839
3729819736
3729825473
3729831088
3729836276
3729842624
3729848727
3729855685
3729860995
3729868320
3729873508
3729879306
3729885776
3729891391
3729897372
3729903354
3729910434
3729916537
3729924228
3729930026
3729934421
3729941073
3729947665
3729952731
3729960421
3729966708
3729971347
3729977023
3729983676
3729990146
3729994662
3730000399
3730006503
3730012484
3730018771
3730025119
3730030978
3730037387
3730043185
3730048251
3730054537
3730060153
3730065463
3730072421
3730077792
3730082186
3730089877
3730095492
3730101534
3730107638
3730113925
3730119662
3730125643
3730130892
3730137057
3730143649
3730148714
3730154147
3730159884
3730165133
3730171908
3730178377
3730184664
3730191317
3730195833
3730203951
3730210238
3730216219
3730221651
3730227450
3730234347
3730239901
3730245211
3730251009
3730256868
3730262179
3730268587
3730274935
3730280916
3730286104
3730291903
3730298189
3730304232
3730310152
3730315218
3730322603
3730328829
3730334139
3730338900
3730345919
3730351045
3730357820
3730364473
3730369966
3730376619
3730381319
3730388216
3730394624
3730401643
3730408540
3730415071
3730419710
3730426363
3730431368
3730437654
3730444734
3730449861
3730456270
3730462801
3730467928
3730474580
3730481905
3730486665
3730493684
3730499849
3730504182
3730510713
3730517732
3730524019
3730529085
3730536409
3730542817
3730546785
3730555208
3730559907
3730565339
3730571931
3730578218
3730583772
3730590059
3730596284
3730602632
3730608125
3730613740
3730619355
3730624971
3730630952
3730638154
3730643586
3730649568
3730654817
3730660005
3730668000
3730674226
3730685700
3730691377
3730696443
3730701814
3730707917
3730713166
3730721223
3730726106
3730732392
3730738374
3730743684
3730750153
3730755952
3730761384
3730768159
3730773530
3730779572
3730785493
3730792390
3730799409
3730804719
3730810883
3730815949
3730822846
3730829072
3730834870
3730841218
3730845978
3730851899
3730857819
3730864533
3730873444
3730881195
3730886628
3730892182
3730897614
3730904267
3730909882
3730914948
3730920014
3730925812
3730930451
3730937409
3730943085
3730949005
3730954071
3730958893
3730963654
3730969330
3730974518
3730980011
3730986359
3730991486
3730996979
3731002655
3731007172
3731014130
3731019806
3731024750
3731030182
3731034515
3731041473
3731046600
3731052765
3731058990
3731063446
3731068634
3731073883
3731079498
3731086151
3731092682
3731098053
3731104278
3731110443
3731116241
3731121490
3731130340
3731136383
3731143341
3731149933
3731156524
3731162994
3731168426
3731174102
3731178619
3731183746
3731188934
3731194549
3731201080
3731207428
3731213714
3731218109
3731224456
3731229034
3731236969
3731242767
3731248565
3731254547
3731260162
3731265289
3731273223
3731278900
3731284759
3731289825
3731293914
3731301421
3731307281
3731313323
3731318206
3731324065
3731330657
3731336944
3731341582
3731349273
3731355315
3731360992
3731367278
3731371368
3731379058
3731385100
3731389495
3731395293
3731402862
3731407622
3731413482
3731420379
3731426543
3731431426
3731438262
3731443267
3731449187
3731454863
3731463103
3731467986
3731474334
3731481231
3731485503
3731492278
3731498748
3731502898
3731509612
3731515166
3731520110
3731525847
3731532744
3731538176
3731544829
3731550078
3731555632
3731561675
3731566069
3731572051
3731578337
3731583403
3731589934
3731594939
3731602263
3731608366
3731619170
3731625822
3731630400
3731637114
3731641753
3731647856
3731652678
3731658354
3731665556
3731670378
3731677519
3731683317
3731690214
3731695036
3731700957
3731706816
3731713164
3731719389
3731725126
3731730742
3731736052
3731743864
3731748869
3731754423
3731761198
3731765837
3731772856
3731779020
3731783171
3731789885
3731796049
3731807219
3731813139
3731819975
3731825407
3731829618
3731836882
3731844511
3731849760
3731855863
3731860685
3731867399
3731871488
3731877226
3731884306
3731890775
3731896147
3731901029
3731906767
3731913908
3731920011
3731926115
3731930753
3731935819
3731941740
3731947721
3731953458
3731960783
3731966764
3731972074
3731977872
3731983793
3731989164
3731994352
3732000272
3732006681
3732011136
3732016752
3732022184
3732028043
3732034635
3732039335
3732045316
3732049833
3732055753
3732060514
3732067411
3732076871
3732086820
3732092435
3732098478
3732104764
3732109342
3732115384
3732122037
3732128629
3732133512
3732141812
3732158658
3732165128
3732170682
3732178555
3732186002
3732191739
3732196439
3732201993
3732209195
3732215176
3732221097
3732228238
3732233548
3732239224
3732244717
3732251553
3732256741
3732260342
3732265713
3732270840
3732274197
3732282803
3732287320
3732291226
3732295621
3732300137
3732304532
3732309353
3732312893
3732317898
3732322171
3732327359
3732331875
3732336331
3732340848
3732346219
3732350918
3732353970
3732359036
3732363797
3732368496
3732373196
3732376614
3732380948
3732385098
3732390591
3732396023
3732401028
3732405850
3732410672
3732414822
3732418545
3732424160
3732429531
3732434292
3732437893
3732441799
3732446011
3732451199
3732456082
3732460537
3732465725
3732469876
3732475308
3732482021
3732486111
3732492825
3732497341
3732502041
3732507351
3732511807
3732517483
3732522244
3732526028
3732530605
3732534206
3732539150
3732544460
3732549099
3732553371
3732558620
3732562893
3732568020
3732572414
3732576260
3732581692
3732585659
3732590053
3732594387
3732599392
3732603298
3732610317
3732614773
3732618801
3732622951
3732627224
3732632168
3732637356
3732641079
3732647854
3732652004
3732657802
3732663417
3732667202
3732672329
3732675869
3732680751
3732685207
3732689968
3732693996
3732699001
3732702480
3732707485
3732710781
3732715480
3732719448
3732726161
3732732143
3732735622
3732740688
3732744289
3732749843
3732754604
3732759059
3732764919
3732769863
3732773219
3732778102
3732783534
3732787502
3732792507
3732796169
3732800319
3732805568
3732808986
3732814479
3732818507
3732822841
3732827296
3732831203
3732835170
3732839137
3732846278
3732854640
3732859706
3732864162
3732870692
3732877894
3732882289
3732887904
3732891810
3732897853
3732903590
3732907802
3732913905
3732920253
3732925746
3732930690
3732936732
3732941371
3732943873
3732954432
3732959315
3732964442
3732970363
3732975306
3732982142
3732987696
3732993678
3732999232
3733003810
3733008937
3733013575
3733018580
3733026148
3733030299
3733035670
3733040980
3733044581
3733050257
3733055995
3733062892
3733068324
3733075038
3733079737
3733085047
3733091578
3733096949
3733101161
3733108363
3733112269
3733117823
3733123743
3733127833
3733134547
3733138392
3733147181
3733152186
3733157862
3733164088
3733168177
3733171900
3733178553
3733185267
3733190394
3733195215
3733200098
3733206873
3733212427
3733216517
3733222620
3733228907
3733234583
3733239954
3733246058
3733250818
3733254725
3733260340
3733264856
3733272730
3733277491
3733283045
3733288782
3733292505
3733301294
3733306055
3733312220
3733317774
3733322779
3733330469
3733336939
3733343653
3733350733
3733356958
3733363245
3733370508
3733379175
3733387171
3733396326
3733404749
3733409387
3733417261
3733425684
3733433679
3733441125
3733447229
3733451562
3733462732
3733469079
3733477197
3733483484
3733490747
3733497949
3733504724
3733512414
3733516931
3733527734
3733536401
3733542444
3733551233
3733557641
3733564599
3733571618
3733579736
3733581994
3733595300
3733603967
3733611108
3733618249
3733627221
3733633081
3733637658
3733648889
3733656091
3733661523
3733672082
3733678796
3733687829
3733696496
3733705224
3733711572
3733720483
3733726891
3733733056
3733743005
3733749291
3733755517
3733763268
3733770470
3733777733
3733785119
3733791283
3733799218
3733804833
3733812096
3733819665
3733828148
3733835045
3733842370
3733849999
3733856224
3733866478
3733871422
3733881493
3733888695
3733896141
3733903160
3733908531
3733917076
3733924706
3733930382
3733940209
3733945702
3733953575
3733961144
3733969139
3733973412
3733982018
3733988426
3733994469
3734006249
3734011803
3734019981
3734024498
3734032738
3734042076
3734049278
3734054466
3734062584
3734073265
3734079613
3734087669
3734093590
3734100303
3734107811
3734113853
3734121422
3734125389
3734134239
3734140220
3734147361
3734161338
3734171836
3734180564
3734191185
3734198020
3734208702
3734216453
3734225120
3734229820
3734240745
3734248191
3734256553
3734262596
3734269920
3734278343
3734286948
3734295615
3734303489
3734311057
3734317710
3734323936
3734330833
3734338340
3734345176
3734358237
3734362571
3734370444
3734378440
3734384727
3734391501
3734398276
3734407065
3734411765
3734423545
3734431418
3734437339
3734445578
3734453391
3734462058
3734466758
3734476401
3734482749
3734488669
3734498923
3734506552
3734514731
3734519126
3734526206
3734535788
3734543479
3734549399
3734559226
3734566855
3734575095
3734584433
3734591147
3734596274
3734605551
3734612265
3734619955
3734623801
3734633810
3734640280
3734648276
3734655905
3734662558
3734671286
3734675864
3734683005
3734693258
3734702109
3734710348
3734718283
3734723593
3734728293
3734740378
3734747213
3734753073
3734761129
3734768148
3734779440
3734787985
3734793356
3734800009
3734807211
3734814718
3734821310
3734829244
3734833517
3734846517
3734853109
3734860128
3734870138
3734877340
3734885641
3734894491
3734903280
3734911214
3734921102
3734926229
3734935506
3734944295
3734950521
3734960470
3734965353
3734977132
3734984640
3734990499
3735000081
3735006978
3735015767
3735022909
3735029195
3735036947
3735043294
3735051778
3735055989
3735066060
3735076986
3735085408
3735093892
3735099874
3735108052
3735114705
3735122335
3735127889
3735134175
3735144002
3735149800
3735155110
3735159871
3735167012
3735171102
3735176534
3735181538
3735189839
3735194051
3735200032
3735206990
3735213033
3735217427
3735222798
3735227132
3735235310
3735239888
3735246236
3735250813
3735259968
3735263386
3735271870
3735277486
3735286091
3735291768
3735298054
3735302815
3735308857
3735314961
3735319661
3735325154
3735331563
3735337178
3735343525
3735351460
3735356404
3735363789
3735369954
3735375874
3735381550
3735389607
3735395527
3735401081
3735406391
3735411824
3735416340
3735422871
3735427143
3735434040
3735438801
3735445759
3735451740
3735457112
3735461567
3735466999
3735472920
3735477558
3735485676
3735490803
3735497883
3735502399
3735508259
3735515095
3735520588
3735524860
3735533283
3735539204
3735544880
3735552082
3735558124
3735564899
3735569721
3735574482
3735581623
3735587543
3735593769
3735600239
3735606403
3735611957
3735617939
3735624653
3735632221
3735635395
3735641742
3735646442
3735653522
3735658283
3735664997
3735670917
3735677875
3735682880
3735689289
3735694843
3735702106
3735708210
3735714496
3735720233
3735725666
3735731464
3735736896
3735743427
3735747760
3735754596
3735758380
3735765094
3735769367
3735776630
3735781757
3735787189
3735792377
3735797748
3735803180
3735808551
3735812762
3735823749
3735829791
3735835467
3735840655
3735846271
3735851276
3735857440
3735864581
3735870257
3735875567
3735883075
3735888934
3735895709
3735902972
3735907611
3735912311
3735920611
3735926532
3735933185
3735939593
3735944293
3735949969
3735958087
3735963519
3735973162
3735978961
3735985675
3735990069
3735995867
3736002581
3736006243
3736012225
3736016009
3736022357
3736028643
3736033343
3736039691
3736043963
3736049151
3736054644
3736058245
3736064044
3736069659
3736074725
3736081072
3736085345
3736092486
3736098528
3736104327
3736110186
3736115252
3736121844
3736126238
3736130572
3736136187
3736143755
3736151202
3736155413
3736162859
3736168474
3736174273
3736180437
3736187823
3736192888
3736198382
3736204851
3736209551
3736217058
3736222246
3736228594
3736234819
3736240801
3736248674
3736254290
3736261003
3736267900
3736274309
3736280962
3736290117
3736296038
3736303972
3736310320
3736315508
3736322710
3736329302
3736335161
3736339617
3736347368
3736353472
3736357561
3736363909
3736370317
3736376054
3736381059
3736386491
3736393694
3736398943
3736405656
3736411211
3736416765
3736423173
3736428850
3736433061
3736438615
3736444475
3736449113
3736454607
3736459978
3736465654
3736471269
3736475969
3736479997
3736485734
3736491411
3736498735
3736506364
3736511796
3736518266
3736525956
3736531389
3736536271
3736544328
3736549150
3736555497
3736561845
3736566911
3736571550
3736576738
3736581620
3736587114
3736592912
3736599198
3736604325
3736609391
3736614152
3736618547
3736625993
3736630937
3736637406
3736642350
3736646562
3736653275
3736657670
3736663712
3736669267
3736675004
3736682084
3736688248
3736692948
3736699357
3736703873
3736710404
3736715470
3736721329
3736725907
3736730851
3736739518
3736744889
3736749894
3736754655
3736760270
3736765702
3736771439
3736778092
3736784134
3736788346
3736796891
3736802018
3736809708
3736815690
3736824723
3736830948
3736836136
3736839493
3736847916
3736852311
3736857804
3736862870
3736870682
3736875077
3736879715
3736885331
3736891312
3736896012
3736901261
3736908036
3736914017
3736920181
3736926590
3736932266
3736938980
3736943375
3736948990
3736955277
3736960281
3736966202
3736973038
3736978226
3736984207
3736989029
3736995194
3737004166
3737010818
3737016067
3737022354
3737027542
3737032974
3737040298
3737046768
3737053787
3737061539
3737066788
3737072586
3737078872
3737083328
3737088394
3737094925
3737101150
3737106949
3737112137
3737118911
3737124222
3737128677
3737134536
3737140884
3737148941
3737154861
3737160965
3737165847
3737173904
3737181167
3737187881
3737191848
3737201370
3737208267
3737216384
3737221145
3737233352
3737240615
3737248245
3737257461
3737264480
3737274123
3737282058
3737288406
3737298782
3737305312
3737314284
3737323135
3737331008
3737338088
3737347365
3737354568
3737362624
3737369277
3737377334
3737385329
3737392592
3737398940
3737405837
3737413100
3737425185
3737430129
3737438979
3737447646
3737454299
3737460768
3737468459
3737475966
3737481032
3737493605
3737502455
3737509474
3737519240
3737526381
3737532851
3737539260
3737548720
3737552809
3737565566
3737571181
3737579482
3737583998
3737594435
3737600844
3737607985
3737615736
3737622816
3737633986
3737638197
3737647352
3737653822
3737659987
3737668043
3737675734
3737681959
3737688734
3737695997
3737706740
3737712965
3737720167
3737728041
3737734205
3737740919
3737750074
3737756361
3737763624
3737770521
3737778395
3737783827
3737791822
3737798048
3737806654
3737813185
3737820814
3737828077
3737834547
3737842970
3737851087
3737858167
3737868055
3737877271
3737885267
3737891859
3737897840
3737904859
3737915235
3737921888
3737929884
3737936964
3737943799
3737950330
3737957838
3737967054
3737974195
3737981336
3737988233
3737995618
3737999891
3738010206
3738016309
3738022657
3738029554
3738035779
3738045362
3738052503
3738060315
3738066968
3738072705
3738081006
3738086438
3738093396
3738099866
3738109143
3738116590
3738124524
3738129773
3738138074
3738145337
3738151257
3738158765
3738162793
3738172437
3738179028
3738185254
3738195203
3738203687
3738212231
3738220715
3738229504
3738238110
3738245129
3738252026
3738262097
3738270093
3738278576
3738287121
3738289807
3738302563
3738310376
3738317456
3738326489
3738332837
3738341687
3738346692
3738357739
3738366345
3738374157
3738381298
3738386669
3738397778
3738406384
3738414562
3738424023
3738430493
3738437756
3738442028
3738450146
3738456493
3738465405
3738473766
3738479137
3738487133
3738496410
3738502697
3738508984
3738515820
3738523327
3738531078
3738539928
3738547497
3738555858
3738562450
3738569408
3738576855
3738583812
3738591564
3738598095
3738604931
3738615062
3738622997
3738630016
3738636486
3738642894
3738649303
3738658153
3738664074
3738670848
3738679027
3738685375
3738693431
3738701793
3738708141
3738714549
3738721202
3738728588
3738736766
3738746776
3738758312
3738765392
3738767528
3738779247
3738783397
3738792735
3738799266
3738804515
3738814708
3738822459
3738829845
3738836192
3738842113
3738848765
3738855784
3738863109
3738871104
3738878978
3738884227
3738891795
3738897777
3738905833
3738911937
3738918589
3738925486
3738930552
3738940928
3738949717
3738955882
3738962779
3738971263
3738977183
3738985728
3738992076
3738998179
3739008616
3739018382
3739024241
3739031626
3739036936
3739045420
3739053355
3739058726
3739066111
3739072031
3739082346
3739084727
3739095591
3739102122
3739110789
3739117197
3739122813
3739130320
3739137156
3739146128
3739154429
3739160166
3739168894
3739173960
3739181650
3739189341
3739194712
3739201304
3739208201
3739219370
3739231394
3739235178
3739246286
3739252573
3739258738
3739267710
3739276621
3739282053
3739289194
3739293894
3739300485
3739305551
3739311228
3739316294
3739321726
3739327097
3739333933
3739339304
3739343820
3739350412
3739355722
3739361887
3739366281
3739373178
3739379831
3739384103
3739388315
3739397653
3739402780
3739408823
3739415597
3739422678
3739427560
3739433298
3739439523
3739445566
3739451486
3739457406
3739460397
3739470224
3739473398
3739483957
3739489755
3739495736
3739500985
3739507394
3739514413
3739521188
3739525888
3739532968
3739537118
3739542062
3739548715
3739552682
3739559152
3739564462
3739571176
3739575997
3739582345
3739587106
3739592172
3739596932
3739603890
3739607980
3739616830
3739621102
3739628976
3739634957
3739640023
3739644723
3739651498
3739656136
3739663583
3739668465
3739676156
3739680672
3739685677
3739691048
3739696542
3739701669
3739707467
3739713814
3739719613
3739724801
3739729439
3739737008
3739741585
3739747079
3739752572
3739759957
3739765206
3739770882
3739776681
3739782723
3739789803
3739796639
3739803597
3739810494
3739816475
3739823006
3739826546
3739835152
3739841622
3739847359
3739856697
3739862557
3739870003
3739875801
3739880867
3739886299
3739891487
3739896919
3739902413
3739907418
3739914681
3739918648
3739925362
3739929451
3739935127
3739939888
3739947701
3739952583
3739960274
3739965157
3739972847
3739977425
3739984016
3739990852
3739995247
3740002022
3740008247
3740014107
3740020576
3740026497
3740031135
3740036934
3740043587
3740049629
3740052742
3740062080
3740068306
3740074714
3740079902
3740086250
3740092537
3740097480
3740102974
3740107246
3740118477
3740126045
3740130867
3740136421
3740143013
3740147529
3740153816
3740158577
3740165901
3740170112
3740175178
3740181221
3740187751
3740193428
3740198921
3740203681
3740211616
3740215827
3740223518
3740228828
3740235175
3740238227
3740246101
3740250861
3740258796
3740263679
3740271064
3740276313
3740281501
3740288764
3740294379
3740299873
3740304267
3740312812
3740316901
3740324348
3740329169
3740335456
3740340644
3740346747
3740351630
3740360114
3740366096
3740372260
3740378303
3740382941
3740389228
3740393561
3740400397
3740405646
3740414252
3740419013
3740424262
3740427436
3740435553
3740442145
3740446601
3740453559
3740458319
3740464423
3740472724
3740478034
3740486212
3740490790
3740495612
3740501959
3740506415
3740514411
3740519293
3740525519
3740529975
3740537299
3740543036
3740548590
3740552802
3740560797
3740566534
3740572394
3740577643
3740583624
3740586676
3740593939
3740598273
3740603766
3740610602
3740617010
3740621710
3740628729
3740633551
3740639654
3740644781
3740649298
3740656927
3740662359
3740669012
3740673041
3740678839
3740685858
3740691534
3740697149
3740706122
3740715399
3740724432
3740730291
3740740118
3740744574
3740753363
3740759100
3740766790
3740771551
3740778265
3740784490
3740789007
3740795477
3740800054
3740806951
3740811773
3740818670
3740823309
3740830023
3740834539
3740841558
3740846136
3740852483
3740857122
3740862676
3740868230
3740875738
3740880315
3740886541
3740891973
3740898443
3740905157
3740910955
3740916082
3740922185
3740928533
3740932256
3740938177
3740945318
3740949468
3740956060
3740961980
3740968023
3740972539
3740979070
3740984807
3740989568
3740995000
3741000249
3741005864
3741010564
3741017095
3741022039
3741029668
3741036199
3741040593
3741046086
3741052800
3741061162
3741066838
3741074346
3741078740
3741084477
3741090337
3741096440
3741102117
3741107182
3741112615
3741119451
3741124700
3741129949
3741135014
3741140996
3741146062
3741151433
3741159123
3741164006
3741170171
3741174992
3741181279
3741185368
3741191655
3741197575
3741202580
3741207646
3741213689
3741218327
3741224370
3741229130
3741232548
3741239445
3741246525
3741251530
3741257268
3741262089
3741268193
3741274174
3741281071
3741288395
3741295231
3741301030
3741306401
3741311528
3741318730
3741323246
3741331608
3741335820
3741342228
3741347782
3741353031
3741358342
3741363224
3741369572
3741376042
3741381962
3741387028
3741390019
3741397709
3741402775
3741408695
3741413578
3741420658
3741425724
3741432926
3741437504
3741443668
3741450626
3741454716
3741461735
3741466862
3741472660
3741479435
3741485233
3741489872
3741496403
3741501163
3741508732
3741513370
3741520817
3741525516
3741532719
3741537418
3741543827
3741548588
3741554386
3741559696
3741565189
3741573795
3741579288
3741584781
3741590824
3741597294
3741603397
3741609317
3741614505
3741620731
3741628605
3741636600
3741641239
3741648746
3741653446
3741659610
3741665103
3741671695
3741677921
3741683048
3741688846
3741693851
3741699283
3741704349
3741708682
3741716922
3741722415
3741727664
3741730960
3741738529
3741744144
3741750247
3741755069
3741763492
3741768314
3741775089
3741779727
3741785648
3741790958
3741796634
3741802249
3741807315
3741815311
3741819949
3741825870
3741832645
3741838443
3741844119
3741848575
3741855411
3741859500
3741866824
3741875735
3741879092
3741888186
3741894107
3741901614
3741908023
3741912844
3741919558
3741924990
3741929263
3741934512
3741940860
3741946048
3741951174
3741957095
3741964175
3741969241
3741974307
3741978823
3741985537
3741989993
3741995303
3742000552
3742009341
3742015261
3742021060
3742027041
3742031802
3742036807
3742043459
3742049868
3742056277
3742061587
3742068667
3742074038
3742079714
3742085268
3742091189
3742096804
3742101504
3742110720
3742116823
3742122744
3742128359
3742134646
3742140261
3742145632
3742149721
3742155459
3742160097
3742166872
3742171389
3742178591
3742182863
3742188601
3742194033
3742200869
3742206728
3742212404
3742218142
3742224184
3742230532
3742237795
3742244570
3742251223
3742259157
3742265627
3742271669
3742276430
3742281862
3742286318
3742292482
3742296816
3742303957
3742310304
3742314333
3742320558
3742325441
3742332521
3742337831
3742343324
3742350282
3742357362
3742363283
3742369142
3742374513
3742380861
3742386293
3742392335
3742398683
3742402528
3742408144
3742415773
3742419557
3742425477
3742432252
3742437379
3742444642
3742450319
3742459291
3742464662
3742470094
3742475770
3742481141
3742486390
3742492372
3742499147
3742503846
3742509462
3742518129
3742522462
3742528993
3742533265
3742539796
3742544068
3742549684
3742556581
3742562745
3742566896
3742573243
3742579713
3742585145
3742590028
3742595216
3742602357
3742607118
3742614320
3742619508
3742626527
3742631410
3742636720
3742642030
3742650697
3742657838
3742663758
3742670289
3742674989
3742682008
3742686463
3742691468
3742699708
3742704407
3742711549
3742716004
3742721619
3742728638
3742734009
3742739442
3742745728
3742751954
3742759156
3742765076
3742770813
3742777222
3742782105
3742788086
3742793641
3742800721
3742807251
3742816956
3742822327
3742827942
3742832642
3742839722
3742844117
3742850708
3742855713
3742863770
3742868286
3742874878
3742882385
3742886292
3742892761
3742897400
3742905090
3742910462
3742915527
3742920715
3742927185
3742931885
3742936768
3742939636
3742948853
3742953857
3742959229
3742964966
3742970459
3742973267
3742980347
3742985229
3742992248
3742997253
3743005066
3743011474
3743015198
3743022156
3743026916
3743033874
3743037475
3743046325
3743051391
3743057434
3743063110
3743069519
3743075134
3743081176
3743085876
3743091125
3743098266
3743104126
3743108825
3743116333
3743121948
3743129577
3743136352
3743143493
3743151611
3743156250
3743161132
3743167480
3743172424
3743177001
3743182495
3743188415
3743194702
3743200378
3743206298
3743212890
3743218749
3743221801
3743229247
3743234252
3743241576
3743246154
3743252746
3743258605
3743263183
3743268920
3743274291
3743281432
3743287231
3743294616
3743300048
3743305541
3743311278
3743317199
3743323058
3743328795
3743334411
3743341308
3743346801
3743352477
3743357787
3743363402
3743369018
3743373412
3743380187
3743384154
3743392089
3743397460
3743404357
3743408507
3743415404
3743421019
3743426696
3743431090
3743439086
3743443236
3743450255
3743455748
3743460387
3743467711
3743473204
3743478636
3743486510
3743493529
3743502135
3743506529
3743512084
3743518492
3743522337
3743528624
3743534361
3743539671
3743545348
3743550230
3743556517
3743561522
3743565916
3743573302
3743578612
3743583617
3743588194
3743596190
3743601561
3743607420
3743615050
3743621947
3743627196
3743634459
3743642088
3743648619
3743652281
3743661009
3743666624
3743675291
3743681089
3743691282
3743698362
3743703611
3743711363
3743718504
3743726561
3743731321
3743738951
3743746702
3743754637
3743765379
3743775572
3743783506
3743791258
3743802061
3743807066
3743817259
3743824278
3743829466
3743841245
3743845518
3743855711
3743861753
3743870664
3743875303
3743886350
3743893125
3743899045
3743908567
3743917051
3743923459
3743930723
3743939023
3743944639
3743953306
3743960019
3743966611
3743976438
3743983823
3743990964
3743998227
3744004453
3744013303
3744020871
3744026303
3744033689
3744040403
3744049131
3744056760
3744065366
3744069821
3744080747
3744087094
3744094480
3744101926
3744107846
3744114377
3744121335
3744129147
3744138425
3744145688
3744150876
3744157895
3744166257
3744172665
3744179196
3744189511
3744196652
3744204953
3744209469
3744216855
3744226559
3744233273
3744241086
3744248044
3744256039
3744263669
3744274777
3744284970
3744292904
3744301388
3744307614
3744313839
3744321286
3744331356
3744336605
3744344235
3744349057
3744355282
3744361264
3744366451
3744372128
3744379208
3744384701
3744389645
3744396298
3744401302
3744405575
3744411068
3744415707
3744422848
3744427914
3744433346
3744439877
3744445431
3744451900
3744458065
3744465939
3744471371
3744477047
3744484188
3744489376
3744497311
3744503414
3744509762
3744515499
3744521847
3744528377
3744533504
3744538448
3744550289
3744558285
3744564510
3744567806
3744578304
3744582454
3744589107
3744595333
3744600155
3744604732
3744612300
3744617061
3744624507
3744628597
3744634822
3744640132
3744646480
3744651180
3744656673
3744663936
3744671077
3744677181
3744682613
3744689327
3744695735
3744703731
3744711604
3744718074
3744724605
3744731563
3744737361
3744742122
3744750362
3744755061
3744761775
3744767757
3744774287
3744780879
3744787349
3744790584
3744797664
3744802425
3744809566
3744814326
3744820857
3744826655
3744832515
3744837825
3744842769
3744850520
