3925758626
3925764486
3925770101
3925775655
3925780965
3925785665
3925790242
3925794820
3925800069
3925805623
3925809529
3925815755
3925820516
3925825154
3925829366
3925833699
3925838460
3925842610
3925847066
3925851338
3925855123
3925858357
3925864705
3925868611
3925872884
3925878255
3925882894
3925887105
3925891866
3925896626
3925902242
3925907063
3925912190
3925917622
3925924153
3925930562
3925936055
3925942769
3925950093
3925955891
3925962300
3925969197
3925977132
3925984578
3925992146
3925999287
3926006611
3926014973
3926018880
3926028218
3926037495
3926045735
3926052937
3926061177
3926069355
3926076497
3926083455
3926090168
3926099385
3926107258
3926113240
3926121418
3926130757
3926139180
3926147114
3926154682
3926161396
3926166950
3926174458
3926182087
3926188557
3926197346
3926205464
3926212971
3926220295
3926228413
3926236958
3926245441
3926254230
3926258625
3926269062
3926277485
3926285725
3926292560
3926299885
3926307026
3926314411
3926320392
3926327595
3926334308
3926340412
3926349506
3926356098
3926362079
3926367695
3926376484
3926380451
3926388874
3926398090
3926405964
3926412677
3926419452
3926426349
3926433246
3926439777
3926446979
3926454792
3926462787
3926469684
3926477069
3926483356
3926488910
3926496967
3926506488
3926512164
3926517902
3926526019
3926533344
3926540179
3926547260
3926552448
3926561908
3926569232
3926574969
3926581805
3926588946
3926595782
3926603168
3926608783
3926619403
3926625140
3926633502
3926639300
3926646991
3926652789
3926660846
3926667132
3926673968
3926681537
3926688617
3926694415
3926702594
3926708392
3926718402
3926726336
3926733050
3926740374
3926747088
3926752520
3926759051
3926766619
3926773882
3926780840
3926787676
3926793902
3926800738
3926807940
3926812884
3926820147
3926827593
3926837237
3926843645
3926850848
3926856890
3926863787
3926872088
3926877947
3926888933
3926897295
3926907000
3926913225
3926923723
3926930803
3926939226
3926950823
3926959124
3926967730
3926976702
3926983904
3926991228
3926998552
3927006243
3927013018
3927021318
3927027300
3927034624
3927042192
3927049639
3927056108
3927064897
3927071611
3927078508
3927082536
3927091814
3927095781
3927105547
3927114336
3927121904
3927128923
3927135271
3927145464
3927153520
3927159257
3927168962
3927175615
3927183855
3927189592
3927196855
3927202531
3927211809
3927217241
3927227189
3927235124
3927240434
3927248857
3927256059
3927262468
3927270646
3927279435
3927288041
3927294084
3927302079
3927310136
3927316362
3927322770
3927331315
3927339311
3927345964
3927353898
3927360795
3927371964
3927380021
3927387773
3927396562
3927404191
3927412187
3927420304
3927427567
3927433122
3927441361
3927447160
3927455888
3927464005
3927470902
3927476884
3927485490
3927491410
3927499467
3927506119
3927515580
3927520096
3927530228
3927537552
3927544693
3927550919
3927559891
3927568802
3927576004
3927583390
3927590714
3927596695
3927604508
3927613663
3927622574
3927629349
3927637467
3927645401
3927652725
3927659012
3927667923
3927676651
3927684342
3927691239
3927698441
3927705155
3927712113
3927718643
3927725418
3927734268
3927742081
3927749710
3927757278
3927764419
3927771561
3927779190
3927786880
3927795242
3927802811
3927810379
3927817825
3927824417
3927831497
3927839798
3927847915
3927854446
3927862930
3927870254
3927878677
3927885574
3927894058
3927903274
3927911331
3927917129
3927927810
3927935745
3927944412
3927952896
3927959182
3927967788
3927975051
3927982559
3927990798
3927999099
3928007644
3928013992
3928023879
3928031570
3928038345
3928043899
3928050185
3928057387
3928063247
3928069289
3928077041
3928082473
3928089675
3928095962
3928101516
3928108352
3928113845
3928119948
3928125503
3928131301
3928137282
3928143508
3928148269
3928155837
3928160476
3928167067
3928171767
3928178420
3928183913
3928191787
3928197951
3928204116
3928210707
3928217482
3928223769
3928229872
3928237868
3928241225
3928249648
3928254775
3928260085
3928267409
3928274550
3928280226
3928287123
3928292983
3928298903
3928303053
3928309218
3928315627
3928320998
3928326125
3928331252
3928336378
3928341750
3928347243
3928353163
3928359511
3928364394
3928370131
3928374464
3928380080
3928384291
3928391188
3928397475
3928403029
3928407973
3928413038
3928418471
3928423659
3928429823
3928434401
3928439894
3928444777
3928451124
3928455397
3928461805
3928467176
3928472425
3928479200
3928484877
3928490248
3928495436
3928500807
3928506727
3928512159
3928517164
3928523939
3928530104
3928539137
3928547804
3928554640
3928563795
3928571546
3928578871
3928586622
3928594740
3928602125
3928608656
3928615675
3928621656
3928628126
3928633741
3928639356
3928645399
3928651441
3928657239
3928663770
3928669263
3928674940
3928680189
3928686170
3928691968
3928698377
3928703504
3928708875
3928714185
3928719678
3928725843
3928731702
3928736829
3928741529
3928748487
3928751478
3928759107
3928764417
3928770581
3928779004
3928785413
3928790540
3928797742
3928803174
3928808850
3928814405
3928820874
3928826367
3928832105
3928837476
3928842237
3928847852
3928853406
3928858472
3928865247
3928871106
3928876721
3928882337
3928887341
3928892102
3928897412
3928904553
3928909131
3928915723
3928921094
3928926343
3928929334
3928936780
3928943005
3928949170
3928954419
3928959973
3928965222
3928969617
3928976269
3928981702
3928988110
3928993359
3928998364
3929005017
3929009289
3929016491
3929022351
3929027478
3929033215
3929038769
3929047009
3929052014
3929057812
3929066052
3929071301
3929075818
3929081005
3929086560
3929091687
3929096814
3929102673
3929108593
3929113415
3929118969
3929123059
3929130139
3929134350
3929142651
3929148998
3929154614
3929159496
3929163830
3929171581
3929176647
3929181896
3929186962
3929192638
3929198925
3929203320
3929209423
3929214245
3929221081
3929226574
3929232616
3929237499
3929243114
3929248180
3929253673
3929259655
3929266003
3929271435
3929277599
3929283520
3929290478
3929296520
3929302379
3929312206
3929318798
3929324962
3929330822
3929337414
3929342724
3929349193
3929354625
3929361461
3929367077
3929372448
3929378002
3929384166
3929389904
3929394786
3929401622
3929408153
3929412059
3929418346
3929424510
3929429759
3929435924
3929441356
3929447338
3929453136
3929458812
3929465648
3929470287
3929481822
3929487315
3929492442
3929497569
3929503856
3929509776
3929515086
3929519481
3929525645
3929532481
3929538768
3929544994
3929550548
3929555797
3929561229
3929565990
3929572520
3929578136
3929583385
3929588450
3929595592
3929600352
3929605357
3929612498
3929616893
3929624156
3929630565
3929635386
3929640269
3929646861
3929650767
3929657237
3929662120
3929667857
3929674632
3929679576
3929685435
3929690562
3929696177
3929702586
3929708445
3929714610
3929720286
3929725657
3929732249
3929736643
3929744944
3929752513
3929757884
3929764475
3929771067
3929777415
3929782481
3929788950
3929794322
3929801768
3929806834
3929812205
3929818430
3929822215
3929828440
3929834238
3929838938
3929845103
3929850291
3929855723
3929860972
3929866526
3929871836
3929878245
3929883677
3929889048
3929893503
3929899180
3929903452
3929911020
3929916453
3929921457
3929926951
3929932078
3929938242
3929942942
3929948496
3929953013
3929960337
3929965525
3929971445
3929976389
3929982737
3929987253
3929992380
3929998423
3930003916
3930009592
3930016001
3930021067
3930026010
3930031381
3930038095
3930043650
3930048654
3930054209
3930060373
3930065378
3930072214
3930077402
3930083139
3930087717
3930093027
3930098642
3930102731
3930108774
3930116159
3930121591
3930126657
3930131906
3930136911
3930141000
3930148019
3930154123
3930159616
3930164682
3930169443
3930175424
3930180185
3930185251
3930191904
3930196481
3930203195
3930207834
3930212839
3930219125
3930223703
3930232309
3930238717
3930245248
3930249704
3930255441
3930262155
3930267099
3930273568
3930279916
3930285897
3930293161
3930298654
3930303231
3930309396
3930316049
3930319223
3930327096
3930332101
3930337350
3930342355
3930347482
3930354074
3930364877
3930370065
3930375802
3930380807
3930387154
3930393075
3930397591
3930403207
3930409432
3930415170
3930420235
3930425973
3930431527
3930435860
3930440438
3930446114
3930451424
3930456124
3930461312
3930466683
3930472665
3930478890
3930483956
3930489083
3930495797
3930502328
3930507454
3930514412
3930519906
3930525338
3930529671
3930535714
3930540169
3930546517
3930553292
3930558846
3930564339
3930569771
3930575203
3930580513
3930586068
3930591866
3930598091
3930604195
3930610909
3930616463
3930622566
3930629402
3930632942
3930640938
3930646492
3930651741
3930657173
3930662300
3930667244
3930672432
3930678291
3930683846
3930689034
3930693184
3930698372
3930703804
3930708870
3930713387
3930721077
3930726631
3930732246
3930738594
3930745247
3930751900
3930755928
3930765022
3930770759
3930775947
3930781257
3930785347
3930792000
3930799629
3930804817
3930809334
3930814033
3930819465
3930825264
3930829780
3930834358
3930842048
3930846687
3930852729
3930856575
3930861274
3930867805
3930873298
3930878425
3930882576
3930888862
3930891853
3930899360
3930904060
3930909492
3930915107
3930919441
3930926704
3930931709
3930936408
3930941657
3930947212
3930951728
3930957404
3930963264
3930966132
3930973579
3930977058
3930982856
3930989326
3930995368
3930999946
3931005622
3931011237
3931016242
3931021125
3931028754
3931034187
3931040595
3931046271
3931050849
3931056342
3931062263
3931068793
3931073859
3931079658
3931084601
3931089057
3931094123
3931099555
3931104926
3931111396
3931117316
3931122321
3931126594
3931133368
3931137519
3931143134
3931147529
3931154487
3931157355
3931164191
3931169440
3931174506
3931179206
3931184333
3931191169
3931197211
3931202338
3931207770
3931212348
3931217047
3931223029
3931227973
3931235175
3931242987
3931248541
3931257086
3931263556
3931268622
3931275763
3931282294
3931288580
3931294745
3931299139
3931307318
3931313116
3931319586
3931326544
3931331305
3931336981
3931343085
3931348822
3931354010
3931359015
3931365179
3931369574
3931374029
3931380072
3931384344
3931390997
3931396246
3931400702
3931405462
3931410772
3931415594
3931419745
3931426092
3931433416
3931437506
3931444403
3931451056
3931455999
3931462591
3931469183
3931476019
3931481329
3931486578
3931493353
3931498846
3931506292
3931512030
3931520208
3931525274
3931532659
3931537115
3931544378
3931549871
3931554022
3931562383
3931567693
3931573187
3931579412
3931585943
3931589849
3931597417
3931604009
3931607793
3931614263
3931620061
3931624029
3931630437
3931636358
3931640752
3931647222
3931651861
3931657659
3931664129
3931670293
3931675481
3931682744
3931687749
3931692388
3931699224
3931707158
3931712835
3931718999
3931723760
3931729924
3931735662
3931742864
3931750921
3931756292
3931761480
3931767278
3931772344
3931777044
3931782231
3931788396
3931794011
3931799687
3931804082
3931810124
3931814458
3931821416
3931826421
3931832524
3931837773
3931843328
3931849187
3931855473
3931860478
3931865483
3931871709
3931876897
3931882634
3931887700
3931893132
3931899358
3931902531
3931909489
3931915776
3931921208
3931926335
3931931828
3931937077
3931941472
3931948735
3931953984
3931959172
3931963933
3931969487
3931974248
3931981389
3931986149
3931991154
3931996464
3932002446
3932007023
3932014592
3932020573
3932026188
3932031437
3932035588
3932041508
3932046330
3932051213
3932058415
3932063786
3932069035
3932073368
3932079594
3932086064
3932091435
3932097660
3932100956
3932110661
3932116093
3932121769
3932128727
3932134403
3932140751
3932145451
3932149906
3932157963
3932162480
3932167668
3932174259
3932180485
3932186405
3932194828
3932200321
3932206608
3932216068
3932220463
3932227604
3932233890
3932239567
3932244938
3932250858
3932256534
3932260624
3932267948
3932274235
3932279423
3932285038
3932290531
3932295719
3932301212
3932306217
3932310550
3932317386
3932323490
3932328617
3932334476
3932339725
3932345707
3932349674
3932356693
3932362186
3932367862
3932372074
3932378177
3932384525
3932390018
3932394901
3932400089
3932406497
3932412540
3932417606
3932422061
3932428775
3932433109
3932439395
3932444888
3932450076
3932456180
3932461307
3932467166
3932471072
3932477420
3932482913
3932488773
3932494144
3932499271
3932505801
3932510928
3932515811
3932520816
3932526736
3932532474
3932537723
3932543338
3932548892
3932553348
3932559024
3932563479
3932570132
3932576175
3932594546
3932598758
3932604312
3932610232
3932614871
3932620730
3932625125
3932630862
3932635074
3932642154
3932645266
3932651980
3932658694
3932664065
3932668826
3932674075
3932680362
3932684085
3932693728
3932701419
3932708438
3932714907
3932720278
3932725283
3932732913
3932739382
3932746401
3932751406
3932758120
3932763491
3932769289
3932774355
3932780398
3932786074
3932791201
3932795718
3932802370
3932807253
3932812563
3932818301
3932824709
3932828799
3932833987
3932840456
3932846010
3932851198
3932855837
3932861880
3932868166
3932873598
3932879519
3932885317
3932890993
3932895449
3932902651
3932908327
3932913393
3932918581
3932924196
3932929628
3932935183
3932941469
3932944826
3932951967
3932957399
3932962648
3932968142
3932973574
3932979067
3932984682
3932990114
3932996645
3933000795
3933006777
3933010988
3933018801
3933024782
3933028688
3933035219
3933039491
3933045778
3933052370
3933057924
3933062929
3933068056
3933074526
3933079958
3933084901
3933091493
3933095827
3933102052
3933106935
3933112978
3933117555
3933123048
3933129030
3933133363
3933139467
3933145631
3933150697
3933156496
3933161012
3933167604
3933170961
3933178712
3933184755
3933190614
3933195924
3933204286
3933209657
3933213991
3933221559
3933228334
3933233705
3933238893
3933243898
3933250978
3933254823
3933261720
3933265931
3933271974
3933276368
3933283082
3933288819
3933293946
3933300050
3933305299
3933310365
3933315919
3933321412
3933326905
3933332520
3933336915
3933342957
3933347779
3933353822
3933359620
3933364930
3933370118
3933375245
3933381715
3933386109
3933391908
3933396180
3933402222
3933409119
3933414246
3933419556
3933424744
3933429688
3933434876
3933441712
3933445496
3933452515
3933456910
3933462708
3933466859
3933473145
3933478272
3933484681
3933490357
3933496399
3933502076
3933506409
3933512757
3933515992
3933524170
3933531189
3933535218
3933541748
3933547303
3933552491
3933556824
3933563233
3933570374
3933575989
3933581238
3933585327
3933591797
3933594788
3933602783
3933608704
3933612915
3933618653
3933623413
3933629578
3933636231
3933641602
3933648499
3933653259
3933658692
3933663086
3933669922
3933675415
3933681641
3933688721
3933694153
3933700195
3933706543
3933712585
3933718811
3933724853
3933729858
3933737854
3933743591
3933749145
3933755127
3933759582
3933766174
3933771545
3933776611
3933782165
3933787414
3933793823
3933797607
3933804260
3933809875
3933815124
3933819458
3933826416
3933832153
3933837280
3933842712
3933848022
3933854065
3933857910
3933864013
3933869506
3933875183
3933879394
3933885742
3933892028
3933897033
3933903198
3933907165
3933913635
3933919128
3933924255
3933928649
3933936706
3933941406
3933946472
3933951965
3933957153
3933962829
3933969054
3933974548
3933979003
3933985778
3933990356
3933996459
3934001037
3934008300
3934015197
3934020568
3934025756
3934031371
3934037414
3934043273
3934048095
3934054870
3934061217
3934066833
3934072143
3934078734
3934084655
3934089538
3934095519
3934103026
3934106444
3934114379
3934117553
3934124633
3934131469
3934137145
3934142821
3934148314
3934153319
3934158812
3934164977
3934170775
3934175902
3934182006
3934187194
3934192076
3934199095
3934204100
3934213011
3934217894
3934225585
3934235838
3934241759
3934248045
3934254759
3934260802
3934265807
3934270628
3934277892
3934282774
3934289122
3934293394
3934298460
3934305418
3934309874
3934316405
3934320799
3934327269
3934332152
3934338499
3934343016
3934348143
3934354002
3934359129
3934365294
3934370848
3934376219
3934380430
3934387083
3934392149
3934398497
3934402952
3934408018
3934413450
3934418760
3934425169
3934431273
3934436827
3934441282
3934447142
3934451353
3934457823
3934462217
3934469236
3934474729
3934479612
3934485350
3934490843
3934496153
3934500425
3934507871
3934515440
3934521055
3934525572
3934529722
3934537351
3934542295
3934547300
3934553404
3934558958
3934563902
3934569395
3934574522
3934578794
3934585081
3934589475
3934597715
3934602720
3934608030
3934614622
3934619199
3934625242
3934629880
3934637571
3934643491
3934647459
3934654661
3934659055
3934665037
3934669919
3934677732
3934682310
3934687681
3934694578
3934698972
3934705442
3934711423
3934721555
3934727292
3934732358
3934739438
3934742734
3934751706
3934755063
3934764524
3934769223
3934774655
3934781186
3934785520
3934792173
3934798337
3934804318
3934809690
3934816403
3934821591
3934827023
3934833188
3934837583
3934843137
3934847226
3934853818
3934860288
3934865476
3934870908
3934876462
3934882138
3934886533
3934892514
3934896848
3934904172
3934907407
3934914487
3934919614
3934924741
3934931210
3934936886
3934941342
3934946774
3934952695
3934956967
3934963254
3934967587
3934975094
3934979916
3934984982
3934990597
3934995846
3935002743
3935008236
3935013058
3935017575
3935024716
3935027646
3935035336
3935041562
3935047665
3935052853
3935058590
3935063900
3935070187
3935076474
3935082455
3935087155
3935093930
3935100521
3935105709
3935110531
3935116085
3935122677
3935127194
3935133785
3935139034
3935145687
3935150875
3935157284
3935164242
3935168331
3935174923
3935180843
3935186520
3935192623
3935197750
3935202389
3935209591
3935216732
3935222835
3935228207
3935234920
3935241634
3935247982
3935253658
3935259762
3935265743
3935274105
3935280575
3935286129
3935291134
3935297115
3935301693
3935309078
3935314571
3935320186
3935325191
3935330806
3935337276
3935342769
3935348384
3935353878
3935359920
3935365779
3935370906
3935377132
3935382381
3935386714
3935393489
3935399349
3935404781
3935410518
3935416133
3935421504
3935426937
3935432918
3935439082
3935445247
3935450008
3935456233
3935461238
3935468562
3935474239
3935479427
3935484859
3935490413
3935495662
3935502986
3935509090
3935513118
3935519893
3935524531
3935531184
3935535945
3935541743
3935546687
3935554133
3935558711
3935565425
3935570918
3935576411
3935582942
3935588618
3935594600
3935600093
3935606074
3935610164
3935617427
3935621943
3935628352
3935633174
3935641047
3935646357
3935651545
3935657466
3935662287
3935669001
3935677912
3935683589
3935689387
3935694941
3935701716
3935707636
3935712580
3935718501
3935724116
3935730464
3935736201
3935742671
3935748103
3935753535
3935760310
3935767024
3935775202
3935780634
3935786738
3935792536
3935798884
3935804560
3935814753
3935820795
3935826838
3935832575
3935837092
3935843317
3935850764
3935856379
3935861567
3935867243
3935874018
3935879450
3935885126
3935890986
3935897028
3935903132
3935908686
3935914789
3935920527
3935925287
3935932001
3935936579
3935943476
3935949457
3935955011
3935960443
3935966120
3935972101
3935977594
3935984003
3935989923
3935995416
3935999567
3936006708
3936012628
3936017877
3936022638
3936029779
3936034601
3936040277
3936044855
3936051264
3936057855
3936063348
3936069940
3936075494
3936080133
3936085809
3936091425
3936096857
3936102838
3936108942
3936114740
3936120721
3936125970
3936130548
3936137079
3936141839
3936148736
3936153680
3936160821
3936164056
3936171564
3936174798
3936182245
3936188897
3936194513
3936200616
3936206659
3936211541
3936217462
3936223138
3936227777
3936233758
3936239251
3936246392
3936251397
3936256768
3936262445
3936268243
3936274407
3936279718
3936285638
3936291497
3936297235
3936303643
3936309625
3936316277
3936322076
3936328973
3936335198
3936340203
3936347405
3936353631
3936360345
3936365716
3936372735
3936376824
3936383172
3936389886
3936395135
3936400323
3936405938
3936411187
3936416619
3936422967
3936429681
3936435296
3936440911
3936446282
3936451897
3936457451
3936462823
3936469109
3936476128
3936480217
3936487298
3936491936
3936499260
3936504082
3936511834
3936519768
3936523980
3936530510
3936536675
3936542412
3936547905
3936553276
3936557854
3936564995
3936568352
3936574883
3936580864
3936587456
3936592827
3936597405
3936604058
3936609856
3936615288
3936621147
3936626274
3936632378
3936638359
3936643486
3936649468
3936654594
3936661247
3936667717
3936672295
3936679253
3936682671
3936689629
3936694206
3936701103
3936707939
3936713310
3936718254
3936723808
3936730400
3936734672
3936741386
3936747429
3936753288
3936759941
3936765434
3936770622
3936776481
3936782280
3936787285
3936793815
3936799675
3936805473
3936810173
3936816887
3936822624
3936827934
3936834343
3936844230
3936849418
3936856498
3936860649
3936867424
3936873405
3936879631
3936887138
3936892936
3936898612
3936903068
3936910209
3936914909
3936921684
3936926505
3936932670
3936938590
3936944206
3936949271
3936956107
3936961784
3936966300
3936972404
3936976737
3936983146
3936988517
3936993705
3937000053
3937005363
3937010062
3937015433
3937021720
3937027213
3937032462
3937037223
3937043876
3937048636
3937055167
3937061027
3937066092
3937072440
3937078483
3937084159
3937088981
3937094779
3937099051
3937105704
3937110770
3937116263
3937124137
3937128226
3937135550
3937139579
3937146048
3937150382
3937156546
3937163260
3937168204
3937173697
3937179068
3937185355
3937189810
3937195609
3937202811
3937208060
3937214102
3937219412
3937225455
3937229910
3937236014
3937240653
3937247305
3937253043
3937259634
3937265311
3937269339
3937275687
3937280508
3937287405
3937293265
3937298697
3937303885
3937309134
3937315726
3937321585
3937327200
3937333609
3937339102
3937343924
3937351309
3937357290
3937363516
3937371634
3937377554
3937384573
3937393728
3937400503
3937406546
3937413076
3937417715
3937424856
3937430349
3937435965
3937441641
3937447317
3937453237
3937459951
3937465872
3937470510
3937476126
3937481314
3937487722
3937493032
3937499380
3937504934
3937510793
3937516287
3937521597
3937527151
3937532766
3937538503
3937544790
3937549001
3937556326
3937562185
3937567007
3937573049
3937579519
3937586721
3937592275
3937597585
3937603078
3937608572
3937614065
3937619863
3937625905
3937631216
3937637197
3937642385
3937648488
3937654775
3937660146
3937666005
3937672414
3937677968
3937683889
3937689382
3937694570
3937700185
3937706533
3937713002
3937718557
3937724538
3937730214
3937734670
3937740956
3937747365
3937752980
3937758351
3937763845
3937770314
3937774709
3937780995
3937785451
3937792348
3937798512
3937803823
3937809255
3937815175
3937821401
3937825917
3937831471
3937836171
3937843617
3937849538
3937854848
3937861195
3937866017
3937872182
3937877248
3937887929
3937893300
3937898488
3937905812
3937912221
3937917470
3937925954
3937931874
3937938893
3937943471
3937948598
3937954274
3937961720
3937966725
3937972828
3937978993
3937983571
3937989674
3937994313
3938000599
3938007374
3938012928
3938018849
3938024403
3938029713
3938035267
3938040638
3938047963
3938053028
3938059010
3938063832
3938069813
3938075306
3938079945
3938086292
3938093128
3938098499
3938103993
3938109486
3938115101
3938120716
3938126515
3938132069
3938138661
3938142872
3938149220
3938154835
3938160389
3938166126
3938171741
3938176868
3938184010
3938189381
3938194508
3938200184
3938204517
3938211475
3938215015
3938223133
3938228016
3938233326
3938239918
3938245838
3938250904
3938258228
3938263416
3938269153
3938274463
3938280201
3938285938
3938292286
3938295582
3938302662
3938308216
3938315479
3938320850
3938325122
3938330921
3938337146
3938343677
3938347339
3938355396
3938360401
3938365650
3938371326
3938377429
3938382801
3938389697
3938395069
3938398303
3938406177
3938413135
3938419544
3938429492
3938435535
3938441699
3938447803
3938453601
3938459949
3938466418
3938472339
3938478259
3938483386
3938488025
3938494861
3938499560
3938506396
3938513232
3938518603
3938524036
3938529834
3938535266
3938540759
3938547839
3938552051
3938558948
3938564563
3938570178
3938577197
3938582690
3938588366
3938594043
3938599231
3938604358
3938611071
3938615283
3938622241
3938626452
3938633471
3938638110
3938644030
3938650012
3938656665
3938661425
3938667834
3938673327
3938678820
3938685046
3938690844
3938696826
3938702746
3938708300
3938714037
3938719531
3938725573
3938732714
3938737414
3938743578
3938748400
3938755663
3938759081
3938765978
3938774157
3938781298
3938788012
3938792895
3938799547
3938804369
3938811205
3938815905
3938822314
3938827746
3938835070
3938840258
3938845812
3938850756
3938856310
3938863085
3938867296
3938874376
3938878832
3938885607
3938889757
3938896715
3938901476
3938907824
3938912340
3938918993
3938923632
3938930895
3938936754
3938942308
3938948717
3938954821
3938963060
3938967699
3938975145
3938980455
3938987779
3938994005
3939000292
3939009813
3939014635
3939020616
3939025377
3939032030
3939038377
3939043810
3939050401
3939056078
3939060960
3939066637
3939073351
3939077501
3939084642
3939090562
3939096849
3939101610
3939108751
3939113328
3939119554
3939126451
3939131944
3939138048
3939143480
3939148118
3939154161
3939160264
3939165880
3939171617
3939177171
3939183519
3939189622
3939194139
3939200120
3939206651
3939211290
3939217820
3939223314
3939228929
3939232103
3939239366
3939245652
3939251084
3939257737
3939263291
3939268968
3939274949
3939280992
3939286485
3939292039
3939298203
3939304734
3939308946
3939315598
3939321763
3939327134
3939333238
3939338914
3939344773
3939349900
3939356614
3939360947
3939367478
3939372666
3939379380
3939384995
3939390916
3939396104
3939400620
3939406785
3939411118
3939418381
3939424973
3939430771
3939435349
3939441147
3939446580
3939451096
3939458054
3939465073
3939469529
3939476975
3939481308
3939487046
3939492722
3939499619
3939504624
3939512986
3939521775
3939526291
3939533676
3939539353
3939545395
3939552841
3939558396
3939563706
3939569443
3939574936
3939580429
3939586045
3939592026
3939597824
3939603928
3939609116
3939615769
3939620957
3939625656
3939631943
3939636520
3939643723
3939649033
3939654648
3939660385
3939665878
3939671494
3939676987
3939683395
3939688888
3939694382
3939699936
3939705307
3939709518
3939715988
3939722824
3939728500
3939734176
3939739670
3939745346
3939750961
3939756576
3939762008
3939768051
3939773361
3939778854
3939784774
3939790329
3939794479
3939800766
3939807296
3939814071
3939819625
3939824935
3939831039
3939837326
3939842880
3939848861
3939855270
3939859664
3939865951
3939871810
3939877242
3939882492
3939890060
3939896346
3939901412
3939908492
3939913925
3939919174
3939924606
3939930038
3939937362
3939942306
3939948959
3939954025
3939959518
3939966170
3939971542
3939976974
3939982894
3939989303
3939993819
3940000289
3940005599
3940010970
3940019332
3940027267
3940034041
3940039840
3940046798
3940052474
3940059127
3940068465
3940074569
3940080062
3940086348
3940090316
3940097030
3940101363
3940109114
3940114425
3940119918
3940125960
3940131453
3940136397
3940142073
3940147872
3940153365
3940160140
3940164229
3940170760
3940176802
3940183089
3940193770
3940201094
3940208357
3940213851
3940218977
3940224532
3940230574
3940236067
3940242964
3940247664
3940255049
3940260420
3940266219
3940269514
3940278059
3940284895
3940290083
3940296187
3940300703
3940308211
3940312727
3940319258
3940324324
3940330610
3940335310
3940342390
3940345686
3940353743
3940359114
3940364729
3940370283
3940376021
3940381697
3940387373
3940393049
3940397505
3940405134
3940408979
3940416304
3940422285
3940428266
3940434858
3940439253
3940445173
3940450544
3940457563
3940463056
3940468855
3940474043
3940478620
3940486067
3940491926
3940497236
3940503462
3940507368
3940513410
3940519209
3940524336
3940529218
3940536848
3940543317
3940548750
3940554548
3940559187
3940566633
3940573530
3940583417
3940588911
3940595258
3940600873
3940607587
3940613386
3940618818
3940626020
3940632856
3940638288
3940643537
3940649091
3940654462
3940660077
3940666242
3940672040
3940677594
3940683515
3940689862
3940694562
3940701032
3940705854
3940712140
3940718244
3940723737
3940728864
3940734479
3940741803
3940747907
3940753400
3940758039
3940764813
3940769513
3940775617
3940782331
3940787763
3940791181
3940799359
3940804120
3940809796
3940815473
3940820966
3940826642
3940832257
3940839032
3940843915
3940851483
3940854779
3940862775
3940867047
3940872418
3940880658
3940885480
3940891644
3940896161
3940902569
3940908307
3940914227
3940921124
3940927228
3940931927
3940938763
3940944012
3940950116
3940955426
3940961346
3940967267
3940972882
3940977337
3940988018
3940993695
3940997723
3941004803
3941010907
3941017193
3941020428
3941027569
3941033306
3941038555
3941045330
3941051190
3941056927
3941061627
3941068707
3941073834
3941079327
3941086529
3941094769
3941100750
3941106732
3941112652
3941119549
3941124065
3941132610
3941141460
3941147808
3941152935
3941158062
3941164593
3941169353
3941177715
3941180889
3941188702
3941192119
3941200786
3941205730
3941211407
3941217144
3941222576
3941228252
3941233867
3941239727
3941245220
3941252117
3941256695
3941262920
3941269573
3941275371
3941281170
3941286785
3941292705
3941298198
3941305217
3941309185
3941316265
3941320903
3941327678
3941332256
3941339153
3941342693
3941351299
3941356304
3941361858
3941367473
3941373088
3941379985
3941384014
3941391216
3941397258
3941402934
3941407512
3941414287
3941419048
3941425334
3941429973
3941437053
3941442790
3941448405
3941454936
3941460551
3941466533
3941472148
3941478618
3941484416
3941489116
3941495891
3941501628
3941506450
3941512004
3941518413
3941524455
3941529521
3941535563
3941540751
3941546733
3941552348
3941557231
3941564372
3941569865
3941576945
3941581889
3941587382
3941593608
3941597636
3941605021
3941610087
3941616679
3941621318
3941628031
3941633830
3941640544
3941648966
3941655741
3941664408
3941673136
3941681864
3941686564
3941694682
3941699564
3941704997
3941711588
3941717326
3941722575
3941730875
3941736247
3941741740
3941747538
3941753214
3941757609
3941764140
3941768778
3941776591
3941780009
3941788004
3941793497
3941798991
3941804484
3941809916
3941816874
3941821024
3941827677
3941833780
3941838968
3941843546
3941849772
3941856485
3941862040
3941867777
3941873392
3941879984
3941884256
3941891214
3941897379
3941902445
3941907145
3941913797
3941920633
3941926248
3941931681
3941937174
3941943216
3941949930
3941955362
3941961099
3941965982
3941971720
3941977823
3941983499
3941989053
3941994364
3941999918
3942006510
3942012247
3942017191
3942022073
3942030130
3942035684
3942041788
3942047647
3942052408
3942058328
3942064554
3942070108
3942075662
3942080728
3942086954
3942092935
3942097879
3942103738
3942109231
3942114114
3942120157
3942124612
3942131143
3942136514
3942141763
3942147622
3942152994
3942160318
3942167032
3942174905
3942181558
3942188577
3942196572
3942201455
3942209756
3942214944
3942221841
3942227273
3942232949
3942239053
3942244973
3942250588
3942256631
3942261514
3942267495
3942273843
3942278542
3942286294
3942291909
3942297402
3942301370
3942308083
3942313332
3942320168
3942325906
3942331765
3942337807
3942342446
3942348000
3942354165
3942359292
3942365273
3942371499
3942376870
3942383095
3942386452
3942393532
3942399819
3942405617
3942412819
3942417946
3942422829
3942428322
3942434914
3942439126
3942446633
3942451333
3942458352
3942462929
3942468300
3942472939
3942479897
3942484597
3942491127
3942498146
3942503701
3942509255
3942514687
3942520241
3942525795
3942531655
3942537758
3942545082
3942549843
3942556130
3942560768
3942566994
3942572609
3942578041
3942584694
3942590737
3942596169
3942600624
3942606606
3942611000
3942618935
3942623573
3942628944
3942635902
3942640358
3942646828
3942651466
3942657570
3942664284
3942669777
3942676063
3942679970
3942687233
3942691872
3942699013
3942706947
3942715980
3942722084
3942727394
3942734840
3942738380
3942747596
3942751564
3942759315
3942764625
3942770363
3942776527
3942782447
3942787696
3942794838
3942800453
3942805275
3942812782
3942816139
3942823768
3942830238
3942836219
3942841712
3942847084
3942853431
3942857704
3942864967
3942869239
3942875343
3942881385
3942887672
3942894691
3942900489
3942903663
3942910377
3942916785
3942922340
3942928626
3942934180
3942939429
3942945045
3942950660
3942956580
3942962684
3942967384
3942974403
3942979102
3942985999
3942989295
3942996558
3943002601
3943008277
3943014319
3943019752
3943025367
3943031043
3943037452
3943043555
3943049231
3943055274
3943060889
3943065284
3943072303
3943075415
3943083411
3943088172
3943093604
3943100013
3943105750
3943110999
3943115515
3943122962
3943128028
3943133277
3943139990
3943143958
3943150672
3943156531
3943162390
3943166846
3943172827
3943178259
3943185034
3943189978
3943195288
3943200903
3943206702
3943212683
3943217444
3943224402
3943230872
3943236792
3943243018
3943248816
3943254431
3943260840
3943267493
3943274084
3943280798
3943289526
3943295019
3943299963
3943305456
3943312842
3943318396
3943324011
3943330664
3943335974
3943340735
3943346899
3943351538
3943358374
3943364294
3943369970
3943375952
3943381323
3943387243
3943392981
3943399206
3943405188
3943410681
3943416662
3943421179
3943427099
3943433203
3943438024
3943444738
3943450659
3943456152
3943461706
3943467199
3943473791
3943477880
3943485143
3943489721
3943495825
3943502416
3943507360
3943512060
3943519018
3943526037
3943531530
3943537817
3943543432
3943549352
3943553625
3943561010
3943565343
3943574132
3943579748
3943586217
3943590856
3943599157
3943603918
3943609289
3943616430
3943622289
3943628026
3943632848
3943640050
3943643285
3943650548
3943657262
3943662816
3943668737
3943674596
3943679601
3943685033
3943690953
3943696874
3943703466
3943708287
3943714208
3943719030
3943726781
3943732457
3943738256
3943744359
3943749791
3943756322
3943762181
3943766820
3943772374
3943779210
3943785497
3943792821
3943798985
3943803990
3943810155
3943815648
3943823033
3943828648
3943837437
3943842992
3943848058
3943853734
3943859898
3943865514
3943871739
3943877843
3943883702
3943888524
3943895726
3943901524
3943907078
3943912999
3943918431
3943924534
3943930211
3943935582
3943941075
3943946751
3943952305
3943958470
3943964634
3943985814
3943993016
3943998326
3944003941
3944011326
3944017369
3944021824
3944027867
3944033299
3944038182
3944045140
3944052159
3944057957
3944063389
3944069248
3944075779
3944081211
3944086521
3944092625
3944098118
3944103855
3944109715
3944115269
3944119846
3944127415
3944133640
3944139133
3944144810
3944150486
3944156223
3944161899
3944167393
3944174839
3944181064
3944185703
3944191746
3944198459
3944203953
3944209690
3944215305
3944218662
3944227146
3944232334
3944238254
3944243992
3944248447
3944254978
3944260837
3944266269
3944272068
3944277378
3944283054
3944288913
3944294101
3944298740
3944307041
3944311252
3944319248
3944325351
3944329746
3944335910
3944343845
3944353122
3944359897
3944364475
3944371738
3944377780
3944383090
3944387973
3944395053
3944399570
3944406162
3944412753
3944418796
3944424716
3944430392
3944436984
3944442599
3944447787
3944453220
3944459689
3944463962
3944470187
3944476108
3944481723
3944487765
3944494052
3944498813
3944504916
3944509494
3944516086
3944523410
3944528171
3944532199
3944536471
3944541049
3944545688
3944548922
3944553012
3944558810
3944562228
3944566684
3944570163
3944575290
3944579196
3944583346
3944587924
3944592013
3944597201
3944600253
3944604647
3944608615
3944613131
3944617648
3944622348
3944626010
3944630770
3944634249
3944639254
3944642733
3944648348
3944651339
3944656771
3944661959
3944665377
3944670138
3944674288
3944679293
3944684176
3944690279
3944695223
3944699557
3944704623
3944708956
3944713900
3944718783
3944724276
3944728365
3944733370
3944738680
3944743075
3944745577
3944751009
3944754793
3944760226
3944765047
3944769503
3944773592
3944778048
3944782381
3944787935
3944793795
3944799349
3944806124
3944811556
3944817782
3944822786
3944827242
3944833407
3944837679
3944843721
3944847811
3944852449
3944856722
3944861055
3944868074
3944871920
3944875887
3944880526
3944884188
3944888765
3944893038
3944896822
3944903658
3944907991
3944912020
3944915743
3944920748
3944924349
3944930269
3944933016
3944938814
3944944063
3944948580
3944952791
3944957186
3944961153
3944965608
3944971224
3944976412
3944980135
3944984834
3944988924
3944992403
3944997652
3945001436
3945005464
3945011263
3945016267
3945019197
3945024995
3945029451
3945033846
3945039033
3945043916
3945049593
3945053255
3945055757
3945061983
3945064668
3945070955
3945075654
3945080110
3945085176
3945090181
3945095613
3945100191
3945105745
3945110017
3945117036
3945121370
3945126924
3945132844
3945138521
3945146150
3945151948
3945157075
3945162446
3945168367
3945174531
3945178987
3945184358
3945189119
3945195100
3945200105
3945204255
3945211091
3945216218
3945222016
3945226533
3945231904
3945237214
3945242219
3945248933
3945255219
3945261628
3945264741
3945271638
3945275361
3945283357
3945289277
3945293000
3945298921
3945305085
3945308442
3945314118
3945317780
3945322419
3945327485
3945331818
3945336152
3945341035
3945346894
3945351350
3945357270
3945361787
3945366181
3945371369
3945376191
3945380402
3945387971
3945392304
3945397980
3945402558
3945406952
3945410920
3945416230
3945420197
3945426545
3945431489
3945437775
3945442353
3945447663
3945452301
3945457673
3945462128
3945470429
3945475190
3945481781
3945486115
3945492707
3945496979
3945501190
3945507355
3945510773
3945519318
3945524994
3945528900
3945532013
3945540009
3945543305
3945549225
3945554291
3945562348
3945566376
3945572724
3945578217
3945583038
3945589325
3945594147
3945598358
3945607330
3945611786
3945616669
3945623505
3945627594
3945633697
3945639435
3945643890
3945650909
3945656952
3945663116
3945667511
3945673736
3945678253
3945684662
3945690826
3945699615
3945705047
3945710602
3945715851
3945723236
3945729645
3945732269
3945739471
3945745147
3945752899
3945755096
3945763763
3945767303
3945774322
3945777618
3945784027
3945790008
3945797699
3945803680
3945810394
3945815460
3945823089
3945827850
3945835601
3945840179
3945848602
3945853301
3945859344
3945864410
3945869659
3945873748
3945879180
3945884979
3945890411
3945896514
3945900543
3945907256
3945912933
3945918548
3945922088
3945928558
3945933807
3945940704
3945946868
3945951141
3945955962
3945961883
3945968108
3945972198
3945976470
3945984649
3945991363
3945996428
3946002532
3946006743
3946012481
3946017058
3946022796
3946029387
3946035247
3946040191
3946045806
3946047881
3946056060
3946061675
3946065886
3946071013
3946078154
3946084563
3946089080
3946093901
3946098906
3946105132
3946110564
3946114836
3946121550
3946126067
3946132353
3946137114
3946142912
3946148772
3946153472
3946159697
3946163664
3946170989
3946174773
3946182524
3946186369
3946192656
3946197844
3946203703
3946207426
3946216093
3946221831
3946228423
3946233855
3946238249
3946243010
3946249968
3946254912
3946262480
3946266997
3946272673
3946277617
3946283476
3946289213
3946293791
3946299650
3946303190
3946312651
3946316374
3946322661
3946328154
3946333342
3946339445
3946344572
3946348967
3946356413
3946361601
3946367765
3946374479
3946380705
3946385527
3946390654
3946397734
3946404203
3946410490
3946417021
3946423307
3946428068
3946434660
3946438505
3946445707
3946450224
3946457609
3946462065
3946467741
3946471281
3946478849
3946482145
3946488920
3946494596
3946501920
3946505399
3946513273
3946517240
3946523771
3946529142
3946534330
3946540861
3946547208
3946553922
3946558866
3946563077
3946569425
3946573759
3946579618
3946585233
3946590543
3946596525
3946601835
3946606351
3946611966
3946617948
3946621366
3946628141
3946633329
3946641568
3946646940
3946652005
3946656705
3946662564
3946668912
3946674283
3946678556
3946684293
3946690335
3946696134
3946700894
3946706937
3946712308
3946717130
3946721463
3946726590
3946734342
3946738797
3946744473
3946748075
3946753995
3946758878
3946765042
3946769559
3946776395
3946781033
3946787686
3946792264
3946798611
3946803006
3946809110
3946813260
3946817044
3946826749
3946831265
3946837064
3946840359
3946847867
3946851163
3946857632
3946862698
3946870633
3946876004
3946880826
3946885708
3946891446
3946897244
3946902188
3946908536
3946915249
3946921902
3946927273
3946933682
3946939480
3946945523
3946949734
3946957364
3946962490
3946970486
3946977932
3946986721
3946993008
3946998074
3947004360
3947009976
3947018093
3947023831
3947029873
3947034329
3947039517
3947043972
3947049404
3947054409
3947061062
3947066372
3947071743
3947077969
3947083157
3947087612
3947093227
3947098904
3947103970
3947109646
3947114346
3947120205
3947124783
3947137356
3947147182
3947153652
3947163113
3947171230
3947178127
3947182400
3947188015
3947192653
3947199367
3947202480
3947209804
3947213100
3947220119
3947225795
3947231044
3947234890
3947240505
3947246608
3947251735
3947257351
3947261562
3947267299
3947271389
3947277675
3947281826
3947289028
3947295070
3947298854
3947305202
3947310085
3947315822
3947320827
3947326930
3947331874
3947337917
3947342739
3947349819
3947354823
3947360317
3947364589
3947370265
3947374721
3947381679
3947387721
3947393214
3947398830
3947401027
3947409267
3947414211
3947419887
3947423854
3947430080
3947435573
3947441920
3947445338
3947452235
3947457179
3947462916
3947467860
3947475368
3947480433
3947485988
3947490321
3947496181
3947501857
3947507045
3947512782
3947519252
3947525172
3947530482
3947536769
3947542872
3947549220
3947555384
3947561488
3947568812
3947575831
3947582423
3947588710
3947594081
3947599818
3947605250
3947610255
3947614649
3947620509
3947625819
3947631007
3947634181
3947641749
3947645106
3947651515
3947657862
3947663111
3947667201
3947672572
3947678126
3947682520
3947685877
3947694666
3947698450
3947705836
3947709315
3947716700
3947721522
3947725733
3947732142
3947739222
3947744532
3947749903
3947754175
3947760096
3947764612
3947771021
3947775355
3947783289
3947789026
3947794764
3947799036
3947804773
3947810389
3947814295
3947820276
3947823877
3947832178
3947836268
3947842188
3947847132
3947853052
3947857752
3947863489
3947869837
3947876245
3947881189
3947887354
3947893396
3947897730
3947903528
3947909510
3947914453
3947920313
3947926782
3947932642
3947938013
3947943018
3947948755
3947952112
3947960108
3947966516
3947972131
3947978235
3947982568
3947989038
3947994470
3947998804
3948004602
3948010950
3948015527
3948022546
3948029138
3948034692
3948041894
3948047693
3948053247
3948064172
3948071557
3948080102
3948086694
3948089441
3948102014
3948107080
3948115991
3948123620
3948136865
3948144006
3948153650
3948160791
3948167138
3948178247
3948186364
3948193750
3948200708
3948208093
3948219323
3948225488
3948233605
3948240075
3948247277
3948252831
3948258019
3948263146
3948271996
3948277734
3948283959
3948287865
3948294701
3948297875
3948304406
3948309594
3948316186
3948322594
3948327172
3948333398
3948339074
3948342919
3948347985
3948352135
3948359704
3948365868
3948371178
3948378075
3948382775
3948388024
3948394372
3948400231
3948405236
3948413781
3948418786
3948425683
3948430321
3948436669
3948441979
3948449791
3948453942
3948460289
3948468956
3948476647
3948482262
3948486473
3948491417
3948501122
3948504723
3948510826
3948515648
3948521202
3948525841
3948531761
3948538048
3948545006
3948550682
3948554955
3948561730
3948567162
3948573448
3948577843
3948584801
3948588707
3948595909
3948601952
3948608055
3948613670
3948619225
3948623985
3948631004
3948635765
3948639732
3948648643
3948652611
3948661095
3948665062
3948672325
3948677818
3948682579
3948687279
3948695762
3948703087
3948709251
3948714561
3948720176
3948726524
3948732505
3948737693
3948744224
3948750206
3948756736
3948761558
3948768760
3948773765
3948779502
3948786216
3948791465
3948799766
3948807273
3948813560
3948818809
3948824546
3948829490
3948835716
3948840965
3948846519
3948852500
3948858482
3948862998
3948870261
3948874778
3948882163
3948886802
3948893577
3948899375
3948904563
3948910789
3948918052
3948923179
3948928428
3948934653
3948941184
3948945945
3948952598
3948956931
3948962974
3948968833
3948970847
3948978843
3948982444
3948990073
3948996238
3949000693
3949006980
3949011680
3949016868
3949022544
3949027182
3949036277
3949041892
3949046958
3949053855
3949059226
3949065573
3949070517
3949076194
3949080100
3949087668
3949091819
3949099326
3949103049
3949109824
3949114707
3949120322
3949125022
3949133322
3949138938
3949143881
3949150107
3949155295
3949160239
3949167014
3949171713
3949178671
3949184226
3949188803
3949194724
3949198080
3949205405
3949210226
3949216696
3949222128
3949227743
3949233481
3949240805
3949245077
3949251730
3949256613
3949262350
3949266745
3949274740
3949279928
3949285605
3949290548
3949296713
3949301046
3949307272
3949311728
3949317648
3949323813
3949329550
3949335287
3949340963
3949345297
3949350180
3949356955
3949363241
3949370687
3949376486
3949382589
3949387533
3949395040
3949400656
3949406820
3949411459
3949420614
3949426779
3949432455
3949438925
3949444601
3949449056
3949455038
3949459310
3949466818
3949472799
3949479696
3949484029
3949489950
3949496236
3949503378
3949507955
3949514852
3949519735
3949524740
3949531209
3949536092
3949542135
3949547018
3949551290
3949558187
3949562826
3949568990
3949573873
3949577474
3949584676
3949590719
3949595846
3949601034
3949608602
3949614461
3949620076
3949626973
3949632711
3949637288
3949642049
3949647786
3949655172
3949661580
3949671407
3949678426
3949686971
3949694722
3949701314
3949709554
3949716268
3949724568
3949731648
3949737203
3949743855
3949750020
3949756246
3949762898
3949770284
3949777791
3949784871
3949792195
3949798787
3949805623
3949811787
3949820393
3949827718
3949835286
3949842061
3949847981
3949854207
3949861531
3949868306
3949876362
3949881001
3949888753
3949894185
3949901997
3949908589
3949913655
3949917988
3949922749
3949928181
3949932148
3949936238
3949940876
3949944844
3949949604
3949954243
3949958882
3949962605
3949968342
3949972431
3949977742
3949982868
3949990437
3949994709
3950000447
3950005024
3950010151
3950014668
3950019123
3950025288
3950029621
3950034504
3950039143
3950043598
3950047382
3950052631
3950056294
3950061421
3950065083
3950070210
3950075642
3950080402
3950084003
3950088276
3950093281
3950098103
3950102741
3950107502
3950111896
3950115131
3950120136
3950124531
3950130634
3950134846
3950139362
3950143085
3950148273
3950152057
3950157978
3950162372
3950168720
3950171833
3950178058
3950183002
3950188068
3950190815
3950196918
3950201130
3950206562
3950211994
3950216816
3950219623
3950226032
3950228840
3950235065
3950238056
3950246357
3950251850
3950257465
3950261005
3950267047
3950271808
3950277606
3950282062
3950290546
3950296039
3950302692
3950307392
3950312519
3950316669
3950322955
3950327045
3950333454
3950338275
3950344867
3950349078
3950354694
3950359027
3950364154
3950368427
3950373554
3950381610
3950386493
3950390155
3950398517
3950400165
3950407611
3950413348
3950419208
3950425738
3950430804
3950436297
3950442157
3950446612
3950452350
3950460162
3950467059
3950474383
3950478839
3950485553
3950492328
3950500262
3950505694
3950513202
3950518084
3950524310
3950529254
3950535907
3950540484
3950546344
3950549334
3950558062
3950563494
3950568988
3950575030
3950579302
3950585406
3950588946
3950596270
3950602618
3950607745
3950612445
3950617938
3950622393
3950627764
3950633685
3950640399
3950644854
3950651995
3950656329
3950663470
3950670184
3950675188
3950681963
3950687334
3950693560
3950699297
3950704607
3950710894
3950715472
3950722552
3950727190
3950734576
3950739092
3950744036
3950749834
3950755388
3950761004
3950766314
3950770586
3950774248
3950782305
3950789019
3950793291
3950798906
3950803606
3950809527
3950815752
3950820574
3950831255
3950835222
3950841326
3950847918
3950854692
3950860674
3950867632
3950873430
3950881792
3950885027
3950891802
3950898638
3950903459
3950908708
3950915483
3950920854
3950927873
3950933489
3950939470
3950944780
3950950273
3950954485
3950960283
3950965898
3950971513
3950978166
3950984758
3950989519
3950996049
3951000810
3951006181
3951012834
3951018083
3951025285
3951029008
3951036333
3951042741
3951049028
3951054277
3951061967
3951066545
3951075212
3951081071
3951089677
3951095964
3951101518
3951108232
3951113603
3951116777
3951124101
3951129350
3951133378
3951139054
3951144242
3951147966
3951154679
3951157792
3951165666
3951171586
3951176957
3951180009
3951186112
3951190934
3951197953
3951201554
3951211015
3951214799
3951221940
3951227433
3951231706
3951236466
3951242082
3951248185
3951254411
3951259782
3951265580
3951271195
3951276383
3951280900
3951286637
3951292558
3951297868
3951303910
3951309403
3951315079
3951319474
3951325333
3951328873
3951335831
3951339188
3951346146
3951351334
3951357621
3951362931
3951368546
3951372757
3951379227
3951383561
3951390580
3951396500
3951401322
3951407059
3951414383
3951419693
3951427872
3951433792
3951440750
3951448441
3951455033
3951459977
3951464371
3951473587
3951477982
3951486893
3951489334
3951499771
3951503800
3951512711
3951516739
3951524552
3951534195
3951541947
3951545853
3951554764
3951560318
3951567337
3951572708
3951580093
3951585831
3951590958
3951596207
3951603714
3951609329
3951615372
3951621719
3951628921
3951633255
3951639419
3951644241
3951651321
3951657547
3951666641
3951673416
3951680740
3951684585
3951692459
3951696609
3951705215
3951709610
3951717849
3951722549
3951728286
3951733352
3951740310
3951747024
3951753250
3951756973
3951763381
3951769607
3951775344
3951778640
3951785232
3951789932
3951796829
3951802078
3951807632
3951812454
3951818435
3951822769
3951828750
3951832961
3951840347
3951846267
3951852493
3951857070
3951864883
3951869460
3951876723
3951881667
3951888320
3951893203
3951900344
3951906997
3951914016
3951919204
3951925063
3951931960
3951938430
3951943740
3951950515
3951955215
3951960525
3951966201
3951973037
3951977370
3951983901
3951989516
3951995925
3952001723
3952006362
3952012954
3952017653
3952023696
3952030104
3952033828
3952042434
3952051100
3952056777
3952062941
3952068923
3952075759
3952082839
3952087599
3952091200
3952099257
3952104445
3952109206
3952114089
3952122939
3952128005
3952133498
3952140028
3952145033
3952151259
3952154860
3952161574
3952166701
3952176283
3952181776
3952187697
3952193007
3952199416
3952205763
3952211989
3952216749
3952221998
3952228773
3952235670
3952240553
3952244154
3952251539
3952259840
3952265516
3952270521
3952280043
3952286085
3952291090
3952295851
3952303602
3952308790
3952315748
3952320143
3952325514
3952331312
3952337843
3952342115
3952348585
3952353163
3952358961
3952363417
3952368849
3952376966
3952382704
3952388319
3952391676
3952397962
3952402784
3952408460
3952412733
3952421095
3952426161
3952430616
3952436353
3952441969
3952446424
3952452528
3952456861
3952460157
3952470899
3952475843
3952481458
3952484998
3952490980
3952495924
3952502698
3952507703
3952514417
3952520215
3952526197
3952531080
3952537183
3952543653
3952549756
3952554700
3952561475
3952568311
3952573865
3952580396
3952583997
3952591382
3952596936
3952601819
3952606641
3952612989
3952618848
3952624524
3952629041
3952635572
3952639783
3952645276
3952651563
3952657544
3952664441
3952670056
3952675794
3952679151
3952685926
3952690869
3952696546
3952701978
3952709912
3952714978
3952721936
3952726575
3952733228
3952738171
3952742139
3952749219
3952755811
3952761121
3952766980
3952772656
3952777661
3952783643
3952788525
3952794568
3952796582
3952806775
3952813977
3952819287
3952826367
3952830823
3952837048
3952841931
3952848950
3952857068
3952863171
3952869641
3952875317
3952883069
3952887402
3952895031
3952901318
3952907299
3952916272
3952922131
3952927807
3952933117
3952937268
3952942639
3952945690
3952953320
3952959545
3952965283
3952968640
3952975292
3952978649
3952985424
3952990307
3952996899
3953002331
3953008618
3953013500
3953018566
3953024609
3953030041
3953034435
3953040661
3953046459
3953053051
3953057385
3953063305
3953067638
3953073803
3953078136
3953081493
3953090588
3953094433
3953101940
3953105480
3953112438
3953117870
3953123363
3953128185
3953135204
3953141552
3953148632
3953152904
3953158153
3953163830
3953170055
3953174755
3953178600
3953187816
3953193615
3953199352
3953203014
3953209972
3953213268
3953219371
3953224315
3953231762
3953237682
3953244213
3953249401
3953254100
3953260326
3953266185
3953271190
3953274852
3953283214
3953287120
3953294872
3953300487
3953304759
3953309703
3953316173
3953321178
3953327037
3953332103
3953337413
3953342052
3953348644
3953353648
3953359447
3953365672
3953373607
3953380321
3953386119
3953391978
3953396251
3953401927
3953405528
3953412547
3953415843
3953424205
3953428111
3953435008
3953441173
3953445567
3953451671
3953458201
3953462840
3953470958
3953476329
3953482188
3953487620
3953493541
3953500621
3953505809
3953510447
3953518138
3953522837
3953527781
3953533580
3953539134
3953543589
3953548655
3953552928
3953563731
3953570079
3953575633
3953580149
3953585948
3953591929
3953596995
3953601756
3953608286
3953613413
3953619273
3953625437
3953630076
3953634409
3953640330
3953645945
3953652720
3953658579
3953663645
3953669199
3953674387
3953678721
3953684214
3953690440
3953694224
3953705027
3953709421
3953716685
3953719980
3953725291
3953729502
3953736460
3953741160
3953746470
3953753061
3953757700
3953761789
3953768320
3953772410
3953777536
3953783030
3953786203
3953795603
3953801401
3953805368
3953810556
3953814524
3953817514
3953824167
3953828379
3953835337
3953838938
3953845835
3953850595
3953855783
3953860361
3953866281
3953870554
3953876474
3953882150
3953887033
3953893320
3953898691
3953905405
3953911081
3953918283
3953923898
3953929147
3953936533
3953942270
3953950571
3953956552
3953963083
3953970895
3953973398
3953987497
3953993356
3954002634
3954009042
3954018014
3954024057
3954026987
3954037118
3954042123
3954053110
3954065072
3954073678
3954082773
3954091256
3954097787
3954107858
3954114938
3954126596
3954133615
3954144845
3954149118
3954159066
3954163644
3954171273
3954177926
3954186166
3954191903
3954198739
3954206613
3954213387
3954219979
3954227609
3954234445
3954236947
3954247567
3954254220
3954260079
3954266732
3954275338
3954279977
3954286996
3954293038
3954301339
3954309212
3954315865
3954321847
3954326546
3954336373
3954343026
3954349862
3954356270
3954363167
3954369027
3954375863
3954383736
3954391549
3954398385
3954404427
3954410530
3954415841
3954428902
3954436348
3954443917
3954451912
3954457955
3954465157
3954473335
3954480171
3954485176
3954495247
3954502815
3954509346
3954516792
3954522225
3954532478
3954537422
3954545540
3954552193
3954559395
3954568794
3954572212
3954583321
3954587715
3954597237
3954603767
3954611275
3954617927
3954622200
3954631477
3954639229
3954647712
3954655159
3954660530
3954669380
3954676643
3954683784
3954690315
3954695625
3954705757
3954711006
3954718391
3954724311
3954733467
3954739448
3954745430
3954751777
3954759040
3954770149
3954775886
3954784065
3954791206
3954797004
3954807563
3954812324
3954820258
3954829780
3954835456
3954847236
3954853217
3954860664
3954867805
3954873420
3954883308
3954892524
3954899848
3954907477
3954917060
3954924628
3954930915
3954939582
3954949958
3954958259
3954963569
3954971320
3954978522
3954985907
3954992438
3954999457
3955005194
3955012458
3955016242
3955023993
3955029120
3955035224
3955040839
3955047858
3955053046
3955057929
3955064337
3955069464
3955074286
3955082526
3955087714
3955094184
3955099677
3955105963
3955111334
3955117011
3955122565
3955128180
3955134406
3955138861
3955143744
3955149970
3955154486
3955161261
3955166266
3955172613
3955178351
3955184271
3955188788
