3652208789
3652213245
3652218738
3652224842
3652230701
3652236011
3652240955
3652245594
3652250721
3652255970
3652260913
3652265857
3652270374
3652276538
3652282154
3652288074
3652294300
3652300647
3652306262
3652313098
3652319873
3652325366
3652332019
3652338489
3652344531
3652351367
3652357898
3652362903
3652369739
3652377856
3652384204
3652391772
3652400622
3652416797
3652422656
3652429553
3652439502
3652445544
3652452441
3652460498
3652468799
3652473803
3652482959
3652489062
3652497119
3652503955
3652511584
3652517566
3652525317
3652532397
3652540087
3652546862
3652554492
3652563159
3652570666
3652579455
3652586840
3652594225
3652601794
3652608080
3652617846
3652624377
3652631091
3652637682
3652645678
3652651598
3652660387
3652669360
3652675402
3652684130
3652690966
3652698168
3652705492
3652712633
3652721483
3652727648
3652737475
3652746081
3652752672
3652761339
3652768419
3652778307
3652784288
3652792955
3652800097
3652808336
3652814867
3652822985
3652830614
3652837755
3652845201
3652851732
3652859362
3652867296
3652874803
3652882006
3652889757
3652895311
3652903490
3652909715
3652918443
3652925829
3652931383
3652940172
3652945177
3652953478
3652958788
3652967210
3652975755
3652982957
3652992479
3653001878
3653008104
3653018114
3653025621
3653035020
3653043077
3653054674
3653061693
3653069139
3653078172
3653083970
3653092637
3653100633
3653106981
3653114854
3653122972
3653128465
3653137010
3653146531
3653153916
3653160508
3653167649
3653174302
3653181138
3653189256
3653195725
3653204148
3653210252
3653217820
3653224656
3653237473
3653247239
3653255906
3653262681
3653271958
3653281235
3653286607
3653297166
3653305344
3653312180
3653319199
3653326035
3653332871
3653341477
3653347397
3653356492
3653362473
3653371262
3653378525
3653386643
3653393723
3653400254
3653407761
3653416489
3653421799
3653429795
3653437058
3653445298
3653451035
3653459214
3653465927
3653474655
3653482285
3653489731
3653496750
3653504990
3653512009
3653517624
3653525681
3653533249
3653541550
3653547897
3653554916
3653562668
3653569565
3653576523
3653585007
3653591904
3653598190
3653605942
3653614303
3653620529
3653627609
3653634811
3653644211
3653651779
3653660751
3653668991
3653674850
3653682968
3653690048
3653697860
3653706649
3653712692
3653721298
3653730148
3653736190
3653744369
3653754379
3653763717
3653770736
3653780746
3653786239
3653795577
3653800704
3653808639
3653815841
3653822494
3653829696
3653837997
3653843490
3653852401
3653860275
3653868880
3653876754
3653886153
3653894820
3653902145
3653909041
3653914596
3653922713
3653930160
3653937118
3653942794
3653957381
3653965194
3653973922
3653980025
3653987899
3653993941
3654002852
3654012984
3654021102
3654027205
3654034529
3654042769
3654050093
3654058516
3654067732
3654073043
3654081587
3654088423
3654095137
3654101607
3654108077
3654116683
3654123885
3654131941
3654139449
3654146712
3654153975
3654160689
3654169417
3654176375
3654183638
3654190901
3654198469
3654205366
3654210554
3654219343
3654227644
3654234724
3654241743
3654248762
3654256148
3654263106
3654270063
3654277937
3654285872
3654292524
3654300459
3654307661
3654314741
3654322554
3654327986
3654335493
3654344099
3654349592
3654356794
3654362348
3654371076
3654379621
3654386335
3654393537
3654401777
3654409345
3654416792
3654423139
3654428877
3654436384
3654442793
3654456342
3654466352
3654471967
3654481977
3654489057
3654495832
3654505475
3654511945
3654519575
3654526410
3654533979
3654540571
3654546247
3654553266
3654560346
3654566449
3654571576
3654579023
3654584455
3654590131
3654596784
3654603864
3654609662
3654614850
3654621564
3654627057
3654633344
3654642682
3654648358
3654653852
3654661725
3654668561
3654674054
3654680341
3654687970
3654693402
3654699750
3654704755
3654710980
3654718305
3654726361
3654731976
3654739728
3654745404
3654750226
3654754926
3654762067
3654766095
3654771832
3654778607
3654782574
3654787884
3654794049
3654798932
3654803631
3654809674
3654816327
3654822552
3654827374
3654831647
3654836651
3654842206
3654846966
3654851666
3654858746
3654864483
3654869183
3654874798
3654879559
3654883954
3654890057
3654896649
3654902386
3654907086
3654912640
3654918255
3654922039
3654928021
3654932476
3654940045
3654946087
3654950909
3654955487
3654961590
3654966107
3654970989
3654976788
3654983807
3654990521
3654994488
3655003826
3655009136
3655016461
3655023968
3655028729
3655034161
3655040203
3655045269
3655051373
3655057537
3655061565
3655068279
3655073406
3655078655
3655084515
3655089764
3655095257
3655101726
3655107586
3655112652
3655118084
3655124676
3655129803
3655135723
3655139873
3655146038
3655153301
3655159404
3655166973
3655173137
3655179119
3655184551
3655191326
3655199077
3655204937
3655210002
3655215190
3655221782
3655227153
3655231914
3655239177
3655243938
3655250469
3655254619
3655260173
3655266216
3655271343
3655277873
3655282939
3655289348
3655294597
3655300212
3655304607
3655310161
3655315837
3655320842
3655326885
3655332378
3655336040
3655342387
3655346050
3655352336
3655357890
3655363444
3655369304
3655374126
3655380107
3655385783
3655389567
3655395427
3655402141
3655406230
3655411662
3655417155
3655421916
3655427836
3655432597
3655438273
3655443339
3655448710
3655455302
3655462138
3655467814
3655474284
3655479716
3655485637
3655490275
3655494792
3655502299
3655507792
3655512675
3655519755
3655525553
3655533427
3655537821
3655545817
3655550273
3655556803
3655562541
3655568278
3655573832
3655580241
3655585490
3655589518
3655596842
3655602580
3655607707
3655613566
3655619059
3655625224
3655631815
3655636881
3655643473
3655648173
3655654154
3655658610
3655664591
3655669901
3655676066
3655681437
3655690897
3655697306
3655702067
3655711344
3655717264
3655722513
3655728251
3655733988
3655738993
3655744913
3655750589
3655756205
3655762735
3655769205
3655774027
3655779154
3655785379
3655790323
3655796305
3655803202
3655809854
3655814920
3655819803
3655826334
3655832010
3655836649
3655841471
3655847879
3655853311
3655859354
3655865518
3655869669
3655876505
3655880777
3655886087
3655892618
3655898966
3655904276
3655909525
3655915018
3655920145
3655926187
3655931253
3655936868
3655943399
3655947610
3655954507
3655960489
3655965128
3655972147
3655976541
3655984170
3655988931
3655994241
3656000345
3656005655
3656010660
3656018472
3656023904
3656029764
3656035013
3656040628
3656045816
3656051614
3656057596
3656065164
3656070962
3656076638
3656082864
3656087747
3656093850
3656098855
3656103494
3656111001
3656115152
3656122781
3656127481
3656132669
3656138955
3656144204
3656149758
3656156045
3656160562
3656167092
3656172952
3656177651
3656183633
3656189736
3656195718
3656201882
3656213113
3656218423
3656223245
3656229775
3656236855
3656243508
3656248269
3656254250
3656259072
3656264626
3656269448
3656275674
3656281228
3656285439
3656291176
3656297280
3656300942
3656306008
3656311806
3656317849
3656321694
3656329506
3656335305
3656340188
3656344765
3656351052
3656356911
3656363320
3656368325
3656372231
3656379433
3656384682
3656389382
3656395852
3656402748
3656408364
3656412392
3656419960
3656425392
3656430458
3656436501
3656443276
3656449013
3656453163
3656458718
3656464577
3656470986
3656476418
3656483132
3656488197
3656493996
3656498268
3656504921
3656509804
3656516701
3656521767
3656528175
3656532570
3656537514
3656543373
3656549110
3656555397
3656561134
3656567238
3656573585
3656579262
3656585426
3656589516
3656596962
3656605263
3656611061
3656615272
3656620765
3656626625
3656630775
3656637123
3656643104
3656649208
3656653846
3656659706
3656664589
3656670082
3656676246
3656680519
3656686195
3656692360
3656697853
3656702797
3656706520
3656714027
3656721962
3656727699
3656732582
3656738136
3656744667
3656751136
3656756202
3656761024
3656766883
3656772132
3656779945
3656785743
3656791358
3656796058
3656802467
3656808448
3656812598
3656818153
3656824256
3656829566
3656834449
3656839820
3656845802
3656850135
3656856239
3656860206
3656866187
3656871986
3656878516
3656884864
3656889869
3656894874
3656900916
3656905982
3656912208
3656917579
3656924048
3656928565
3656934730
3656940833
3656945716
3656951880
3656957862
3656962256
3656970008
3656974524
3656980628
3656985572
3656990454
3656996009
3657002051
3657007544
3657014991
3657021216
3657025489
3657031470
3657037146
3657041663
3657049719
3657054419
3657059241
3657064673
3657071021
3657079993
3657085120
3657092261
3657098853
3657104590
3657110632
3657115027
3657121314
3657127539
3657133337
3657139685
3657143896
3657150122
3657155066
3657161414
3657166968
3657172888
3657177893
3657183386
3657189673
3657195166
3657201391
3657206518
3657212561
3657217993
3657223547
3657230139
3657234350
3657241675
3657251684
3657255591
3657261206
3657268225
3657273718
3657278906
3657283850
3657290075
3657295629
3657301001
3657305395
3657311071
3657317175
3657322729
3657327429
3657333471
3657338415
3657343420
3657348303
3657353247
3657359289
3657364965
3657370641
3657374853
3657382238
3657387365
3657392004
3657398046
3657402624
3657409277
3657415563
3657421484
3657427343
3657432226
3657437109
3657443395
3657449682
3657455297
3657460607
3657466222
3657472814
3657477453
3657484106
3657489416
3657495519
3657501806
3657505773
3657513036
3657517125
3657523412
3657529516
3657535924
3657540014
3657547277
3657552160
3657558019
3657562963
3657569432
3657575902
3657581151
3657588231
3657594030
3657600927
3657605504
3657611547
3657618077
3657622106
3657628270
3657634740
3657639989
3657645604
3657650853
3657656652
3657662023
3657667455
3657674230
3657679662
3657686192
3657690953
3657696935
3657703465
3657707677
3657714635
3657720189
3657725499
3657731236
3657736913
3657743871
3657751256
3657755772
3657762242
3657766637
3657774083
3657778966
3657785618
3657792637
3657798497
3657803807
3657808018
3657814183
3657820958
3657826207
3657831944
3657837254
3657842381
3657848790
3657853795
3657859044
3657864232
3657870884
3657875950
3657881871
3657886814
3657892979
3657897618
3657903599
3657908299
3657916233
3657921604
3657931309
3657936375
3657940708
3657947178
3657951817
3657958409
3657964756
3657969456
3657975010
3657981114
3657986973
3657991001
3657998081
3658002476
3658009129
3658015049
3658021763
3658026096
3658032871
3658037815
3658044163
3658049229
3658053989
3658061314
3658065403
3658072361
3658076694
3658082981
3658089451
3658095310
3658099888
3658105564
3658112156
3658119358
3658125583
3658132725
3658140415
3658145359
3658151462
3658156040
3658162204
3658168247
3658174717
3658179905
3658185886
3658191135
3658195652
3658202426
3658206882
3658213352
3658218540
3658224826
3658230442
3658235141
3658240268
3658246555
3658251132
3658257297
3658263584
3658267734
3658275668
3658281894
3658287326
3658293857
3658299533
3658310825
3658316562
3658322604
3658328525
3658332736
3658340060
3658345981
3658351169
3658357272
3658362338
3658368136
3658373263
3658378696
3658385287
3658391391
3658396029
3658401156
3658407199
3658412692
3658418796
3658423678
3658431064
3658439120
3658444796
3658451266
3658455661
3658462497
3658467318
3658473910
3658478244
3658484774
3658489840
3658495944
3658500888
3658507052
3658511752
3658518038
3658524874
3658530306
3658535556
3658541110
3658546420
3658552096
3658558627
3658563021
3658569735
3658575717
3658580538
3658585970
3658592440
3658598544
3658604830
3658612460
3658618014
3658623141
3658628085
3658634798
3658639376
3658645907
3658652315
3658657992
3658663119
3658670016
3658677096
3658682406
3658687594
3658694002
3658700106
3658704256
3658710970
3658716952
3658722139
3658728243
3658733431
3658739351
3658745882
3658750338
3658756868
3658762484
3658768526
3658772799
3658780489
3658787813
3658792208
3658800508
3658805635
3658810823
3658815706
3658822603
3658829500
3658836153
3658841707
3658847383
3658853365
3658859651
3658864961
3658870638
3658876497
3658881685
3658886995
3658891756
3658897554
3658901521
3658907442
3658913850
3658919405
3658924348
3658930330
3658935030
3658940523
3658948457
3658955904
3658963045
3658969270
3658975618
3658980318
3658985322
3658991548
3658998933
3659002717
3659010042
3659014802
3659020723
3659025850
3659030610
3659037080
3659041658
3659046479
3659052034
3659056611
3659062227
3659067781
3659074372
3659079255
3659085420
3659090303
3659094941
3659100862
3659106355
3659112336
3659117280
3659123872
3659128816
3659134553
3659139253
3659143098
3659149446
3659155793
3659160920
3659166352
3659172395
3659177461
3659183564
3659190522
3659196626
3659203278
3659208588
3659214326
3659220063
3659223908
3659230012
3659236359
3659242890
3659247773
3659253937
3659259797
3659266694
3659271638
3659276887
3659283417
3659288727
3659293915
3659300507
3659305207
3659311066
3659317170
3659321808
3659327668
3659334137
3659340363
3659345490
3659350495
3659356537
3659362458
3659369049
3659375153
3659378815
3659384613
3659389862
3659395356
3659399994
3659406159
3659411164
3659416962
3659423371
3659429657
3659436005
3659440888
3659446747
3659451203
3659456940
3659462799
3659468720
3659473480
3659479279
3659484223
3659489899
3659495941
3659500641
3659506256
3659511261
3659515900
3659523956
3659527924
3659533844
3659539886
3659544708
3659550079
3659554840
3659561249
3659567230
3659572052
3659579193
3659584198
3659589081
3659595062
3659601349
3659606170
3659611114
3659617340
3659622894
3659628509
3659634002
3659640167
3659645294
3659651031
3659655914
3659661895
3659666656
3659671417
3659677459
3659682708
3659689239
3659695953
3659702117
3659707794
3659714263
3659719268
3659725860
3659731658
3659735504
3659741363
3659747711
3659752288
3659758270
3659763458
3659769988
3659775176
3659781402
3659786834
3659793548
3659798614
3659804107
3659810699
3659816070
3659822234
3659827972
3659833343
3659838653
3659843291
3659851592
3659857696
3659862395
3659866546
3659873565
3659879912
3659885955
3659891692
3659895598
3659902190
3659906280
3659912322
3659916839
3659921904
3659929168
3659933989
3659938994
3659944610
3659949431
3659954985
3659960357
3659964263
3659970732
3659976775
3659981536
3659986296
3659992400
3659996672
3660002776
3660009429
3660014311
3660018767
3660024871
3660030852
3660034575
3660040557
3660046172
3660051299
3660057097
3660061797
3660066741
3660072661
3660077971
3660082793
3660090361
3660095000
3660099883
3660105437
3660109953
3660115691
3660121123
3660125822
3660133818
3660138884
3660143706
3660148955
3660154936
3660159209
3660165495
3660171477
3660176115
3660181242
3660186857
3660191252
3660197478
3660203215
3660210112
3660217436
3660222624
3660229033
3660233854
3660239958
3660243864
3660249723
3660256193
3660261869
3660266691
3660272367
3660277067
3660281767
3660287931
3660293364
3660299406
3660304777
3660309904
3660314909
3660320707
3660325468
3660331022
3660337370
3660341764
3660348844
3660355741
3660362882
3660368009
3660376615
3660381620
3660387357
3660395475
3660400602
3660406950
3660411955
3660419157
3660424894
3660429411
3660435148
3660442472
3660446561
3660452604
3660457548
3660463590
3660469572
3660475126
3660479886
3660485990
3660490751
3660496183
3660501249
3660506925
3660513090
3660518033
3660522672
3660527250
3660533414
3660538053
3660544339
3660550565
3660556363
3660561124
3660565580
3660571500
3660576261
3660583341
3660591214
3660598477
3660606473
3660613797
3660621549
3660629483
3660637235
3660645169
3660652493
3660659451
3660665677
3660672269
3660678677
3660685574
3660691190
3660695584
3660701505
3660706998
3660711880
3660718167
3660723660
3660729886
3660735928
3660741177
3660748807
3660753567
3660756985
3660764004
3660768521
3660773221
3660778897
3660784695
3660790310
3660794095
3660800015
3660804898
3660810452
3660816739
3660822110
3660828579
3660832547
3660838406
3660844082
3660850613
3660854336
3660861233
3660868374
3660873257
3660880398
3660884854
3660891384
3660896084
3660903469
3660909634
3660914761
3660919461
3660925259
3660930386
3660936245
3660940640
3660947598
3660952542
3660958706
3660965542
3660970913
3660975857
3660980984
3660988125
3660994412
3660999599
3661005886
3661011074
3661016872
3661021816
3661028835
3661034756
3661040859
3661046474
3661052578
3661058742
3661066006
3661071804
3661076565
3661082485
3661087856
3661094265
3661099636
3661104275
3661110805
3661116298
3661122524
3661127895
3661132534
3661139187
3661144130
3661149807
3661154873
3661160183
3661166835
3661172268
3661177761
3661184352
3661190151
3661196132
3661201320
3661208644
3661216091
3661224025
3661230190
3661235378
3661242641
3661247585
3661253993
3661259914
3661264430
3661270412
3661276332
3661280544
3661286708
3661293056
3661298183
3661304042
3661309352
3661315517
3661320827
3661326564
3661331813
3661338771
3661344691
3661349147
3661354030
3661362636
3661367946
3661373988
3661381251
3661388881
3661397609
3661402492
3661407557
3661412684
3661419215
3661425441
3661429225
3661434169
3661439906
3661444789
3661450404
3661456996
3661460963
3661467677
3661474025
3661479335
3661485255
3661490565
3661496058
3661501979
3661507655
3661513819
3661519679
3661523890
3661531275
3661535182
3661541163
3661545435
3661552577
3661559596
3661564906
3661570094
3661575221
3661581324
3661586573
3661593470
3661599757
3661604151
3661610316
3661615443
3661621912
3661626917
3661632288
3661638880
3661644312
3661650172
3661654444
3661660242
3661666834
3661673304
3661679590
3661685938
3661690577
3661696253
3661702418
3661707422
3661711695
3661719141
3661725306
3661731958
3661736780
3661743250
3661748987
3661755335
3661762720
3661767908
3661772730
3661779139
3661783350
3661789331
3661795496
3661801233
3661807459
3661812647
3661816919
3661823267
3661827478
3661834009
3661840112
3661845361
3661851282
3661856409
3661861597
3661868189
3661872217
3661878992
3661886377
3661894983
3661900476
3661905298
3661912012
3661917993
3661925012
3661930749
3661937524
3661942407
3661948694
3661954004
3661958887
3661965478
3661971582
3661977441
3661982629
3661989099
3661993432
3661998926
3662003442
3662009546
3662016198
3662020410
3662026696
3662032495
3662037805
3662044152
3662049340
3662055017
3662061547
3662067773
3662072473
3662077905
3662084069
3662088830
3662095117
3662101770
3662105798
3662113305
3662118127
3662123437
3662129357
3662134789
3662141808
3662147119
3662152490
3662159203
3662163842
3662170373
3662174645
3662181115
3662185998
3662192040
3662197594
3662203820
3662209801
3662215417
3662220605
3662226220
3662232690
3662238244
3662243554
3662248620
3662254967
3662259911
3662266930
3662275780
3662282433
3662287194
3662292138
3662298119
3662303490
3662309655
3662316063
3662320153
3662327172
3662331505
3662337792
3662343834
3662349083
3662355248
3662360436
3662365258
3662371910
3662377953
3662382775
3662388817
3662394860
3662399925
3662406029
3662410424
3662417382
3662422447
3662428856
3662434654
3662439415
3662448998
3662454552
3662460167
3662466942
3662471825
3662477501
3662483666
3662490013
3662494164
3662501366
3662505455
3662512291
3662517723
3662523277
3662529015
3662534202
3662539757
3662544945
3662550377
3662556969
3662561912
3662568626
3662573265
3662579246
3662585045
3662591209
3662595482
3662601402
3662607933
3662612205
3662619590
3662624229
3662630943
3662636436
3662641563
3662646934
3662652061
3662658470
3662663719
3662668663
3662675193
3662681114
3662685936
3662692283
3662698692
3662704551
3662710838
3662716148
3662721092
3662727378
3662731651
3662738548
3662744346
3662750572
3662756370
3662762473
3662767417
3662772178
3662778709
3662783836
3662789939
3662796226
3662802695
3662808311
3662812827
3662819602
3662826011
3662831199
3662836265
3662842979
3662847739
3662854270
3662859336
3662865500
3662870444
3662876548
3662882407
3662888022
3662893271
3662899009
3662904136
3662913169
3662920371
3662924582
3662931113
3662937278
3662941977
3662947715
3662954062
3662959555
3662966269
3662971152
3662977439
3662982077
3662988852
3662994406
3663003195
3663008444
3663013938
3663019126
3663025595
3663030661
3663034751
3663041281
3663048544
3663054709
3663059165
3663065329
3663070517
3663076437
3663080954
3663087119
3663095297
3663099814
3663106345
3663111899
3663117758
3663122458
3663128683
3663135641
3663139609
3663145895
3663149679
3663155722
3663159628
3663165732
3663172140
3663177206
3663183920
3663190207
3663195517
3663199850
3663207968
3663213644
3663219931
3663225729
3663231405
3663236471
3663243063
3663248068
3663252707
3663259359
3663264303
3663270285
3663276632
3663282186
3663287252
3663294271
3663300680
3663305502
3663311056
3663316793
3663322408
3663327841
3663335531
3663341390
3663344137
3663353842
3663358419
3663364828
3663370748
3663375448
3663381673
3663387594
3663392171
3663398153
3663404440
3663408407
3663415609
3663419820
3663426290
3663430318
3663438131
3663443746
3663448934
3663453878
3663460531
3663465169
3663472066
3663477682
3663483724
3663489705
3663496236
3663501912
3663508260
3663513082
3663519918
3663526143
3663531881
3663538533
3663543111
3663549642
3663555501
3663561605
3663566304
3663572469
3663578694
3663582784
3663588033
3663594808
3663600301
3663606954
3663612142
3663617269
3663622701
3663628072
3663634603
3663639241
3663645589
3663651570
3663656514
3663662496
3663667317
3663672932
3663678914
3663683919
3663690022
3663696492
3663700703
3663706624
3663712727
3663718037
3663722371
3663729512
3663735188
3663740559
3663746785
3663751912
3663756856
3663763447
3663769734
3663774556
3663781087
3663786580
3663791523
3663796895
3663801960
3663807271
3663814290
3663820271
3663826436
3663831318
3663835835
3663842854
3663847920
3663854573
3663860188
3663865742
3663871418
3663877217
3663883442
3663888874
3663896015
3663901997
3663906880
3663913105
3663917866
3663923786
3663929707
3663936299
3663941486
3663945576
3663951862
3663958332
3663963642
3663968403
3663975056
3663979450
3663985737
3663991047
3663997272
3664001972
3664007954
3664014606
3664020100
3664028095
3664034565
3664039631
3664046162
3664050922
3664056171
3664062885
3664069050
3664074787
3664081135
3664086567
3664091694
3664096515
3664103168
3664109760
3664114399
3664120075
3664126239
3664130878
3664136860
3664142841
3664147052
3664153522
3664160114
3664165302
3664171039
3664176288
3664182514
3664187641
3664193134
3664199787
3664205829
3664210529
3664216083
3664222003
3664227863
3664232135
3664238910
3664245197
3664250018
3664254047
3664261371
3664266132
3664271075
3664278888
3664283649
3664290485
3664296527
3664301715
3664307391
3664313922
3664318133
3664324298
3664330035
3664336078
3664342547
3664348041
3664353229
3664357318
3664365558
3664370807
3664376300
3664381366
3664385821
3664391375
3664397662
3664403521
3664413531
3664417315
3664423602
3664427813
3664434161
3664439288
3664445819
3664452044
3664458575
3664463702
3664469989
3664475238
3664482257
3664487078
3664492022
3664500018
3664504656
3664510638
3664516619
3664522784
3664529437
3664535845
3664542010
3664547808
3664554156
3664561541
3664567706
3664574175
3664582049
3664587176
3664593157
3664598711
3664605181
3664611224
3664616106
3664622332
3664629168
3664633623
3664640032
3664646563
3664652239
3664658892
3664665178
3664669451
3664675554
3664681658
3664685747
3664692827
3664697039
3664703692
3664709673
3664714922
3664721087
3664726275
3664732195
3664738909
3664744585
3664749346
3664755327
3664760210
3664765703
3664771868
3664778643
3664784136
3664789507
3664793535
3664800737
3664805193
3664810442
3664816973
3664822344
3664827837
3664834245
3664838945
3664845598
3664850176
3664856767
3664863542
3664869951
3664875810
3664881609
3664886491
3664891862
3664897844
3664903947
3664908830
3664915117
3664919817
3664926897
3664933610
3664939714
3664946184
3664951372
3664956315
3664962846
3664968645
3664973344
3664979509
3664985673
3664991533
3664995744
3665002397
3665006425
3665013749
3665017961
3665024369
3665030900
3665036210
3665041703
3665046830
3665052873
3665058549
3665063798
3665069291
3665076860
3665083207
3665090898
3665095658
3665100846
3665107133
3665112565
3665119706
3665124955
3665131669
3665136308
3665142533
3665147294
3665153336
3665158158
3665164445
3665170426
3665176286
3665182084
3665187333
3665193558
3665198930
3665204972
3665210343
3665216508
3665221574
3665226884
3665232011
3665237626
3665244279
3665249772
3665255997
3665260819
3665266923
3665271500
3665277543
3665284012
3665288163
3665295548
3665300492
3665305741
3665314774
3665320084
3665325333
3665331376
3665336930
3665343155
3665349259
3665355790
3665360550
3665367508
3665371842
3665377518
3665382340
3665389420
3665393997
3665399430
3665405594
3665409928
3665419266
3665425064
3665430374
3665436051
3665441666
3665446915
3665452591
3665460220
3665466263
3665471207
3665475906
3665481949
3665488480
3665492996
3665499527
3665505508
3665510513
3665514847
3665521622
3665526688
3665532730
3665538406
3665543167
3665550247
3665554336
3665560623
3665566299
3665572525
3665576858
3665584610
3665590286
3665597427
3665604141
3665613113
3665618423
3665625076
3665630630
3665634903
3665639968
3665647171
3665651077
3665656326
3665661819
3665665359
3665672683
3665677932
3665684158
3665689590
3665696121
3665699539
3665706069
3665711868
3665716812
3665722793
3665727065
3665732131
3665739028
3665745193
3665750869
3665755508
3665760268
3665765945
3665771682
3665776443
3665782180
3665787795
3665793716
3665799026
3665803786
3665809524
3665815749
3665821548
3665828017
3665835158
3665839553
3665845778
3665852370
3665857619
3665862807
3665867873
3665873610
3665879531
3665884353
3665892409
3665899489
3665906264
3665912124
3665919570
3665926040
3665930556
3665937331
3665943679
3665949233
3665955947
3665961318
3665966872
3665972304
3665980300
3665985793
3665991530
3665996474
3666002089
3666007948
3666013808
3666020888
3666027541
3666033278
3666038832
3666045119
3666051894
3666058546
3666063185
3666071608
3666077956
3666084242
3666088759
3666094557
3666100172
3666106276
3666112379
3666118788
3666123915
3666130263
3666137099
3666141859
3666148207
3666155226
3666160963
3666167616
3666172316
3666178358
3666183851
3666191176
3666196302
3666202162
3666207289
3666213209
3666219801
3666224684
3666230665
3666236891
3666241224
3666246962
3666251783
3666259169
3666264051
3666268995
3666275831
3666281874
3666286695
3666292982
3666297804
3666303541
3666310560
3666316786
3666321913
3666326673
3666333448
3666337721
3666344190
3666350172
3666356336
3666360792
3666366834
3666372022
3666378431
3666383619
3666387708
3666395582
3666400465
3666407667
3666416090
3666420484
3666427930
3666432081
3666437940
3666444349
3666451002
3666455152
3666461744
3666466260
3666472791
3666477613
3666484144
3666489942
3666496045
3666500074
3666506116
3666512037
3666517591
3666522718
3666528211
3666533643
3666539869
3666545423
3666551343
3666557202
3666563489
3666569593
3666576245
3666581372
3666587354
3666594617
3666599439
3666605664
3666610730
3666618237
3666623670
3666629407
3666634656
3666640698
3666645703
3666650830
3666657300
3666662976
3666667615
3666673230
3666679211
3666684216
3666690442
3666696789
3666702466
3666707593
3666712964
3666718213
3666724316
3666730847
3666735669
3666740796
3666746350
3666753125
3666759717
3666764355
3666770337
3666775342
3666782544
3666786755
3666794079
3666798962
3666805737
3666810681
3666815808
3666821972
3666827160
3666833691
3666838330
3666844860
3666849621
3666854992
3666861096
3666866162
3666872326
3666879101
3666884289
3666890454
3666894787
3666900829
3666905407
3666911755
3666919811
3666924633
3666929333
3666935192
3666942272
3666948803
3666954723
3666962292
3666967724
3666973888
3666979931
3666984936
3666989757
3666995373
3667002880
3667009411
3667014782
3667019848
3667024608
3667031444
3667037548
3667042309
3667048412
3667054394
3667058910
3667065014
3667071789
3667076061
3667081676
3667089122
3667097912
3667103099
3667110180
3667116039
3667121837
3667127330
3667133495
3667140514
3667146801
3667152843
3667157543
3667164073
3667169261
3667175914
3667182506
3667187267
3667192577
3667199108
3667204357
3667209361
3667215892
3667221324
3667227367
3667232066
3667237987
3667242809
3667248973
3667253246
3667259288
3667265697
3667271129
3667276439
3667282603
3667287913
3667293773
3667298900
3667305003
3667311656
3667316112
3667322764
3667326976
3667333568
3667338939
3667343822
3667349803
3667356029
3667361400
3667367564
3667372935
3667377147
3667383860
3667388011
3667395518
3667400950
3667408030
3667412486
3667419078
3667423899
3667428965
3667436290
3667442210
3667447520
3667453746
3667458934
3667465037
3667470347
3667477305
3667486888
3667493235
3667499156
3667505137
3667510508
3667514781
3667522105
3667528636
3667533823
3667538767
3667545298
3667549998
3667556467
3667562205
3667570628
3667576731
3667580759
3667586863
3667592844
3667598093
3667602305
3667610422
3667616221
3667621409
3667626902
3667632334
3667638132
3667645334
3667651987
3667658030
3667664621
3667670298
3667676951
3667682200
3667688730
3667694040
3667700205
3667705271
3667711741
3667716806
3667722361
3667728952
3667734201
3667740793
3667745432
3667752024
3667756052
3667762400
3667768198
3667772776
3667777719
3667783579
3667789316
3667794870
3667799631
3667804575
3667810678
3667815866
3667822092
3667828317
3667834177
3667839975
3667843881
3667848947
3667855051
3667861826
3667867502
3667872507
3667877634
3667882577
3667888376
3667892831
3667898691
3667904489
3667910165
3667916452
3667921396
3667927072
3667931711
3667937387
3667943429
3667950021
3667953988
3667961984
3667967782
3667972787
3667979562
3667984140
3667990670
3667994821
3668001657
3668007943
3668015329
3668022409
3668027597
3668032296
3668038339
3668043405
3668047738
3668053537
3668059213
3668063729
3668073739
3668080270
3668086740
3668093392
3668098886
3668104867
3668109933
3668114938
3668120675
3668125375
3668129830
3668135812
3668142037
3668150155
3668155404
3668162240
3668167184
3668174691
3668180184
3668187264
3668192086
3668200326
3668207345
3668210152
3668219002
3668224373
3668230599
3668234871
3668242196
3668248177
3668253731
3668260262
3668264657
3668271065
3668277657
3668282723
3668288826
3668296700
3668303414
3668310433
3668315133
3668321480
3668327767
3668333809
3668340462
3668347298
3668352608
3668358834
3668365608
3668369820
3668377388
3668382881
3668387276
3668394661
3668399849
3668406075
3668412117
3668417366
3668423470
3668427559
3668433601
3668439461
3668445869
3668452217
3668457405
3668462532
3668469002
3668474800
3668480598
3668485298
3668493904
3668499763
3668504890
3668510933
3668516548
3668522346
3668527290
3668533394
3668537910
3668544075
3668550117
3668555549
3668563057
3668568489
3668573738
3668579414
3668585273
3668590339
3668596077
3668601997
3668606880
3668612800
3668618660
3668625068
3668632881
3668637641
3668643867
3668648872
3668655036
3668661750
3668668037
3668673286
3668678901
3668684944
3668690620
3668694953
3668702522
3668708442
3668714118
3668718269
3668724983
3668730720
3668735481
3668742194
3668748420
3668753181
3668758613
3668764228
3668768500
3668774238
3668783088
3668788703
3668794440
3668799567
3668805183
3668811164
3668817390
3668821418
3668828315
3668834418
3668839118
3668846137
3668851142
3668857062
3668862189
3668868598
3668874701
3668878791
3668884223
3668890509
3668895514
3668901679
3668906440
3668912238
3668918586
3668926581
3668932990
3668938239
3668943915
3668949591
3668957099
3668962042
3668968634
3668974249
3668979132
3668985175
3668991583
3668995001
3669002326
3669006964
3669013251
3669017706
3669024115
3669030219
3669035040
3669040228
3669046332
3669053595
3669060187
3669065436
3669070319
3669076483
3669082281
3669086981
3669093085
3669099188
3669107245
3669112433
3669117926
3669123358
3669130072
3669135077
3669142401
3669148199
3669153143
3669158331
3669165228
3669169806
3669175909
3669180853
3669186590
3669193792
3669199530
3669204718
3669209478
3669216009
3669223211
3669229559
3669234869
3669241156
3669246466
3669250738
3669257147
3669263800
3669269232
3669275823
3669280950
3669286444
3669291143
3669297308
3669302068
3669308416
3669312994
3669317999
3669324346
3669330572
3669334661
3669342718
3669348699
3669354009
3669360662
3669365484
3669371282
3669377264
3669382085
3669386724
3669394414
3669400457
3669405706
3669411077
3669416082
3669422796
3669427556
3669435491
3669441167
3669446294
3669452092
3669458013
3669463811
3669469610
3669475652
3669481084
3669488652
3669495000
3669500188
3669505254
3669511785
3669518071
3669522832
3669527837
3669533940
3669540654
3669546270
3669551641
3669555852
3669562566
3669569463
3669574712
3669580510
3669585637
3669591252
3669596318
3669602055
3669608708
3669613896
3669618596
3669625310
3669629948
3669635747
3669644414
3669651860
3669657719
3669662785
3669669194
3669675114
3669679692
3669686284
3669692082
3669698186
3669703862
3669710210
3669714726
3669720830
3669727055
3669731083
3669738835
3669743474
3669748723
3669755070
3669760380
3669765812
3669770939
3669776432
3669782963
3669787968
3669794072
3669798832
3669804997
3669810246
3669816349
3669823552
3669827641
3669835087
3669839543
3669846257
3669851933
3669857060
3669863102
3669868290
3669874088
3669879337
3669885502
3669890446
3669896610
3669901249
3669907658
3669913700
3669918705
3669925114
3669930241
3669936283
3669941471
3669948185
3669953495
3669960087
3669966068
3669973026
3669976993
3669984684
3669990604
3669997196
3670001713
3670007267
3670013737
3670022831
3670028629
3670033817
3670039554
3670045109
3670050663
3670056522
3670062687
3670068119
3670073978
3670079654
3670085636
3670090641
3670097110
3670101261
3670108463
3670113956
3670120121
3670124332
3670130252
3670135684
3670141239
3670147891
3670153324
3670158878
3670164005
3670170597
3670176090
3670182071
3670188480
3670195377
3670201969
3670207218
3670213870
3670218814
3670223148
3670230350
3670235599
3670240482
3670245242
3670251041
3670256595
3670262454
3670268802
3670273868
3670278567
3670284061
3670290347
3670295962
3670303531
3670311221
3670317325
3670322940
3670328738
3670333377
3670340030
3670345401
3670350223
3670356448
3670360721
3670368106
3670373660
3670380130
3670386599
3670392093
3670396304
3670402652
3670407656
3670412661
3670418154
3670424868
3670430239
3670436221
3670442141
3670448184
3670455081
3670459658
3670465579
3670472293
3670479189
3670485476
3670489810
3670498110
3670503298
3670509402
3670514956
3670520510
3670525759
3670531435
3670537295
3670542849
3670549624
3670555361
3670561648
3670566714
3670572024
3670577944
3670583681
3670589175
3670594973
3670599734
3670605288
3670610964
3670615664
3670622317
3670626894
3670633364
3670639040
3670644533
3670650271
3670656252
3670662050
3670667910
3670674257
3670680178
3670686403
3670691042
3670696474
3670703554
3670708437
3670714540
3670719850
3670726442
3670731020
3670735598
3670743044
3670747988
3670753359
3670758486
3670765810
3670770815
3670777468
3670782839
3670788210
3670793703
3670798830
3670805666
3670812196
3670819032
3670822939
3670830080
3670835695
3670841005
3670847292
3670853761
3670859071
3670862306
3670867067
3670872316
3670877016
3670881349
3670885866
3670889528
3670893800
3670898256
3670902711
3670907594
3670911012
3670915895
3670919862
3670924501
3670928041
3670933290
3670940370
3670944337
3670949159
3670953248
3670957032
3670961488
3670965333
3670969423
3670974366
3670978334
3670982789
3670986696
3670991151
3670994996
3670999818
3671005738
3671010499
3671014527
3671018251
3671023439
3671027162
3671032350
3671035646
3671041017
3671048768
3671051759
3671058106
3671062379
3671066285
3671071656
3671077271
3671082215
3671085755
3671092164
3671096436
3671102174
3671106934
3671111390
3671114869
3671119996
3671125184
3671129090
3671134583
3671137696
3671145264
3671148682
3671153809
3671157166
3671161256
3671166260
3671170289
3671174073
3671179566
3671184266
3671188538
3671192750
3671197022
3671202271
3671206116
3671209962
3671215699
3671219971
3671224427
3671229432
3671232972
3671238831
3671244507
3671248414
3671252015
3671256897
3671262635
3671266785
3671270813
3671275391
3671280579
3671286255
3671291016
3671295166
3671299317
3671303284
3671308106
3671313538
3671319947
3671324646
3671328797
3671332764
3671336670
3671342469
3671348084
3671354248
3671359802
3671364563
3671370178
3671374268
3671379517
3671385742
3671389160
3671394776
3671398682
3671404175
3671408997
3671412537
3671416260
3671421692
3671427063
3671432068
3671437012
3671442688
3671447449
3671451843
3671457764
3671463196
3671468018
3671473022
3671477783
3671482605
3671487915
3671493591
3671499206
3671507629
3671512634
3671517639
3671522583
3671528686
3671534912
3671539978
3671542968
3671551635
3671556091
3671561035
3671564819
3671570556
3671575988
3671581115
3671584900
3671592773
3671597595
3671602600
3671606445
3671610656
3671616455
3671621032
3671626892
3671630981
3671637145
3671640991
3671648132
3671653259
3671658264
3671665527
3671674743
3671681579
3671688659
3671692504
3671698730
3671702758
3671707641
3671712035
3671718322
3671723388
3671729125
3671733947
3671739318
3671745177
3671750426
3671755248
3671760558
3671764953
3671773620
3671778136
3671783813
3671788268
3671792663
3671799132
3671803222
3671808715
3671815368
3671820983
3671826476
3671831908
3671836486
3671841796
3671846496
3671851989
3671858458
3671865661
3671870604
3671876769
3671881957
3671888671
3671894408
3671900756
3671907164
3671914122
3671921508
3671926573
3671931517
3671937682
3671944579
3671949156
3671956236
3671960936
3671967650
3671973448
3671978819
3671984679
3671990172
3671996398
3672001647
3672008116
3672013121
3672018431
3672023863
3672028380
3672033873
3672039549
3672045470
3672050169
3672057127
3672062193
3672069029
3672075377
3672082396
3672087340
3672092222
3672098570
3672104185
3672112242
3672117064
3672122496
3672129332
3672134398
3672139097
3672144590
3672150450
3672156065
3672161924
3672166075
3672170225
3672177061
3672181273
3672187986
3672192137
3672199400
3672205870
3672210020
3672216185
3672220884
3672225706
3672231748
3672236631
3672241270
3672248777
3672252928
3672258238
3672263304
3672268858
3672274961
3672279112
3672283872
3672291807
3672296018
3672302610
3672307066
3672312864
3672318296
3672324644
3672329160
3672333494
3672340818
3672345762
3672351743
3672356626
3672363035
3672369443
3672373106
3672379697
3672386472
3672391477
3672398191
3672401975
3672407224
3672412107
3672418455
3672423643
3672427915
3672435850
3672440183
3672448179
3672453611
3672462888
3672469297
3672476682
3672483030
3672491391
3672496274
3672508603
3672517636
3672525388
3672532041
3672537839
3672549558
3672556943
3672565549
3672574521
3672580502
3672589230
3672594357
3672601315
3672609555
3672617001
3672623471
3672628110
3672640378
3672648373
3672656979
3672662533
3672670468
3672677304
3672684201
3672691525
3672699460
3672707028
3672717160
3672722104
3672730710
3672738400
3672743527
3672752438
3672756894
3672766354
3672775448
3672782956
3672790524
3672800534
3672805416
3672814816
3672820248
3672828060
3672835934
3672842221
3672848385
3672858456
3672864681
3672872006
3672879086
3672885372
3672891110
3672897091
3672906063
3672912594
3672920467
3672928890
3672934383
3672942440
3672949947
3672955013
3672962765
3672970577
3672975948
3672984798
3672991146
3672998409
3673005794
3673014034
3673019588
3673027767
3673032284
3673040767
3673048458
3673056026
3673066585
3673074459
3673084896
3673092708
3673101009
3673109066
3673118282
3673125972
3673133663
3673140315
3673147335
3673155574
3673161983
3673170894
3673175289
3673185542
3673192439
3673202937
3673211116
3673217891
3673226863
3673232173
3673244258
3673249324
3673261043
3673268550
3673276973
3673283137
3673292476
3673298640
3673307734
3673316035
3673327144
3673335200
3673341670
3673346614
3673359065
3673366389
3673374507
3673381099
3673386164
3673398799
3673404353
3673414912
3673422297
3673429011
3673443232
3673448298
3673458247
3673464533
3673471919
3673477168
3673484126
3673492732
3673499140
3673506648
3673514765
3673522273
3673530390
3673536311
3673544306
3673550715
3673557673
3673564387
3673572687
3673580805
3673587641
3673593439
3673599360
3673606135
3673614863
3673625605
3673633112
3673639826
3673648676
3673653437
3673662226
3673669672
3673678400
3673687494
3673695551
3673701349
3673707453
3673717951
3673725397
3673733637
3673742731
3673749750
3673757440
3673765985
3673774713
3673781366
3673788873
3673795831
3673804315
3673812982
3673820245
3673829462
3673834405
3673845758
3673853021
3673860284
3673868707
3673875299
3673884515
3673892450
3673898370
3673904840
3673912103
3673919549
3673926202
3673934625
3673938897
3673948236
3673954583
3673962030
3673969537
3673975702
3673981988
3673988885
3674000299
3674009210
3674014520
3674023492
3674028009
3674037103
3674044915
3674051080
3674059686
3674063775
3674073113
3674081292
3674088738
3674096124
3674102410
3674110467
3674114861
3674123956
3674129082
3674136956
3674146050
3674150994
3674160821
3674167962
3674173089
3674181328
3674188225
3674193719
3674201165
3674212273
3674222527
3674229180
3674236931
3674243096
3674252068
3674257439
3674269036
3674276909
3674284905
3674290886
3674300042
3674307366
3674315361
3674324944
3674333611
3674341850
3674350517
3674357536
3674365959
3674372551
3674380608
3674385674
3674394646
3674402336
3674408623
3674414970
3674419182
3674430901
3674439384
3674445183
3674453850
3674461052
3674470390
3674475273
3674480583
3674490288
3674501091
3674506828
3674514457
3674523491
3674532280
3674541862
3674549492
3674558891
3674564628
3674576286
3674584709
3674592399
3674600639
3674606437
3674616142
3674620597
3674629264
3674636405
3674645500
3674652702
3674658927
3674665885
3674672233
3674677909
3674683280
3674688895
3674696891
3674704398
3674713859
3674718497
3674726493
3674730216
3674739677
3674746329
3674751151
3674758536
3674764701
3674773124
3674779960
3674788199
3674796256
3674804557
3674811515
3674816703
3674823783
3674831351
3674839713
3674846305
3674853507
3674860099
3674867789
3674874991
3674880423
3674888663
3674892997
3674903861
3674910636
3674916922
3674924613
3674929557
3674937979
3674944998
3674953299
3674959586
3674967703
3674975699
3674981741
3674989981
3674997611
3675003653
3675010245
3675016776
3675023856
3675030203
3675038138
3675045950
3675051565
3675059134
3675064200
3675071646
3675080313
3675085623
3675092764
3675102408
3675109488
3675117117
3675123160
3675128164
3675135794
3675143057
3675151053
3675157095
3675170279
3675179129
3675185110
3675191519
3675200613
3675206900
3675214529
3675222525
3675230398
3675238821
3675244863
3675254385
3675264700
3675272024
3675277334
3675289053
3675296621
3675306020
3675314321
3675320242
3675329580
3675338857
3675344778
3675353628
3675362051
3675369070
3675377920
3675386526
3675391164
3675398733
3675406667
3675414052
3675422536
3675427785
3675437856
3675444021
3675451589
3675460073
3675467153
3675475881
3675483815
3675489797
3675495412
3675501943
3675509877
3675515187
3675522145
3675527333
3675533376
3675538259
3675543080
3675548390
3675553456
3675559255
3675565602
3675571645
3675577199
3675583424
3675589467
3675593922
3675599355
3675606862
3675612782
3675618581
3675623036
3675630238
3675634694
3675640980
3675646413
3675650929
3675658131
3675662953
3675669179
3675673390
3675678212
3675685109
3675690114
3675695485
3675700062
3675707753
3675713307
3675719105
3675722218
3675729725
3675734364
3675740529
3675744984
3675752247
3675757191
3675762135
3675769093
3675773182
3675780201
3675784169
3675791676
3675796009
3675803944
3675808949
3675815113
3675820790
3675827198
3675832203
3675836720
3675843495
3675848622
3675856129
3675862476
3675871021
3675877125
3675887074
3675893299
3675900013
3675906483
3675912708
3675918568
3675924000
3675931934
3675936695
3675943287
3675949818
3675956348
3675962452
3675968372
3675974598
3675980640
3675983753
3675990223
3675996021
3676002918
3676010486
3676014515
3676021473
3676025806
3676031604
3676038746
3676045093
3676051685
3676057788
3676063892
3676070118
3676075306
3676080982
3676086719
3676092762
3676098133
3676103870
3676109302
3676114673
3676119739
3676125232
3676129688
3676135852
3676140308
3676145984
3676153003
3676158740
3676163867
3676168689
3676174915
3676179614
3676184497
3676189441
3676196765
3676200244
3676207141
3676212085
3676217395
3676222400
3676227954
3676232837
3676241321
3676247180
3676252124
3676256457
3676262805
3676267077
3676272388
3676279223
3676286242
3676292163
3676298144
3676303576
3676308764
3676314807
3676319995
3676326098
3676332873
3676340014
3676345752
3676351428
3676354785
3676362597
3676367419
3676372668
3676378100
3676383166
3676390673
3676396716
3676401660
3676405505
3676412585
3676417346
3676423449
3676426623
3676435351
3676441271
3676446642
3676449450
3676457140
3676461840
3676468676
3676474230
3676482592
3676487597
3676493639
3676498705
3676503832
3676509325
3676513964
3676519213
3676525011
3676530871
3676536730
3676542406
3676548449
3676554003
3676559069
3676564623
3676569140
3676575731
3676580370
3676585741
3676592333
3676597094
3676604357
3676609667
3676614977
3676620958
3676627794
3676633593
3676638598
3676645067
3676650438
3676654650
3676662096
3676666613
3676675341
3676682909
3676687120
3676692858
3676699022
3676703722
3676708788
3676715013
3676721605
3676726366
3676731249
3676736681
3676742113
3676747240
3676752672
3676758959
3676765245
3676768785
3676775926
3676780443
3676785936
3676790392
3676797594
3676802171
3676808885
3676814317
3676820726
3676825731
3676831529
3676838060
3676842088
3676848741
3676854417
3676861009
3676866380
3676871507
3676876817
3676882677
3676888353
3676893846
3676899400
3676904893
3676910814
3676916490
3676919481
3676927049
3676931993
3676937303
3676941575
3676949449
3676954026
3676960618
3676964952
3676971421
3676976243
3676981492
3676986985
3676994859
3676999986
3677007249
3677012193
3677016160
3677021592
3677027207
3677033128
3677039475
3677045640
3677051866
3677057603
3677064073
3677071580
3677076463
3677082688
3677087144
3677095628
3677100266
3677104661
3677110825
3677115891
3677120957
3677126572
3677131638
3677137315
3677144822
3677148728
3677154465
3677159959
3677166001
3677172532
3677176743
3677181504
3677189866
3677195176
3677205674
3677210434
3677215622
3677220749
3677226059
3677229416
3677238877
3677245224
3677251145
3677255478
3677260544
3677267502
3677272385
3677277024
3677285080
3677290634
3677295944
3677300949
3677305954
3677309860
3677316025
3677321396
3677329209
3677334519
3677339890
3677345322
3677350754
3677357956
3677364243
3677371018
3677376206
3677382431
3677387314
3677392990
3677398239
3677402878
3677408981
3677413742
3677423447
3677432785
3677439438
3677445297
3677451523
3677456772
3677462021
3677468124
3677473617
3677479111
3677484482
3677490402
3677496567
3677503158
3677507431
3677512008
3677520370
3677525985
3677531845
3677536605
3677541244
3677548141
3677553573
3677559005
3677565231
3677570724
3677576156
3677582260
3677587326
3677593185
3677598739
3677604660
3677609237
3677616805
3677621932
3677627242
3677634078
3677637985
3677645492
3677649947
3677655990
3677662582
3677670455
3677678695
3677683639
3677688766
3677695113
3677698837
3677704269
3677709640
3677717940
3677722884
3677728561
3677734359
3677741439
3677746444
3677751754
3677757003
3677764388
3677769515
3677774886
3677779098
3677785079
3677789840
3677795577
3677802108
3677807357
3677814742
3677819930
3677825057
3677831160
3677837447
3677843245
3677848006
3677854293
3677859908
3677865706
3677871382
3677876876
3677882186
3677886336
3677892989
3677897322
3677903487
3677908187
3677915022
3677919112
3677924056
3677930220
3677936141
3677940535
3677947371
3677952498
3677957503
3677964278
3677969344
3677976485
3677981429
3677988875
3677994490
3678002425
3678007185
3678013838
3678019148
3678024641
3678029768
3678035628
3678038740
3678048384
3678054487
3678060652
3678066023
3678069807
3678076582
3678082014
3678087507
3678092329
3678100264
3678105024
3678111067
3678116987
3678122297
3678126814
3678134321
3678139570
3678147871
3678153486
3678160139
3678164656
3678170332
3678175642
3678181440
3678187483
3678192549
3678198591
3678204145
3678209944
3678216352
3678220503
3678226179
3678232221
3678239118
3678242964
3678250532
3678255964
3678261457
3678266706
3678276533
3678281599
3678288374
3678294660
3678301252
3678306379
3678311811
3678316877
3678322370
3678328107
3678331708
3678338605
3678345991
3678350873
3678355756
3678362714
3678368207
3678373639
3678378095
3678384199
3678390119
3678397748
3678403730
3678409711
3678415387
3678421064
3678428144
3678433393
3678438886
3678444928
3678451215
3678456525
3678463849
3678468122
3678473676
3678479230
3678485517
3678490522
3678499127
3678502301
3678509198
3678513593
3678520001
3678524213
3678530255
3678535199
3678539594
3678546552
3678552411
3678557355
3678561810
3678567914
3678573041
3678578473
3678584149
3678589703
3678595013
3678600323
3678606549
3678612164
3678615521
3678622601
3678627179
3678633221
3678641461
3678646527
3678652386
3678657025
3678662884
3678668927
3678675030
3678680584
3678686993
3678692547
3678698590
3678703778
3678709149
3678716290
3678720196
3678726300
3678733075
3678741864
3678746014
3678753521
3678758648
3678764508
3678767376
3678774578
3678779339
3678787457
3678793011
3678800701
3678807598
3678812725
3678817974
3678822613
3678828411
3678835125
3678842022
3678849041
3678855206
3678860088
3678866253
3678872051
3678877972
3678882793
3678890362
3678896221
3678907085
3678911175
3678917034
3678921246
3678926372
3678932659
3678936931
3678943462
3678948772
3678954998
3678958294
3678964824
3678968487
3678975017
3678980083
3678984966
3678991436
3678996196
3679000957
3679005413
3679009380
3679014324
3679019939
3679027385
3679031963
3679037334
3679042522
3679049236
3679053203
3679059856
3679063640
3679070720
3679075847
3679083110
3679088176
3679092571
3679096599
3679102886
3679107219
3679114421
3679120036
3679124919
3679130046
3679136150
3679140300
3679146526
3679153179
3679157817
3679162578
3679168864
3679175761
3679180644
3679186198
3679190410
3679197673
3679202312
3679208903
3679213115
3679218120
3679224406
3679228435
3679233989
3679238872
3679246562
3679250835
3679258464
3679262736
3679268779
3679273662
3679280803
3679285624
3679291118
3679296977
3679303141
3679308574
3679314982
3679320353
3679324626
3679332194
3679336528
3679345256
3679352519
3679357707
3679363932
3679371989
3679376445
3679381571
3679388407
3679394694
3679400492
3679406291
3679412333
3679418681
3679425150
3679428324
3679435526
3679440165
3679447550
3679453043
3679458048
3679465556
3679470316
3679476847
3679483439
3679490275
3679496989
3679503764
3679508707
3679514201
3679519633
3679525370
3679528361
3679535868
3679540446
3679547526
3679552531
3679558817
3679564249
3679570719
3679576151
3679581827
3679586283
3679591898
3679599039
3679606058
3679610697
3679616068
3679623697
3679628336
3679633707
3679640604
3679644388
3679653543
3679659891
3679666544
3679672342
3679676676
3679683573
3679690042
3679696207
3679703165
3679708109
3679713358
3679717630
3679723184
3679728311
3679733865
3679738931
3679745584
3679750894
3679755655
3679762552
3679767679
3679772745
3679778238
3679782510
3679789713
3679798013
3679803567
3679809183
3679814981
3679819131
3679823648
3679830606
3679835489
3679843423
3679849466
3679855752
3679862832
3679868753
3679874795
3679879861
3679886026
3679889077
3679897073
3679903604
3679909524
3679915262
3679919168
3679926065
3679930337
3679937112
3679942788
3679950112
3679955117
3679960977
3679967446
3679973855
3679979959
3679984475
3679991128
3679997598
3680003335
3680009133
3680013711
3680019082
3680024392
3680029458
3680035439
3680041482
3680048501
3680053750
3680059975
3680066323
3680072732
3680077554
3680081155
3680088662
3680093972
3680100747
3680110818
3680113930
3680121316
3680126260
3680131753
3680137124
3680145547
3680152505
3680158913
3680163613
3680167946
3680175088
3680180581
3680185708
3680191445
3680197731
3680203286
3680208901
3680211831
3680218239
3680222451
3680229042
3680233437
3680240639
3680245461
3680250893
3680256569
3680262245
3680269020
3680274147
3680282082
3680286904
3680294045
3680298744
3680306801
3680311867
3680318276
3680323158
3680328163
3680333473
3680339943
3680343727
3680350563
3680355507
3680360390
3680365150
3680370583
3680376015
3680382423
3680388283
3680393654
3680399147
3680404518
3680408974
3680414406
3680418617
3680425941
3680430458
3680436989
3680441810
3680447059
3680452492
3680458046
3680463966
3680472755
3680478737
3680483314
3680490699
3680496498
3680501198
3680506813
3680512855
3680517494
3680525184
3680530250
3680535865
3680541114
3680546119
3680551857
3680557594
3680563697
3680569740
3680576026
3680580970
3680587196
3680592140
3680597328
3680604591
3680609352
3680614845
3680620704
3680626991
3680632789
3680638465
3680644630
3680648963
3680653785
3680660682
3680667823
3680673377
3680679054
3680685218
3680690955
3680697791
3680704932
3680710548
3680716956
3680723853
3680730567
3680735389
3680740943
3680747108
3680750709
3680758704
3680762427
3680769385
3680775062
3680780799
3680786048
3680792395
3680797522
3680803321
3680809424
3680815345
3680820960
3680829016
3680832801
3680839026
3680845252
3680851660
3680857215
3680861060
3680867346
3680873877
3680881262
3680890174
3680896643
3680900244
3680906531
3680910681
3680918555
3680922095
3680930762
3680935584
3680940894
3680946448
3680951880
3680957190
3680962500
3680967383
3680974646
3680979285
3680984778
3680990271
3680994482
3681001074
3681006384
3681010718
3681015295
3681021948
3681027624
3681032507
3681038550
3681043432
3681048315
3681053686
3681059241
3681064795
3681070532
3681076147
3681081885
3681087256
3681092505
3681096106
3681102820
3681108007
3681115271
3681119299
3681127050
3681132727
3681140966
3681146948
3681154333
3681164160
3681169409
3681176489
3681185095
3681192297
3681198278
3681209448
3681214514
3681223852
3681233251
3681243322
3681251257
3681258154
3681265905
3681273046
3681279699
3681286352
3681293615
3681301855
3681304174
3681319433
3681324499
3681331518
3681339574
3681346715
3681355810
3681360387
3681367956
3681376439
3681382970
3681393224
3681410924
3681418981
3681424474
3681432347
3681438207
3681445592
3681449498
3681461156
3681468236
3681472936
3681482030
3681488378
3681495824
3681502538
3681508885
3681515660
3681523717
3681531163
3681537633
3681545934
3681550816
3681558446
3681566563
3681573216
3681582188
3681586339
3681599705
3681606419
3681612157
3681621922
3681626622
3681635716
3681641209
3681652867
3681660191
3681666905
3681675816
3681685704
3681694798
3681701756
3681709996
3681718174
3681726658
3681734349
3681744786
3681749852
3681759190
3681767063
3681775669
3681782078
3681791233
3681798435
3681806309
3681814671
3681822178
3681828892
3681837071
3681844273
3681849766
3681856480
3681862583
3681870396
3681874058
3681884129
3681892124
3681896824
3681904148
3681909153
3681916782
3681924656
3681930820
3681937229
3681946567
3681954624
3681959995
3681968296
3681973423
3681982334
3681989719
3681994541
3682002597
3682011020
3682017551
3682024448
3682031040
3682038425
3682045078
3682053440
3682057590
3682064548
3682071933
3682078159
3682091953
3682099216
3682105564
3682112522
3682119663
3682127719
3682133762
3682142001
3682146335
3682158237
3682165439
3682173557
3682178928
3682186862
3682192905
3682199679
3682206882
3682214572
3682220798
3682230075
3682234775
3682245090
3682252170
3682259189
3682267550
3682274630
3682283603
3682291232
3682300021
3682308383
3682315402
3682323703
3682330477
3682339206
3682345126
3682349826
3682357882
3682367098
3682374179
3682382174
3682387179
3682397006
3682404940
3682413729
