3683121857
3683126862
3683131928
3683137604
3683142670
3683147858
3683152924
3683156891
3683163300
3683168244
3683175202
3683181183
3683188202
3683194794
3683200104
3683205780
3683211457
3683217743
3683222870
3683229767
3683236481
3683242340
3683248993
3683256073
3683262726
3683269806
3683274750
3683282440
3683289948
3683295685
3683304901
3683311981
3683320221
3683327240
3683335053
3683344452
3683351776
3683359100
3683364349
3683373810
3683380585
3683389252
3683396027
3683403656
3683409088
3683415924
3683424164
3683430939
3683439056
3683446441
3683453399
3683459930
3683467010
3683472809
3683481353
3683488861
3683495758
3683503265
3683512176
3683517669
3683526458
3683535064
3683541656
3683548736
3683556182
3683563384
3683569183
3683575897
3683584381
3683593109
3683597259
3683605804
3683611602
3683619964
3683627593
3683635040
3683642608
3683648284
3683656341
3683663665
3683669036
3683675750
3683682708
3683690642
3683699554
3683703704
3683714080
3683721648
3683728057
3683735564
3683745025
3683753753
3683760344
3683771209
3683778838
3683786162
3683793670
3683800200
3683808806
3683816619
3683824065
3683832000
3683839080
3683845793
3683853484
3683861418
3683867461
3683876494
3683884978
3683892607
3683900725
3683907500
3683917082
3683925078
3683931853
3683939177
3683945158
3683953764
3683960661
3683967375
3683977080
3683983000
3683991728
3684002409
3684010832
3684018522
3684024687
3684034880
3684041472
3684049162
3684057341
3684063871
3684073881
3684080717
3684088163
3684095182
3684100920
3684110136
3684117460
3684124540
3684132475
3684139006
3684149809
3684160673
3684167570
3684177275
3684186003
3684194059
3684201872
3684209318
3684217497
3684224760
3684231657
3684241300
3684250028
3684256376
3684266813
3684275358
3684282560
3684290800
3684298307
3684306241
3684316801
3684324674
3684332487
3684340909
3684350309
3684357694
3684365079
3684373929
3684380887
3684390714
3684397184
3684405179
3684412503
3684424466
3684476041
3684486417
3684496915
3684506925
3684517362
3684527493
3684537991
3684548734
3684559354
3684569974
3684578519
3684588589
3684598843
3684608670
3684618374
3684628567
3684638516
3684647549
3684657498
3684667630
3684679043
3684689846
3684699429
3684709561
3684719326
3684729763
3684740628
3684750576
3684760098
3684769314
3684778897
3684787258
3684797146
3684807034
3684817471
3684827175
3684836880
3684844082
3684851711
3684858913
3684866787
3684874660
3684881679
3684889614
3684896084
3684903591
3684911892
3684919582
3684926845
3684933315
3684942226
3684949184
3684958828
3684967800
3684975063
3684982631
3684989040
3684996547
3685005092
3685012477
3685020168
3685027736
3685034084
3685041286
3685048793
3685057949
3685064540
3685071987
3685079738
3685086208
3685093349
3685101161
3685109279
3685117641
3685125026
3685133327
3685141505
3685148891
3685155849
3685163539
3685171535
3685176967
3685184718
3685192348
3685200709
3685208461
3685215602
3685222743
3685230372
3685236598
3685245753
3685253566
3685260829
3685268580
3685275843
3685285670
3685293971
3685301905
3685309474
3685317836
3685325770
3685332667
3685341761
3685346461
3685356227
3685363307
3685371180
3685378993
3685386622
3685395960
3685402613
3685410120
3685417811
3685425623
3685431666
3685437830
3685441248
3685449244
3685456507
3685459986
3685468836
3685475245
3685479945
3685490626
3685496607
3685503504
3685510218
3685515894
3685521692
3685526575
3685532068
3685538660
3685544336
3685550806
3685558497
3685563074
3685569788
3685573938
3685581568
3685588587
3685594324
3685598780
3685603174
3685610743
3685615992
3685622034
3685627222
3685632471
3685637354
3685644617
3685650659
3685656641
3685663660
3685668299
3685674585
3685680200
3685687280
3685692713
3685699609
3685706079
3685711694
3685716333
3685723291
3685726892
3685733728
3685741174
3685748010
3685754358
3685759973
3685764795
3685770532
3685778101
3685785120
3685790430
3685794336
3685801477
3685806665
3685812036
3685817468
3685822839
3685828393
3685834924
3685839746
3685845117
3685851892
3685857629
3685863366
3685869409
3685873864
3685879358
3685884607
3685892236
3685897851
3685903100
3685908227
3685913171
3685919213
3685925805
3685932092
3685937036
3685943933
3685948022
3685953210
3685960656
3685966760
3685974328
3685978723
3685985681
3685991296
3685996789
3686004296
3686011559
3686016015
3686021996
3686027612
3686031945
3686036462
3686043969
3686049645
3686054711
3686061364
3686066003
3686071007
3686077477
3686084557
3686089196
3686094201
3686101281
3686105919
3686112816
3686118065
3686123864
3686129723
3686134728
3686141198
3686148217
3686154015
3686160546
3686166527
3686171837
3686177330
3686182457
3686189293
3686195153
3686200768
3686205956
3686210472
3686217064
3686222740
3686228844
3686234947
3686238915
3686244164
3686249962
3686256005
3686262108
3686265953
3686273277
3686279625
3686283287
3686289208
3686295433
3686299278
3686305443
3686311424
3686316063
3686321007
3686326500
3686332665
3686338402
3686343224
3686349449
3686354393
3686360008
3686366539
3686372032
3686378258
3686383263
3686388939
3686393700
3686397545
3686405174
3686411094
3686415123
3686423240
3686429100
3686436790
3686443809
3686448875
3686455711
3686460594
3686467369
3686471580
3686478233
3686483665
3686489769
3686494590
3686499900
3686504722
3686510276
3686517906
3686524498
3686529014
3686534935
3686538658
3686544151
3686550804
3686557212
3686562339
3686567527
3686572776
3686578452
3686583579
3686590415
3686596397
3686603050
3686608115
3686614768
3686620506
3686626731
3686631797
3686638816
3686643027
3686648704
3686653709
3686660056
3686666221
3686671836
3686677268
3686681907
3686687278
3686693748
3686701621
3686715598
3686720786
3686724631
3686731894
3686737204
3686743918
3686749228
3686755393
3686761557
3686766929
3686772483
3686777793
3686783286
3686789695
3686794761
3686799338
3686803244
3686811057
3686815634
3686821555
3686826010
3686832907
3686838156
3686843650
3686849265
3686854453
3686860556
3686866599
3686872519
3686879233
3686884421
3686891074
3686897788
3686902731
3686909811
3686916831
3686921774
3686927145
3686932883
3686938559
3686944418
3686949545
3686955710
3686960715
3686966452
3686971579
3686975912
3686983237
3686988180
3686995444
3687000448
3687005392
3687011191
3687018393
3687022787
3687029989
3687035177
3687039999
3687044943
3687050253
3687060263
3687067587
3687073874
3687079550
3687084188
3687089743
3687096395
3687100973
3687107321
3687111715
3687118734
3687125021
3687130819
3687135519
3687140951
3687145834
3687151693
3687157492
3687162985
3687166952
3687174398
3687180013
3687184103
3687191366
3687197408
3687203207
3687208578
3687212972
3687218649
3687223898
3687230917
3687237875
3687243612
3687249288
3687254171
3687260335
3687266988
3687271810
3687278158
3687283285
3687289815
3687295675
3687301168
3687308858
3687314718
3687320211
3687326131
3687331075
3687336812
3687344137
3687349874
3687354940
3687359334
3687366292
3687369588
3687377584
3687383504
3687387838
3687394612
3687399923
3687404805
3687409200
3687416036
3687422933
3687428365
3687431478
3687438253
3687443807
3687448873
3687455098
3687459310
3687466390
3687471028
3687476460
3687482503
3687487447
3687490376
3687497517
3687503499
3687509053
3687515523
3687519307
3687526631
3687533101
3687538594
3687543172
3687552144
3687556233
3687561970
3687566365
3687571004
3687576863
3687583028
3687588338
3687594624
3687599263
3687604939
3687610676
3687615254
3687621480
3687626668
3687632710
3687638630
3687644185
3687648518
3687654377
3687661396
3687666157
3687671162
3687675923
3687681233
3687686238
3687691243
3687696492
3687702534
3687708638
3687713887
3687718891
3687724079
3687729389
3687735188
3687741413
3687745869
3687750935
3687756550
3687761494
3687765705
3687771565
3687778950
3687784565
3687790485
3687795673
3687800922
3687806355
3687811420
3687818195
3687823200
3687830891
3687837055
3687844074
3687850544
3687857441
3687860554
3687867878
3687873005
3687877949
3687883930
3687888203
3687893696
3687898456
3687905170
3687910969
3687915851
3687921283
3687926288
3687931171
3687937885
3687942951
3687948810
3687954059
3687958210
3687965107
3687967975
3687975422
3687981952
3687987323
3687992694
3687997638
3688002338
3688007465
3688014179
3688019001
3688025592
3688031085
3688038166
3688041095
3688050067
3688055316
3688061054
3688066547
3688070697
3688077655
3688083148
3688088092
3688093524
3688098895
3688104511
3688110675
3688116840
3688122455
3688127948
3688132220
3688138690
3688145221
3688150775
3688156390
3688160297
3688166766
3688172198
3688176898
3688182513
3688188251
3688192828
3688199115
3688203876
3688209002
3688214129
3688219501
3688226642
3688232074
3688236407
3688241534
3688247394
3688252826
3688257159
3688263385
3688270648
3688276141
3688281146
3688286944
3688292865
3688297869
3688302874
3688310382
3688313800
3688320758
3688325701
3688331072
3688337420
3688344378
3688351275
3688357989
3688363726
3688368060
3688373980
3688378130
3688383990
3688390704
3688396319
3688402239
3688408099
3688414263
3688420062
3688425311
3688431475
3688437579
3688442278
3688446734
3688453387
3688459612
3688464800
3688469561
3688474627
3688479327
3688484453
3688490923
3688494768
3688500811
3688507464
3688513445
3688518633
3688524553
3688530352
3688535784
3688541460
3688546099
3688554339
3688559160
3688565386
3688569475
3688575029
3688580645
3688585833
3688591753
3688597734
3688602312
3688607378
3688612627
3688616777
3688623186
3688628069
3688633135
3688638506
3688643572
3688648882
3688653887
3688659319
3688665056
3688670366
3688674822
3688681658
3688684648
3688692217
3688695329
3688701555
3688708208
3688713579
3688719194
3688723100
3688728532
3688733537
3688739091
3688744829
3688750810
3688755144
3688762651
3688768510
3688774126
3688780473
3688787370
3688793413
3688798662
3688803789
3688808244
3688813310
3688819414
3688825578
3688831132
3688835893
3688842912
3688847612
3688854692
3688857805
3688864701
3688871049
3688876420
3688882402
3688887407
3688892778
3688898149
3688902665
3688908586
3688914506
3688919023
3688925126
3688930070
3688935197
3688941300
3688946427
3688951554
3688956986
3688962663
3688968156
3688973161
3688978532
3688983659
3688988297
3688994828
3689000077
3689005204
3689011002
3689016251
3689022233
3689027604
3689033707
3689039994
3689045060
3689051041
3689058182
3689063248
3689068436
3689074601
3689080582
3689085648
3689090714
3689096146
3689100480
3689106034
3689112870
3689117936
3689122574
3689127701
3689133805
3689137711
3689144242
3689150101
3689156266
3689161026
3689169693
3689174332
3689181656
3689186661
3689192704
3689198075
3689202835
3689209305
3689215958
3689221451
3689226883
3689232254
3689238297
3689242691
3689249100
3689254715
3689259720
3689264725
3689270096
3689276688
3689281448
3689287857
3689292252
3689297745
3689303848
3689307877
3689315384
3689320816
3689326004
3689330948
3689336197
3689340591
3689348221
3689354813
3689361160
3689367752
3689372635
3689378982
3689382828
3689389908
3689394607
3689399612
3689405838
3689410965
3689415420
3689419693
3689426895
3689433059
3689438430
3689444534
3689449783
3689454422
3689457962
3689463699
3689470169
3689474807
3689480972
3689487258
3689493484
3689498184
3689502212
3689510757
3689516738
3689523513
3689528518
3689534500
3689540176
3689546646
3689552078
3689557754
3689561904
3689566726
3689572402
3689579849
3689585098
3689590713
3689595962
3689600600
3689605544
3689612197
3689618789
3689624770
3689629470
3689633987
3689639602
3689645339
3689649917
3689655715
3689660964
3689667617
3689673659
3689679397
3689685073
3689692031
3689696975
3689703567
3689708999
3689714370
3689721267
3689725295
3689732436
3689738601
3689743361
3689751479
3689757155
3689762526
3689768935
3689773574
3689779189
3689784987
3689789443
3689796584
3689802321
3689807814
3689814955
3689820754
3689826796
3689833815
3689840041
3689844679
3689851943
3689858107
3689861830
3689868971
3689875258
3689880263
3689885878
3689891493
3689898146
3689904860
3689910231
3689916151
3689919875
3689926710
3689932631
3689939833
3689944777
3689951002
3689955885
3689961561
3689965407
3689971266
3689978102
3689984205
3689990553
3689995680
3690005690
3690011671
3690016432
3690022169
3690028456
3690033400
3690039442
3690045057
3690051466
3690058119
3690061903
3690068861
3690075209
3690080519
3690086805
3690093458
3690099256
3690104689
3690109938
3690116163
3690120680
3690126661
3690133863
3690138380
3690144056
3690151380
3690157850
3690163893
3690169569
3690173902
3690180799
3690186964
3690192396
3690197096
3690203321
3690207960
3690213880
3690220167
3690226575
3690231397
3690238721
3690243848
3690250318
3690253553
3690260633
3690264844
3690272901
3690279310
3690286146
3690291639
3690297925
3690302930
3690309339
3690314588
3690320142
3690326246
3690330884
3690337659
3690343213
3690348706
3690354078
3690359510
3690366285
3690371045
3690375562
3690381787
3690387586
3690393140
3690398938
3690405347
3690409925
3690415601
3690421948
3690428662
3690433850
3690438672
3690446057
3690450208
3690457654
3690464063
3690470410
3690476514
3690482129
3690486951
3690492871
3690498792
3690504163
3690512708
3690517468
3690522717
3690528210
3690533276
3690539563
3690544690
3690550488
3690555188
3690561047
3690566174
3690571484
3690576306
3690582287
3690588818
3690592541
3690597424
3690602856
3690609692
3690615246
3690622204
3690629773
3690635449
3690640027
3690645703
3690651074
3690658459
3690663342
3690668469
3690677441
3690681897
3690686535
3690693859
3690698925
3690703747
3690709057
3690715405
3690721508
3690728710
3690734204
3690740978
3690747448
3690752392
3690759411
3690764599
3690770641
3690775585
3690781567
3690786388
3690792187
3690798107
3690802807
3690809643
3690813305
3690819042
3690826122
3690832714
3690837841
3690843944
3690848339
3690853588
3690859386
3690865490
3690871471
3690876842
3690882397
3690887157
3690892956
3690900768
3690907177
3690913707
3690919262
3690925243
3690931713
3690936168
3690943065
3690949169
3690954662
3690959484
3690964244
3690969677
3690976085
3690981578
3690987743
3690992931
3690999767
3691005626
3691010265
3691016979
3691022655
3691027355
3691032665
3691038219
3691043163
3691049022
3691054759
3691060253
3691066356
3691070506
3691076122
3691083324
3691086986
3691093639
3691099193
3691102733
3691113109
3691119579
3691124339
3691130931
3691137035
3691142467
3691147594
3691154246
3691159312
3691165416
3691170970
3691177379
3691183604
3691192821
3691198863
3691204295
3691209727
3691216258
3691221690
3691225779
3691233287
3691238658
3691244090
3691249156
3691254954
3691259654
3691266246
3691271495
3691276866
3691282237
3691286448
3691293528
3691298411
3691303660
3691310618
3691313243
3691320384
3691325633
3691331797
3691337046
3691344126
3691348765
3691353953
3691360423
3691365855
3691373423
3691378916
3691385447
3691390147
3691397410
3691402049
3691408335
3691414805
3691419932
3691426524
3691432566
3691438486
3691443186
3691449229
3691456126
3691460764
3691466501
3691471506
3691476816
3691481028
3691487681
3691493845
3691499094
3691504099
3691509165
3691514048
3691520334
3691526743
3691531809
3691536692
3691541147
3691548288
3691555491
3691561411
3691567698
3691572580
3691578257
3691583322
3691588633
3691596872
3691600717
3691607797
3691613291
3691618173
3691633737
3691642465
3691646982
3691654062
3691661630
3691668283
3691674387
3691681894
3691686533
3691692392
3691696542
3691702280
3691708078
3691713327
3691718820
3691724496
3691730234
3691735849
3691740060
3691747079
3691753183
3691757760
3691763315
3691768014
3691775461
3691780160
3691785226
3691792184
3691797311
3691801828
3691807321
3691813608
3691818429
3691825387
3691830758
3691840402
3691846627
3691853097
3691858407
3691863900
3691869821
3691875253
3691880746
3691884774
3691892892
3691898324
3691904428
3691909799
3691913339
3691920419
3691926705
3691931588
3691938241
3691944528
3691948983
3691955636
3691959786
3691966622
3691972421
3691978097
3691983895
3691989571
3691994515
3692000863
3692006905
3692011910
3692016488
3692021065
3692029122
3692034554
3692041634
3692046944
3692051705
3692058297
3692062569
3692068307
3692074532
3692080392
3692085274
3692092171
3692096444
3692102730
3692110665
3692115120
3692122750
3692128853
3692134163
3692139779
3692146981
3692151741
3692158394
3692164498
3692169319
3692175118
3692180977
3692187691
3692192513
3692197701
3692203438
3692209664
3692213631
3692220833
3692227303
3692232308
3692237618
3692242500
3692247749
3692254219
3692259529
3692265450
3692271370
3692277168
3692282906
3692289619
3692295357
3692300118
3692306709
3692311714
3692317818
3692322517
3692329658
3692335945
3692341621
3692347237
3692352058
3692358650
3692362678
3692369514
3692375740
3692380745
3692387642
3692393257
3692399299
3692405464
3692412422
3692416877
3692423225
3692426887
3692433113
3692439705
3692446235
3692451423
3692455757
3692462593
3692467292
3692473152
3692479377
3692486518
3692490974
3692496223
3692501045
3692507270
3692513191
3692518073
3692523872
3692529853
3692536323
3692539985
3692546394
3692552131
3692559333
3692564460
3692573005
3692579475
3692586555
3692593024
3692599433
3692604316
3692610847
3692616279
3692623054
3692627998
3692634101
3692639289
3692645392
3692651008
3692655768
3692663703
3692668098
3692675544
3692680305
3692685554
3692691169
3692698798
3692706061
3692710395
3692715644
3692720282
3692726386
3692731025
3692737250
3692748298
3692753485
3692759894
3692767401
3692773383
3692777411
3692783881
3692789801
3692794562
3692800238
3692804755
3692812262
3692817511
3692821234
3692827948
3692832648
3692838873
3692844428
3692850592
3692855841
3692860968
3692866950
3692872260
3692878729
3692884955
3692889594
3692896124
3692899908
3692906989
3692913763
3692918646
3692923895
3692930121
3692936835
3692942267
3692947211
3692953863
3692960272
3692964056
3692971258
3692980475
3692987127
3692992987
3692999823
3693004095
3693010504
3693016607
3693021978
3693029303
3693037664
3693042547
3693048773
3693055304
3693059332
3693065985
3693072821
3693077825
3693084600
3693091314
3693097845
3693102789
3693109503
3693114263
3693121465
3693126043
3693133611
3693138128
3693143560
3693150701
3693155401
3693159979
3693165960
3693172125
3693178777
3693184637
3693188726
3693193853
3693199895
3693207037
3693213445
3693220464
3693226018
3693232000
3693237432
3693242193
3693246892
3693253667
3693260747
3693264776
3693271734
3693277227
3693284002
3693289007
3693295171
3693297918
3693305669
3693310674
3693315984
3693322271
3693328252
3693333623
3693340032
3693345098
3693350347
3693355718
3693361211
3693367253
3693372930
3693377812
3693383245
3693387944
3693395696
3693400640
3693405828
3693411626
3693418279
3693424382
3693430181
3693436040
3693441716
3693445989
3693450871
3693457463
3693463445
3693468388
3693474126
3693480962
3693487065
3693493291
3693497502
3693504460
3693510442
3693516118
3693521977
3693525944
3693533208
3693538151
3693544682
3693550114
3693556279
3693560856
3693566533
3693572026
3693578618
3693585148
3693589543
3693596806
3693601994
3693607548
3693612797
3693618168
3693622929
3693629094
3693632878
3693640263
3693646061
3693656315
3693662114
3693666996
3693671391
3693679020
3693684758
3693691044
3693697148
3693702580
3693707218
3693713139
3693717838
3693724735
3693731388
3693736271
3693741581
3693747379
3693753117
3693758793
3693762638
3693769779
3693775089
3693780155
3693786320
3693792973
3693798344
3693804020
3693810184
3693815311
3693820560
3693827396
3693833866
3693838932
3693843998
3693850651
3693857059
3693861332
3693867069
3693871464
3693878910
3693883671
3693888431
3693894169
3693901249
3693905948
3693911625
3693919071
3693923404
3693928043
3693935794
3693942569
3693949405
3693954471
3693960636
3693966434
3693971744
3693979129
3693987064
3693993167
3693997318
3694003177
3694007938
3694013492
3694019534
3694024906
3694031558
3694036990
3694042117
3694047977
3694054324
3694059573
3694065128
3694071780
3694077213
3694082462
3694089420
3694093265
3694099307
3694104434
3694110660
3694115726
3694121646
3694129092
3694135928
3694141604
3694147403
3694152957
3694157840
3694165225
3694170352
3694177005
3694182193
3694187076
3694192996
3694200564
3694205691
3694211917
3694216372
3694223941
3694231387
3694235904
3694242434
3694247561
3694252810
3694259829
3694265506
3694271060
3694277163
3694283328
3694287966
3694292666
3694299197
3694304324
3694308840
3694315371
3694321597
3694328433
3694332949
3694337771
3694342532
3694349001
3694354067
3694360720
3694366579
3694370669
3694376284
3694383059
3694388979
3694395632
3694402834
3694408511
3694414309
3694421145
3694426516
3694433474
3694438723
3694445498
3694449221
3694454836
3694462282
3694468142
3694473940
3694479189
3694485781
3694490969
3694495913
3694502871
3694508242
3694513308
3694519472
3694526430
3694532045
3694538210
3694542849
3694549074
3694555849
3694561037
3694567141
3694572695
3694579286
3694585146
3694589601
3694596865
3694603212
3694608644
3694614870
3694619692
3694625856
3694630678
3694635561
3694641176
3694646913
3694652773
3694658571
3694663698
3694669557
3694675539
3694681337
3694687257
3694693361
3694699342
3694705080
3694710146
3694716005
3694720766
3694727540
3694735719
3694742677
3694747926
3694754457
3694760255
3694765993
3694772584
3694776430
3694783265
3694788759
3694793886
3694799806
3694805848
3694811891
3694817872
3694823426
3694828431
3694835267
3694841798
3694846925
3694852174
3694857118
3694862855
3694870240
3694876832
3694883912
3694889222
3694894654
3694900270
3694907594
3694913087
3694919435
3694925355
3694929810
3694935914
3694940614
3694947083
3694952943
3694957642
3694964722
3694969666
3694974976
3694981202
3694988038
3694992432
3694997437
3695003358
3695008851
3695014466
3695021424
3695027222
3695032227
3695037293
3695041749
3695049500
3695054810
3695060792
3695067261
3695073670
3695078064
3695084107
3695089844
3695095582
3695100342
3695105835
3695112732
3695119141
3695124695
3695130616
3695136048
3695140686
3695147766
3695152710
3695157349
3695164551
3695170471
3695176514
3695182434
3695188843
3695193726
3695201111
3695205567
3695211670
3695216858
3695222473
3695227356
3695231995
3695240723
3695246643
3695251587
3695257019
3695262695
3695267639
3695275085
3695280457
3695285339
3695291809
3695296265
3695302612
3695307129
3695313538
3695320312
3695324707
3695333252
3695339294
3695345276
3695350525
3695355835
3695362182
3695368469
3695374084
3695379028
3695385864
3695392273
3695398071
3695404052
3695409607
3695415100
3695423156
3695427246
3695433899
3695439087
3695445373
3695450866
3695455627
3695462280
3695469421
3695473327
3695479187
3695484924
3695491027
3695497314
3695503417
3695511962
3695517883
3695524047
3695529968
3695535949
3695540710
3695546630
3695553344
3695557372
3695563720
3695570434
3695576049
3695580810
3695585021
3695592223
3695596801
3695602477
3695608092
3695615234
3695620177
3695625060
3695631347
3695635741
3695641906
3695647948
3695653625
3695659911
3695664306
3695669250
3695675231
3695680480
3695686339
3695691161
3695697387
3695702880
3695707579
3695714171
3695718505
3695726012
3695731200
3695735839
3695741027
3695747802
3695752745
3695758483
3695764891
3695772704
3695778319
3695782653
3695789061
3695794127
3695802550
3695807311
3695812499
3695819396
3695825255
3695830321
3695836119
3695842589
3695849303
3695854369
3695859984
3695865599
3695871519
3695876402
3695883421
3695888670
3695894591
3695900999
3695904784
3695912230
3695918394
3695923155
3695929259
3695936217
3695941954
3695948363
3695954466
3695959837
3695965696
3695971068
3695979063
3695982603
3695991148
3695997007
3696002989
3696007628
3696012449
3696019041
3696025450
3696030272
3696037596
3696043028
3696048460
3696055235
3696059385
3696067259
3696074766
3696080381
3696085813
3696093565
3696099668
3696104734
3696111326
3696115598
3696121275
3696125791
3696134031
3696139219
3696144834
3696150510
3696156004
3696161131
3696167783
3696172483
3696178709
3696184080
3696189512
3696195982
3696201231
3696208250
3696213743
3696218626
3696224912
3696231138
3696236448
3696242063
3696248899
3696254026
3696259275
3696269163
3696275693
3696283689
3696289487
3696295713
3696302121
3696307370
3696312925
3696318479
3696325010
3696331113
3696336972
3696342160
3696348874
3696354428
3696359250
3696366086
3696372373
3696378232
3696383298
3696388181
3696395017
3696401303
3696406430
3696411618
3696417844
3696423337
3696429562
3696435849
3696441220
3696446652
3696452878
3696459592
3696465512
3696472104
3696479184
3696484677
3696491696
3696497067
3696502377
3696508786
3696514340
3696520932
3696525632
3696532345
3696537350
3696542782
3696548703
3696557370
3696563351
3696568539
3696574154
3696579831
3696586545
3696590939
3696597043
3696602841
3696608029
3696614682
3696619503
3696625363
3696632626
3696637936
3696644345
3696650570
3696656002
3696661801
3696666317
3696673092
3696678952
3696684384
3696689877
3696694149
3696702450
3696709957
3696714352
3696720760
3696726681
3696732052
3696738155
3696744320
3696751766
3696757504
3696763180
3696770016
3696776302
3696781612
3696788021
3696793148
3696799374
3696804989
3696809566
3696814999
3696821163
3696827572
3696833736
3696839290
3696844784
3696850887
3696855892
3696861385
3696869625
3696875789
3696881099
3696887569
3696892269
3696899349
3696905452
3696910701
3696915889
3696922359
3696928035
3696934505
3696939998
3696948238
3696956417
3696962642
3696968502
3696975582
3696983028
3696988460
3696995418
3697000911
3697007564
3697014705
3697020198
3697028255
3697033260
3697039363
3697044734
3697051204
3697056514
3697063106
3697068660
3697073970
3697079768
3697086360
3697091670
3697098201
3697104365
3697110042
3697114497
3697120174
3697126399
3697132686
3697137874
3697143916
3697149348
3697155696
3697160518
3697166255
3697172786
3697178584
3697183467
3697188716
3697194026
3697199885
3697205195
3697212886
3697218562
3697223994
3697229853
3697236750
3697243525
3697247798
3697257258
3697262263
3697267878
3697274775
3697279231
3697286250
3697295222
3697301631
3697307368
3697314021
3697319148
3697325251
3697330134
3697338252
3697343989
3697348139
3697354731
3697360835
3697365290
3697372248
3697378046
3697383601
3697390009
3697394221
3697400507
3697406733
3697411860
3697419001
3697423640
3697430475
3697436335
3697444880
3697450007
3697455317
3697461420
3697468134
3697472590
3697479181
3697484675
3697490473
3697494928
3697501825
3697507441
3697513117
3697518976
3697525324
3697530756
3697537714
3697542963
3697549433
3697554682
3697561335
3697566217
3697571039
3697577692
3697583124
3697587457
3697593134
3697600702
3697605951
3697611627
3697618158
3697623529
3697629450
3697632868
3697640924
3697646478
3697652155
3697659601
3697664484
3697669855
3697677789
3697682855
3697689691
3697695428
3697700922
3697706964
3697711359
3697720758
3697728082
3697732355
3697739557
3697746026
3697752130
3697758722
3697763727
3697770074
3697777032
3697782831
3697787225
3697793451
3697799737
3697804254
3697811151
3697815728
3697821466
3697828180
3697833612
3697837030
3697844537
3697850457
3697855706
3697862481
3697867913
3697875054
3697881890
3697888360
3697893426
3697899102
3697905877
3697911309
3697919610
3697931146
3697937432
3697943169
3697950005
3697954156
3697961297
3697967644
3697972466
3697978204
3697984795
3697990838
3697996453
3697999749
3698006646
3698013177
3698018609
3698024590
3698028741
3698035332
3698041497
3698047295
3698051385
3698058404
3698063042
3698069695
3698074151
3698080620
3698085198
3698091485
3698098687
3698104119
3698109978
3698115410
3698120903
3698126274
3698131523
3698137566
3698143975
3698148552
3698154228
3698160088
3698165520
3698170098
3698177788
3698181755
3698189202
3698195793
3698199883
3698206597
3698212639
3698217522
3698223747
3698230156
3698236382
3698241692
3698247368
3698253716
3698259575
3698265251
3698272270
3698276909
3698283562
3698289177
3698296013
3698301933
3698307548
3698312431
3698317680
3698324638
3698329338
3698335625
3698340202
3698347221
3698352531
3698358818
3698364982
3698370598
3698375725
3698381157
3698387870
3698393425
3698398430
3698403923
3698410270
3698416252
3698421989
3698426689
3698432731
3698439506
3698444267
3698448722
3698456108
3698462089
3698468315
3698471977
3698479850
3698486564
3698491874
3698498710
3698504630
3698509696
3698514213
3698521659
3698527885
3698533195
3698539298
3698544852
3698550102
3698555595
3698561942
3698567435
3698572929
3698578849
3698584342
3698590629
3698595206
3698601249
3698606620
3698613151
3698618766
3698624442
3698630057
3698635367
3698640800
3698646720
3698652335
3698658133
3698663566
3698669120
3698674735
3698680900
3698687003
3698692008
3698698111
3698704398
3698710807
3698716544
3698722403
3698727713
3698733023
3698739432
3698744620
3698749442
3698756400
3698759635
3698767020
3698773429
3698779349
3698786673
3698792838
3698798636
3698804617
3698810599
3698815543
3698821463
3698828116
3698833487
3698839713
3698843741
3698850211
3698856314
3698861319
3698867422
3698873587
3698878165
3698888296
3698892081
3698899893
3698905020
3698910391
3698916312
3698921866
3698926810
3698932303
3698937002
3698941397
3698947134
3698951651
3698959097
3698965628
3698970633
3698976248
3698981741
3698988333
3698997671
3699005239
3699011587
3699018972
3699023855
3699029837
3699035330
3699039663
3699045645
3699049002
3699056875
3699061331
3699066152
3699072378
3699078054
3699082754
3699087942
3699092581
3699097585
3699102407
3699109365
3699113638
3699118826
3699124563
3699129263
3699134084
3699140188
3699145437
3699150625
3699156118
3699160146
3699165884
3699169607
3699176015
3699181203
3699186269
3699191152
3699195730
3699201223
3699206472
3699212514
3699218252
3699223012
3699229421
3699234670
3699240163
3699246816
3699251211
3699258901
3699265432
3699270681
3699275930
3699282155
3699287465
3699294240
3699300954
3699307241
3699312612
3699317617
3699323049
3699327993
3699333730
3699339894
3699344106
3699351125
3699354299
3699361806
3699366384
3699371633
3699377614
3699382619
3699388173
3699393666
3699398671
3699404225
3699409108
3699415761
3699422231
3699427846
3699433461
3699438710
3699442860
3699449574
3699455251
3699460744
3699467152
3699471059
3699478932
3699484608
3699491261
3699496205
3699503834
3699509144
3699515980
3699520375
3699527150
3699532887
3699538624
3699547169
3699551869
3699558827
3699564015
3699569569
3699575856
3699581471
3699587269
3699592640
3699599171
3699603199
3699610279
3699614491
3699620777
3699626881
3699633229
3699637867
3699643605
3699648121
3699654530
3699659168
3699666004
3699672474
3699677906
3699681141
3699688160
3699694081
3699699574
3699705921
3699711537
3699718189
3699722157
3699728504
3699734425
3699739857
3699745838
3699751209
3699755848
3699764210
3699770374
3699775989
3699781300
3699788563
3699794178
3699797596
3699809925
3699815052
3699821888
3699827808
3699833057
3699838062
3699845997
3699852527
3699858326
3699863819
3699868213
3699875049
3699882618
3699888111
3699893970
3699898182
3699904590
3699910022
3699916309
3699921131
3699927845
3699933948
3699939258
3699944995
3699950305
3699955921
3699960071
3699967273
3699972583
3699979968
3699983203
3699991321
3699995532
3700002246
3700012561
3700019885
3700025073
3700031360
3700037402
3700042957
3700047595
3700054675
3700059131
3700066089
3700071643
3700077075
3700080188
3700088306
3700094348
3700099841
3700106128
3700111987
3700116626
3700122668
3700127734
3700133838
3700139697
3700144336
3700150500
3700155200
3700162890
3700166064
3700174304
3700180224
3700185534
3700191394
3700196765
3700202075
3700208422
3700215197
3700221301
3700226428
3700232409
3700238330
3700242846
3700249133
3700254321
3700260424
3700267382
3700272692
3700278002
3700283618
3700290881
3700295519
3700302172
3700306872
3700313281
3700318041
3700325182
3700328539
3700335741
3700341967
3700349596
3700354662
3700362170
3700367724
3700373705
3700378405
3700384325
3700390612
3700395983
3700401354
3700406603
3700413500
3700417956
3700424853
3700430346
3700435961
3700443834
3700447924
3700454760
3700459276
3700465563
3700470079
3700477282
3700482042
3700488573
3700493822
3700499315
3700504992
3700511827
3700516344
3700523241
3700529406
3700535326
3700541368
3700551317
3700561266
3700565965
3700574022
3700581713
3700586656
3700593492
3700599352
3700604723
3700610643
3700616380
3700622423
3700627855
3700633653
3700639452
3700645189
3700651659
3700657152
3700663255
3700669847
3700675523
3700681139
3700686998
3700692552
3700698472
3700703966
3700709886
3700714036
3700720933
3700725084
3700731981
3700736131
3700742845
3700749498
3700755723
3700760423
3700766954
3700772325
3700777818
3700783616
3700789170
3700794786
3700800157
3700805650
3700811143
3700816819
3700822251
3700828294
3700834336
3700840379
3700844956
3700851243
3700858140
3700863389
3700869065
3700874925
3700881028
3700886216
3700892503
3700897508
3700905015
3700910020
3700916795
3700922410
3700928635
3700934312
3700939744
3700945359
3700950852
3700956834
3700960984
3700965928
3700969773
3700975999
3700980271
3700984544
3700989243
3700994187
3700998765
3701002061
3701007065
3701011216
3701015061
3701020066
3701025376
3701029587
3701034653
3701038743
3701042893
3701046982
3701051743
3701056443
3701062424
3701069626
3701072922
3701078721
3701082138
3701087082
3701093308
3701097580
3701101487
3701105454
3701111863
3701115403
3701120529
3701124558
3701130173
3701135666
3701138962
3701143540
3701147995
3701150498
3701156845
3701163193
3701167832
3701172348
3701175705
3701181687
3701185105
3701189743
3701194870
3701199326
3701203354
3701208786
3701212509
3701217697
3701221420
3701225632
3701232040
3701236313
3701241257
3701246384
3701252365
3701257858
3701262619
3701268295
3701273666
3701278000
3701282822
3701288193
3701292343
3701298447
3701301437
3701307541
3701312790
3701317306
3701322128
3701325302
3701330856
3701336776
3701341415
3701347030
3701350998
3701356369
3701360519
3701365646
3701370102
3701374862
3701379623
3701383773
3701388107
3701393234
3701397079
3701402084
3701405929
3701412155
3701416610
3701419967
3701425216
3701429550
3701433822
3701438217
3701443771
3701447433
3701452560
3701456161
3701461349
3701464645
3701469345
3701474532
3701479293
3701483505
3701488387
3701493331
3701498519
3701502548
3701509689
3701515182
3701520065
3701524581
3701529586
3701534103
3701539169
3701544234
3701550765
3701553878
3701559066
3701564376
3701569381
3701573287
3701579391
3701582320
3701589339
3701593856
3701599288
3701604781
3701610335
3701616561
3701620711
3701627974
3701632369
3701638045
3701643783
3701649398
3701654464
3701660750
3701665694
3701671920
3701676619
3701683394
3701688643
3701694014
3701697127
3701703841
3701707625
3701714522
3701719588
3701725936
3701730635
3701736739
3701741500
3701747603
3701752852
3701759383
3701764754
3701770186
3701774764
3701781722
3701786360
3701792281
3701797469
3701803999
3701813277
3701818343
3701825789
3701830611
3701836287
3701841231
3701849654
3701853377
3701860457
3701863875
3701870467
3701876387
3701881575
3701887190
3701892744
3701897444
3701902632
3701907210
3701912520
3701917891
3701922102
3701929243
3701934126
3701940657
3701944929
3701951460
3701957197
3701960432
3701966902
3701971968
3701977949
3701983381
3701988386
3701994429
3701999739
3702004133
3702009260
3702015181
3702022200
3702027754
3702034040
3702040266
3702047712
3702052473
3702058760
3702062727
3702069502
3702072859
3702079756
3702085432
3702090925
3702093977
3702100996
3702104780
3702112714
3702116254
3702122907
3702127790
3702133710
3702138349
3702143049
3702149946
3702156599
3702161848
3702166791
3702170942
3702176557
3702182355
3702186811
3702192670
3702199628
3702204206
3702207502
3702214582
3702217878
3702225019
3702229841
3702235639
3702241132
3702246808
3702253949
3702259748
3702264997
3702270307
3702276349
3702281659
3702288068
3702292035
3702298871
3702305341
3702309919
3702315290
3702320539
3702327497
3702333173
3702337934
3702347516
3702352033
3702357648
3702364057
3702366132
3702375897
3702381146
3702388959
3702397443
3702402264
3702410077
3702416180
3702421979
3702428510
3702434003
3702440289
3702446454
3702451947
3702457440
3702462018
3702468182
3702474103
3702478375
3702484112
3702491254
3702497113
3702503033
3702507794
3702513592
3702520428
3702522381
3702531354
3702535321
3702543072
3702548810
3702555096
3702560833
3702566937
3702571515
3702577923
3702584088
3702590619
3702595684
3702599285
3702608380
3702612469
3702619610
3702626202
3702632794
3702639202
3702646588
3702652264
3702657025
3702663006
3702667767
3702672222
3702677960
3702683453
3702691204
3702696209
3702701763
3702707501
3702713238
3702717449
3702720928
3702728313
3702732159
3702739117
3702742840
3702750286
3702754314
3702762310
3702766094
3702774151
3702778057
3702787212
3702791241
3702799175
3702803509
3702812176
3702816326
3702824871
3702829815
3702837993
3702843181
3702849224
3702854839
3702861980
3702867168
3702874858
3702880046
3702885967
3702892620
3702898845
3702903972
3702908672
3702915203
3702921550
3702926250
3702931926
3702939189
3702944988
3702951030
3702956340
3702962871
3702967510
3702974834
3702979839
3702986919
3702993694
3702996074
3703006755
3703012676
3703019145
3703023540
3703029521
3703035136
3703043193
3703048747
3703053813
3703060832
3703065105
3703071391
3703075481
3703081523
3703088359
3703093303
3703099711
3703104533
3703109782
3703115886
3703119548
3703126384
3703132243
3703139567
3703145060
3703150187
3703155497
3703161784
3703168071
3703174296
3703178935
3703183024
3703192240
3703194377
3703204020
3703207926
3703215129
3703220317
3703226969
3703232768
3703239298
3703245890
3703253092
3703258158
3703264811
3703270182
3703275797
3703281413
3703287821
3703292582
3703298625
3703302775
3703307841
3703314127
3703320109
3703324442
3703328410
3703336527
3703340128
3703346476
3703351115
3703357157
3703363200
3703369303
3703374674
3703381144
3703386210
3703392557
3703397257
3703403055
3703407877
3703414530
3703419291
3703427591
3703432779
3703439005
3703444193
3703448282
3703455912
3703459574
3703466776
3703472879
3703479471
3703484964
3703491312
3703496622
3703503153
3703510050
3703515116
3703519937
3703527506
3703532877
3703539591
3703544840
3703548807
3703556253
3703562296
3703568155
3703574014
3703580179
3703585916
3703592508
3703598306
3703603311
3703610086
3703615518
3703623392
3703629251
3703637735
3703643350
3703648416
3703655069
3703660928
3703666543
3703671304
3703679544
3703687051
3703692789
3703699136
3703704568
3703708963
3703715799
3703720498
3703727884
3703734292
3703740335
3703745279
3703749063
3703757241
3703760720
3703768655
3703772500
3703779824
3703785501
3703792886
3703798257
3703804299
3703808938
3703815957
3703820535
3703828836
3703835366
3703840920
3703847634
3703849771
3703857766
3703862283
3703874062
3703880044
3703885842
3703891580
3703896096
3703900491
3703904946
3703909707
3703916116
3703922341
3703931130
3703936990
3703940652
3703946694
3703949319
3703954690
3703957925
3703964150
3703970498
3703975686
3703980508
3703985695
3703989785
3703995644
3704001931
3704007424
3704012429
3704015359
3704025857
3704029763
3704036110
3704042519
3704048012
3704053688
3704059548
3704064309
3704067910
3704075905
3704079995
3704087075
3704091896
3704095558
3704100991
3704105751
3704112831
3704118325
3704124672
3704130226
3704134621
3704138405
3704145119
3704149880
3704154335
3704162148
3704165810
3704173805
3704179421
3704183876
3704193092
3704198097
3704204201
3704210609
3704214027
3704220375
3704226418
3704232155
3704235573
3704241981
3704248146
3704253456
3704259499
3704263649
3704271889
3704278419
3704285560
3704291725
3704295875
3704301735
3704307350
3704313759
3704320900
3704325905
3704332191
3704338661
3704343483
3704346962
3704355323
3704359657
3704367347
3704374855
3704382850
3704389808
3704398841
3704404335
3704412879
3704420021
3704428626
3704436500
3704443214
3704448219
3704452247
3704457008
3704461463
3704467994
3704472572
3704476722
3704481849
3704485816
3704490211
3704494422
3704500221
3704505286
3704509559
3704516273
3704525245
3704529334
3704533424
3704540443
3704546180
3704551490
3704556922
3704561500
3704566871
3704571265
3704576697
3704583777
3704589881
3704592933
3704599219
3704602210
3704608130
3704611976
3704619056
3704625220
3704629432
3704636390
3704640479
3704645484
3704650245
3704658301
3704663123
3704668738
3704673926
3704678504
3704682776
3704688880
3704694800
3704700965
3704708533
3704714270
3704720069
3704725745
3704730933
3704734778
3704741004
3704746558
3704751196
3704755896
3704762488
3704766943
3704772620
3704777197
3704782507
3704787451
3704793005
3704797217
3704803198
3704807593
3704813147
3704818152
3704824377
3704829382
3704834753
3704838965
3704845984
3704850317
3704856360
3704860693
3704869360
3704873816
3704879858
3704884253
3704890173
3704894385
3704897619
3704905127
3704910742
3704917578
3704923742
3704929785
3704937414
3704943029
3704951452
3704956762
3704963293
3704968969
3704974157
3704979223
3704986547
3704991247
3704996801
3705002294
3705009497
3705014868
3705019812
3705024633
3705030737
3705034948
3705041479
3705045873
3705052465
3705057287
3705063513
3705069128
3705073705
3705079321
3705082739
3705089391
3705093054
3705101598
3705105322
3705111242
3705116125
3705121618
3705126623
3705132360
3705136571
3705143835
3705148778
3705154516
3705158910
3705165685
3705170385
3705175634
3705181981
3705188939
3705193761
3705199682
3705205236
3705210668
3705216955
3705222387
3705228307
3705233312
3705242955
3705248510
3705253270
3705261388
3705268346
3705274999
3705281041
3705286779
3705293859
3705300206
3705302098
3705309972
3705313451
3705320653
3705323949
3705330785
3705335912
3705343297
3705347081
3705354161
3705359654
3705363866
3705370641
3705375096
3705380223
3705388097
3705393102
3705397984
3705403966
3705409093
3705415379
3705417332
3705426427
3705432225
3705438573
3705444432
3705450841
3705454808
3705465001
3705472508
3705478612
3705483922
3705493260
3705498204
3705506810
3705512974
3705522679
3705530491
3705534337
3705545506
3705554722
3705563023
3705574864
3705584507
3705592564
3705598973
3705607151
3705614720
3705621128
3705626927
3705638890
3705646519
3705652622
3705659641
3705668247
3705674595
3705679722
3705688938
3705693089
3705705051
3705710361
3705719212
3705725193
3705729893
3705739109
3705745579
3705752537
3705758579
3705767979
3705774265
3705780918
3705787327
3705794834
3705800083
3705806370
3705815281
3705821384
3705827549
3705837131
3705844272
3705851658
3705855930
3705866001
3705872287
3705877414
3705884372
3705890720
3705899875
3705907138
3705913791
3705923130
3705928379
3705936801
3705944187
3705950839
3705957187
3705969211
3705976474
3705981906
3705992038
3705998080
3706009616
3706017917
3706026706
3706033359
3706044162
3706054477
3706062228
3706069430
3706076694
3706084140
3706088840
3706097995
3706104403
3706110324
3706121127
3706129733
3706136020
3706142184
3706149264
3706155795
3706163485
3706171176
3706177829
3706187228
3706193881
3706202365
3706208163
3706215670
3706220980
3706227389
3706235568
3706242709
3706248751
3706258273
3706267550
3706276095
3706282504
3706287569
3706296603
3706303866
3706310397
3706317721
3706324313
3706332674
3706337984
3706346407
3706353853
3706359469
3706365816
3706371187
3706381441
3706386080
3706395785
3706402254
3706409517
3706416903
3706426180
3706434176
3706443148
3706448946
3706458651
3706462801
3706475801
3706478121
3706487642
3706491548
3706498506
3706503145
3706509127
3706513582
3706521028
3706525850
3706531648
3706535982
3706542452
3706546785
3706553194
3706557405
3706561128
3706569917
3706573763
3706581209
3706588655
3706595308
3706601472
3706606722
3706611848
3706622652
3706627657
3706636812
3706641084
3706649263
3706655488
3706660982
3706666231
3706674959
3706680391
3706685029
3706691499
3706697114
3706701692
3706705415
3706712800
3706718477
3706726655
3706730989
3706737947
3706743806
3706748445
3706755037
3706759370
3706765840
3706771760
3706778596
3706784455
3706790193
3706797822
3706803132
3706806794
3706815339
3706819184
3706827424
3706833283
3706839021
3706842439
3706849519
3706854279
3706859284
3706865876
3706871003
3706876008
3706881562
3706885774
3706892976
3706897736
3706903474
3706909943
3706918061
3706923371
3706928986
3706933991
3706938019
3706946931
3706950593
3706958588
3706964203
3706971223
3706976777
3706982331
3706987458
3706993439
3706998383
3707004914
3707009491
3707013703
3707021943
3707025971
3707033234
3707036530
3707043854
3707049897
3707055695
3707063813
3707069672
3707075653
3707085724
3707091034
3707095429
3707100861
3707106659
3707112458
3707118378
3707123383
3707129120
3707133148
3707142365
3707148102
3707154450
3707162079
3707166412
3707172333
3707178436
3707185089
3707189850
3707196930
3707202118
3707208710
3707213959
3707220734
3707225616
3707229279
3707236969
3707242096
3707247345
3707252167
3707261200
3707266632
3707273102
3707278290
3707284942
3707291229
3707296234
3707302398
3707306671
3707315033
3707320343
3707326568
3707330902
3707340484
3707345855
3707354889
3707359710
3707368377
3707375213
3707384674
3707392364
3707399383
3707406768
3707412811
3707424407
3707434844
3707444122
3707452728
3707458648
3707466338
3707472076
3707482330
3707490081
3707495818
3707503997
3707512115
3707518890
3707527190
3707534087
3707539764
3707548308
3707555327
3707563689
3707571013
3707577544
3707587005
3707594939
3707602630
3707609649
3707617278
3707625579
3707630462
3707638396
3707644744
3707656401
3707663665
3707671172
3707678435
3707684111
3707691680
3707698332
3707706389
3707712920
3707719451
3707731291
3707736785
3707745024
3707751738
3707759490
3707765898
3707771086
3707779814
3707786223
3707796538
3707803618
3707811369
3707818999
3707828337
3707836333
3707841887
3707851347
3707858977
3707868010
3707874602
3707882231
3707888640
3707893706
3707901884
3707907866
3707916472
3707922514
3707929411
3707934843
3707938993
3707947905
3707951445
3707957670
3707962675
3707968534
3707973539
3707982206
3707985990
3707992826
3707998320
3708004789
3708009977
3708015287
3708019743
3708026640
3708033354
3708039274
3708044279
3708049833
3708055387
3708060209
3708065885
3708073759
3708078214
3708082304
3708089384
3708093351
3708099821
3708103422
3708110563
3708114103
3708123319
3708127347
3708133878
3708139005
3708145292
3708150297
3708156034
3708161588
3708167997
3708173368
3708179410
3708184537
3708192594
3708197477
3708204984
3708210904
3708217069
3708222623
3708228238
3708232938
3708239286
3708244230
3708250943
3708256192
3708262540
3708268155
3708273343
3708278592
3708285123
3708291288
3708296292
3708302152
3708306119
3708314481
3708320279
3708326383
3708333096
3708339871
3708342374
3708351773
3708359525
3708365872
3708370633
3708379666
3708384183
3708393155
3708399747
3708406400
3708412747
3708423245
3708430630
3708437222
3708444119
3708451749
3708459378
3708466336
3708469937
3708481412
3708490323
3708501309
3708511563
3708521634
3708527432
3708534390
3708544094
3708546841
3708555935
3708563565
3708572232
3708579800
3708586148
3708592861
3708601223
3708609219
3708613857
3708620754
3708626431
3708636074
3708642361
3708649441
3708655850
3708660915
3708669094
3708676785
3708684597
3708691433
3708697414
3708707302
3708716152
3708721767
3708728908
3708738186
3708744533
3708749660
3708758571
3708764919
3708774746
3708781826
3708786709
3708796047
3708803249
3708809963
3708816677
3708823208
3708829799
3708837490
3708845241
3708853054
3708859035
3708865993
3708871364
3708881557
3708888820
3708894496
3708902980
3708913295
3708920619
3708925624
3708935146
3708939784
3708950038
3708956691
3708959560
3708968471
3708977199
3708988368
3708994350
3709004115
3709010829
3709019435
3709026332
3709031642
3709039882
3709046413
3709057399
3709065028
3709072597
3709079310
3709088160
3709094508
3709099940
3709109034
3709115687
3709119166
3709130153
3709135035
3709144923
3709152430
3709159938
3709169886
3709183009
3709192897
3709204615
3709215235
3709224940
3709234705
3709245204
3709257044
3709268824
3709276942
3709289820
3709295618
3709300990
3709305994
3709312220
3709317469
3709322352
3709328333
3709333643
3709339381
3709345179
3709350245
3709356165
3709360499
3709367151
3709372095
3709379969
3709384607
3709389795
3709393335
3709398829
3709403406
3709409693
3709414332
3709420191
3709425379
3709430689
3709435205
3709441248
3709445765
3709450708
3709454676
3709461756
3709466333
3709472254
3709476770
3709481592
3709487818
3709492517
3709498133
3709503687
3709508325
3709514002
3709519861
3709525049
3709530847
3709534815
3709540369
3709543909
3709552026
3709555689
3709562952
3709567835
3709572290
3709579126
3709583887
3709588159
3709596399
3709601709
3709612512
3709616663
3709622461
3709626733
3709633325
3709637598
3709644189
3709650293
3709656091
3709662622
3709668603
3709674646
3709680749
3709685632
3709690820
3709699731
3709705468
3709710962
3709717126
3709721704
3709727685
3709732568
3709739099
3709744165
3709749475
3709755639
3709760217
3709766320
3709770593
3709776330
3709783044
3709789453
3709795251
3709800805
3709805871
3709810205
3709813684
3709821496
3709825280
3709833032
3709836694
3709843469
3709846948
3709854028
3709858910
3709864404
3709869531
3709877099
3709882592
3709888329
3709892785
3709899316
3709903954
3709909386
3709916405
3709922448
3709929528
3709937829
3709941369
3709951195
3709955346
3709964013
3709966332
3709975731
3709978905
3709985070
3709991478
3709995690
3710001549
3710007348
3710011620
3710020531
3710026513
3710031029
3710035851
3710042504
3710047814
3710052391
3710057335
3710063988
3710068993
3710074364
3710078575
3710084862
3710089134
3710094750
3710100243
3710108055
3710113060
3710119469
3710126061
3710131737
3710136742
3710144066
3710149193
3710156456
3710161400
3710167625
3710172447
3710175926
3710184166
3710186241
3710194725
3710199303
3710207848
3710214073
3710218590
3710222191
3710230614
3710235069
3710242027
3710246788
3710256248
3710263878
3710268089
3710274315
3710278404
3710284019
3710289390
3710296043
3710301902
3710307151
3710313194
3710318077
3710322715
3710328880
3710334739
3710342308
3710345726
3710352623
3710358482
3710363182
3710368003
3710373924
3710379417
3710386985
3710390953
3710399497
3710403221
3710410118
3710415489
3710422141
3710425865
3710433738
3710440391
3710444846
3710451377
3710457542
3710461814
3710467857
3710473960
3710480491
3710485191
3710492332
3710497337
3710505515
3710511253
3710518149
3710523154
3710529441
3710534141
3710539878
3710544395
3710549583
3710554709
3710561118
3710566001
3710571067
3710576072
3710581992
3710586753
3710593833
3710599631
3710606406
3710610129
3710617392
3710622214
3710627768
3710632834
3710639914
3710645896
3710653708
3710657614
3710664817
3710669944
3710677817
3710682700
3710684836
3710694358
3710701499
3710707907
3710712973
3710719626
3710727194
3710732688
3710739462
3710747214
3710754660
3710761191
3710766562
3710776694
3710782980
3710793112
3710801352
3710809470
3710816916
3710823141
3710834921
3710841208
3710849997
3710857565
3710866476
3710875876
3710885580
3710894308
3710903097
3710915304
3710923361
3710926352
3710936850
3710944662
3710952414
3710959249
3710962057
3710973776
3710979208
3710988241
3710995870
3711002340
3711009298
3711014852
3711024008
3711031210
3711037740
3711044149
3711054159
3711061239
3711070516
3711076864
3711081258
3711089437
3711098165
3711101156
3711111166
3711118917
3711126058
3711133382
3711141256
3711149312
3711154745
3711164022
3711171285
3711178487
3711185079
3711190816
3711200948
3711209005
3711216634
3711223897
3711231282
3711237752
3711242879
3711252034
3711259420
3711269673
3711279439
3711288594
3711297933
3711305196
3711312032
3711320882
3711327290
3711332539
3711341023
3711346028
3711353108
3711359029
3711364705
3711369527
3711376057
3711380330
3711388448
3711392964
3711398701
3711403645
3711407246
3711415364
3711418904
3711425618
3711429036
3711438069
3711442158
3711449177
3711453877
3711460225
3711465230
3711470662
3711475361
3711483052
3711488240
3711493184
3711498127
3711504719
3711510273
3711515461
3711521687
3711528279
3711534321
3711539753
3711545552
3711550740
3711555195
3711558613
3711565937
3711571247
3711578266
3711583393
3711589314
3711594685
3711601460
3711606220
3711610798
3711616963
3711622639
3711630207
3711637714
3711642780
3711649189
3711653706
3711660420
3711664570
3711671467
3711676289
3711683002
3711687763
3711693378
3711699177
3711704121
3711710407
3711717243
3711723163
3711727741
3711733356
3711738972
3711743305
3711747944
3711753803
3711758930
3711767414
3711771442
3711777485
3711784443
3711788654
3711794941
3711799946
3711804462
3711812336
3711818561
3711824909
3711829609
3711835407
3711839862
3711846027
3711850482
3711855487
3711862751
3711868549
3711874286
3711878192
3711886676
3711892963
3711898517
3711905170
3711915424
3711920429
3711926044
3711929340
3711937091
3711940631
3711946552
3711951373
3711957904
3711963031
3711968524
3711972797
3711978473
3711984149
3711989398
3711995074
3712000934
3712006671
3712012591
3712018634
3712025165
3712032123
3712038959
3712044330
3712051166
3712058429
3712064593
3712072345
3712082965
3712088397
3712094439
3712101397
3712103778
3712113787
3712120684
3712125323
3712131366
3712137713
3712142901
3712148150
3712152850
3712160357
3712165667
3712173175
3712178118
3712183489
3712189898
3712196551
3712202044
3712206378
3712214495
3712218524
3712225359
3712230914
3712239642
3712246417
3712252398
3712258746
3712264849
3712270098
3712277300
3712280596
3712288103
3712291643
3712297503
3712301897
3712309710
3712314959
3712319475
3712325762
3712331255
3712335528
3712341936
3712347063
3712354510
3712360918
3712366472
3712371111
3712374895
3712383013
3712386614
3712393694
3712399004
3712405169
3712410784
3712418840
3712424822
3712429522
3712434954
3712441179
3712448320
3712456255
3712462175
3712469072
3712474810
3712481157
3712486040
3712492021
3712499407
3712507280
3712512956
3712521806
3712526933
3712533891
3712539324
3712545061
3712549883
3712556413
3712560869
3712566667
3712571367
3712577898
3712582719
3712588762
3712594011
3712600297
3712605546
3712611650
3712616350
3712621110
3712627397
3712631730
3712637407
3712642778
3712647355
3712653947
3712660112
3712665422
3712670183
3712674150
3712682634
3712686418
3712694780
3712698869
3712706498
3712710160
3712716508
3712721208
3712727555
3712732377
3712740373
3712745927
3712751542
3712756364
3712762162
3712766801
3712773088
3712777787
3712785966
3712792802
3712797929
3712804215
3712806352
3712815141
3712819352
3712826249
3712831620
3712840226
3712846269
3712852555
3712856278
3712863725
3712868607
3712874955
3712879838
3712887772
3712891495
3712898942
3712902421
3712909379
3712914200
3712918778
3712925187
3712931107
3712936600
3712942216
3712946671
3712951981
3712957779
3712962479
3712968216
3712974015
3712980546
3712985428
3712991471
3712995438
3713002823
3713008133
3713014115
3713018814
3713027054
3713032547
3713037308
3713044144
3713048966
3713054703
3713058487
3713066117
3713076432
3713081436
3713088272
3713094315
3713100113
3713104935
3713108414
3713117325
3713121903
3713131973
3713138748
3713143265
3713147110
3713154556
3713158340
3713166031
3713170914
3713177322
3713182632
3713187637
3713192093
3713198807
3713203323
3713209183
3713213394
3713221023
3713225479
3713231399
3713236954
3713241775
3713247452
3713253067
3713257339
3713262588
3713269424
3713275406
3713279800
3713284439
3713290847
3713295791
