3865234367
3865237846
3865241142
3865244072
3865247551
3865250908
3865254204
3865258537
3865263420
3865268303
3865272514
3865276176
3865280265
3865284355
3865289177
3865293510
3865297966
3865302726
3865307548
3865312370
3865317680
3865323661
3865329338
3865334953
3865341117
3865346672
3865352836
3865360588
3865367118
3865373527
3865379630
3865386588
3865392936
3865400382
3865407585
3865415946
3865422233
3865430106
3865438102
3865446830
3865453544
3865462455
3865469230
3865477409
3865485221
3865494254
3865502799
3865508048
3865516959
3865523063
3865532584
3865539420
3865549369
3865560355
3865568046
3865575919
3865583060
3865590323
3865601004
3865610221
3865618582
3865623832
3865631644
3865638114
3865645987
3865654471
3865663687
3865671134
3865679923
3865686026
3865692557
3865700675
3865706961
3865716116
3865723746
3865734305
3865749625
3865762930
3865771414
3865777335
3865786246
3865794363
3865799856
3865808096
3865815909
3865822867
3865828116
3865837881
3865845083
3865851980
3865858023
3865866507
3865873526
3865880667
3865888174
3865895193
3865902884
3865910086
3865916555
3865925466
3865931326
3865940603
3865948110
3865956167
3865963735
3865970205
3865976919
3865985159
3865991873
3866000540
3866007131
3866015066
3866021658
3866030019
3866036733
3866045034
3866053640
3866062246
3866069265
3866074880
3866083547
3866089223
3866098073
3866106557
3866113698
3866121572
3866128286
3866136526
3866144216
3866151052
3866158620
3866164480
3866172536
3866180654
3866188344
3866194936
3866202382
3866210988
3866219167
3866228261
3866234792
3866241567
3866250722
3866257253
3866266347
3866273061
3866281117
3866289906
3866295522
3866303334
3866310231
3866317677
3866323476
3866331593
3866337819
3866347707
3866354665
3866363881
3866369984
3866377370
3866385426
3866394704
3866403554
3866410634
3866418385
3866424916
3866432667
3866441029
3866455189
3866466725
3866478627
3866486317
3866496266
3866504261
3866512623
3866520741
3866528248
3866536122
3866541798
3866548451
3866556263
3866565113
3866572804
3866579151
3866586720
3866592457
3866598744
3866606068
3866611988
3866619801
3866627735
3866633289
3866640919
3866649036
3866657520
3866663502
3866672169
3866678150
3866686085
3866696216
3866702686
3866710010
3866715320
3866725574
3866730457
3866741871
3866748523
3866754627
3866761097
3866769031
3866774891
3866784046
3866792713
3866800403
3866809070
3866815296
3866823230
3866832386
3866838733
3866847644
3866855518
3866865222
3866872669
3866880542
3866887378
3866897144
3866904773
3866911975
3866920764
3866930469
3866936450
3866945728
3866955676
3866964038
3866973559
3866981921
3866989917
3866998096
3867006702
3867013537
3867022265
3867031054
3867038073
3867046435
3867055835
3867064441
3867073718
3867082324
3867089343
3867096667
3867107470
3867115649
3867122851
3867132983
3867141162
3867149523
3867159167
3867167163
3867175219
3867184191
3867191821
3867199755
3867206713
3867213915
3867220995
3867228991
3867236376
3867243334
3867251452
3867259020
3867265856
3867273241
3867280688
3867287157
3867295031
3867302111
3867310168
3867318163
3867324999
3867331530
3867337999
3867346972
3867353869
3867360643
3867367662
3867376268
3867383165
3867391771
3867398302
3867405382
3867413561
3867420763
3867429125
3867435778
3867442736
3867451586
3867458238
3867466295
3867473985
3867478868
3867486437
3867492540
3867501024
3867509081
3867514879
3867524583
3867533373
3867540025
3867545396
3867552721
3867557603
3867564195
3867570360
3867576524
3867581102
3867587572
3867593614
3867599962
3867607286
3867612291
3867618638
3867624254
3867630418
3867635301
3867640428
3867647264
3867651902
3867659471
3867665147
3867670518
3867674913
3867681199
3867688890
3867694322
3867700181
3867705613
3867710496
3867717149
3867722154
3867727647
3867733079
3867739366
3867744248
3867749803
3867754685
3867760484
3867764939
3867772996
3867781114
3867788560
3867793809
3867800645
3867806321
3867812425
3867818589
3867824021
3867828904
3867834824
3867839158
3867845261
3867849656
3867856065
3867860703
3867867051
3867872422
3867878342
3867885117
3867890610
3867896287
3867902817
3867907578
3867913132
3867920273
3867925828
3867931809
3867938462
3867943528
3867949631
3867955369
3867961289
3867966904
3867971116
3867978012
3867985032
3867990403
3867996567
3868000656
3868007798
3868014267
3868020188
3868025925
3868030869
3868037155
3868043564
3868048813
3868054489
3868059799
3868065964
3868072434
3868077805
3868084091
3868088669
3868094406
3868101303
3868107102
3868112656
3868116867
3868124680
3868130905
3868136581
3868142746
3868148849
3868154831
3868158493
3868164963
3868171738
3868177963
3868184494
3868190781
3868196701
3868202560
3868208725
3868215256
3868221725
3868228805
3868234604
3868240219
3868247055
3868252975
3868258773
3868266403
3868272384
3868279220
3868285995
3868293075
3868297958
3868306076
3868311752
3868318466
3868322372
3868329147
3868334213
3868340805
3868347030
3868352096
3868357772
3868363754
3868368331
3868374374
3868380599
3868384811
3868391097
3868396896
3868402084
3868408736
3868414047
3868420211
3868425521
3868431075
3868437484
3868441634
3868448226
3868453414
3868460128
3868465133
3868471297
3868478011
3868482101
3868488692
3868494369
3868499679
3868506698
3868512130
3868517745
3868522933
3868528609
3868535201
3868539840
3868547042
3868552291
3868558455
3868562972
3868569991
3868576644
3868580733
3868586776
3868592513
3868599105
3868603926
3868609236
3868615462
3868622176
3868626754
3868633467
3868639388
3868644087
3868650618
3868655440
3868660567
3868666792
3868673384
3868678694
3868684310
3868690596
3868695723
3868702193
3868707381
3868711958
3868718855
3868725630
3868730513
3868736189
3868742293
3868746565
3868752486
3868759505
3868765303
3868770796
3868777083
3868783064
3868788435
3868794050
3868799238
3868806380
3868812605
3868818770
3868824934
3868830855
3868838362
3868843550
3868849836
3868854536
3868859907
3868866438
3868872175
3868877058
3868883223
3868888533
3868894392
3868900129
3868906965
3868912764
3868917524
3868922346
3868928572
3868934065
3868939741
3868944746
3868950483
3868955732
3868960981
3868967146
3868972456
3868977155
3868982832
3868987714
3868993879
3868999494
3869004377
3869010481
3869015791
3869021345
3869026472
3869031904
3869038007
3869042280
3869049787
3869054609
3869061018
3869066267
3869072797
3869078046
3869084150
3869088361
3869095502
3869101545
3869109357
3869115705
3869119794
3869127546
3869133100
3869138349
3869143293
3869149640
3869155561
3869160260
3869166425
3869172467
3869176557
3869184797
3869189984
3869196149
3869201642
3869206525
3869213056
3869218488
3869224652
3869230329
3869236005
3869241742
3869247602
3869252362
3869257916
3869264935
3869270184
3869276227
3869280744
3869287763
3869293561
3869298993
3869305402
3869312421
3869317609
3869322797
3869329510
3869335858
3869341412
3869348248
3869354962
3869360272
3869369672
3869375470
3869382672
3869387738
3869392682
3869398968
3869403729
3869409405
3869415265
3869420331
3869426007
3869431805
3869435650
3869442364
3869446209
3869453228
3869457623
3869463787
3869469098
3869474896
3869479718
3869485333
3869491253
3869496685
3869501568
3869506939
3869513165
3869517865
3869523968
3869528424
3869534649
3869539776
3869545452
3869551068
3869556927
3869562969
3869568157
3869574200
3869578045
3869584271
3869590130
3869596294
3869601666
3869607586
3869613506
3869618450
3869623882
3869628094
3869633648
3869639080
3869644939
3869649639
3869654644
3869660808
3869665020
3869671551
3869676494
3869682476
3869687176
3869692791
3869698345
3869702495
3869708721
3869715008
3869720073
3869726055
3869732158
3869737102
3869742046
3869747600
3869753582
3869758709
3869764812
3869770366
3869775493
3869780498
3869786296
3869791179
3869796978
3869802288
3869807476
3869813640
3869818645
3869824382
3869828777
3869835674
3869842571
3869849101
3869855754
3869861308
3869866557
3869872356
3869877361
3869882976
3869888652
3869893962
3869897441
3869904094
3869908733
3869914775
3869920024
3869926799
3869930400
3869935832
3869941325
3869946818
3869951762
3869957500
3869963481
3869968547
3869973857
3869978862
3869982463
3869988811
3869994487
3869999370
3870004802
3870010173
3870015483
3870021586
3870025920
3870032512
3870037883
3870043132
3870046611
3870053080
3870056681
3870062724
3870069316
3870074626
3870078105
3870084574
3870089457
3870094706
3870099284
3870104960
3870110514
3870116435
3870121562
3870126567
3870131632
3870137675
3870142802
3870148478
3870154032
3870159281
3870163981
3870169901
3870176188
3870181376
3870188090
3870193156
3870198893
3870203593
3870209269
3870214884
3870218790
3870225321
3870229105
3870235758
3870239786
3870245646
3870251566
3870256388
3870262064
3870266886
3870272135
3870277079
3870283060
3870288798
3870293497
3870298197
3870303019
3870308634
3870313578
3870319315
3870324320
3870330912
3870337504
3870344828
3870351481
3870356852
3870362894
3870369059
3870373331
3870378946
3870385355
3870391214
3870395853
3870402506
3870406900
3870412149
3870419046
3870422708
3870427957
3870433939
3870438883
3870443521
3870449014
3870453714
3870459085
3870463114
3870468179
3870473490
3870477762
3870484293
3870489420
3870493509
3870501077
3870506265
3870513467
3870520059
3870523538
3870531229
3870536722
3870542398
3870549356
3870553262
3870560342
3870565896
3870570413
3870577188
3870582742
3870587198
3870593057
3870599100
3870604226
3870610208
3870614908
3870620645
3870626565
3870631692
3870637613
3870642923
3870649331
3870653421
3870659280
3870665323
3870669961
3870674905
3870679971
3870686013
3870691507
3870697610
3870701944
3870707559
3870712625
3870717630
3870722756
3870729531
3870735574
3870740701
3870746682
3870752175
3870757485
3870762490
3870768044
3870774331
3870778665
3870785134
3870789834
3870795510
3870800210
3870806557
3870811257
3870817788
3870825784
3870830178
3870836587
3870843240
3870849343
3870855447
3870860146
3870865822
3870870217
3870876076
3870881020
3870887307
3870892800
3870896889
3870902749
3870907876
3870912392
3870917214
3870923134
3870928322
3870934060
3870939675
3870944802
3870949257
3870954689
3870959328
3870966347
3870971108
3870975563
3870980873
3870986794
3870990273
3870996132
3871002114
3871008522
3871013100
3871018349
3871022805
3871028176
3871033180
3871039101
3871044106
3871050759
3871056618
3871060890
3871066628
3871074196
3871077980
3871085915
3871091225
3871096352
3871100319
3871105629
3871111977
3871117470
3871123695
3871127602
3871133827
3871139137
3871144264
3871148964
3871155250
3871162514
3871167152
3871172035
3871177589
3871182350
3871187660
3871192543
3871199684
3871204384
3871209572
3871215126
3871219337
3871224952
3871229652
3871236366
3871242531
3871248512
3871253456
3871259437
3871265663
3871270790
3871276832
3871281898
3871288063
3871293190
3871298927
3871305946
3871311927
3871318702
3871324501
3871331642
3871337867
3871343116
3871348304
3871353492
3871360328
3871366065
3871370338
3871377052
3871381629
3871386390
3871392127
3871397254
3871403297
3871407569
3871412940
3871418739
3871423499
3871428931
3871434425
3871440284
3871445411
3871450782
3871456641
3871462073
3871466834
3871472999
3871478858
3871484351
3871489966
3871494666
3871500281
3871504859
3871510962
3871516700
3871521949
3871526954
3871532325
3871536414
3871541297
3871547095
3871553992
3871559180
3871564063
3871569495
3871575782
3871580542
3871587012
3871592993
3871598731
3871605017
3871610083
3871614722
3871620581
3871627173
3871631507
3871637854
3871642981
3871648718
3871653662
3871659400
3871664099
3871670813
3871676062
3871681738
3871687354
3871691565
3871697119
3871701453
3871707434
3871712195
3871718481
3871723853
3871729102
3871735144
3871740637
3871745398
3871751379
3871757239
3871761816
3871767676
3871772986
3871777991
3871782873
3871789648
3871796789
3871802710
3871809302
3871814978
3871820959
3871825720
3871831579
3871837927
3871843237
3871847815
3871852636
3871858313
3871862768
3871870337
3871876440
3871880957
3871886694
3871891638
3871895849
3871901770
3871906469
3871911596
3871917456
3871922460
3871927465
3871933142
3871937292
3871943212
3871948705
3871954260
3871958410
3871964941
3871969579
3871975134
3871980016
3871985815
3871991186
3871996069
3872002111
3872006933
3872012670
3872017614
3872022314
3872028051
3872034093
3872039770
3872045141
3872050085
3872054052
3872061315
3872067480
3872072484
3872078344
3872084081
3872089147
3872093786
3872099401
3872105138
3872111425
3872115575
3872121007
3872126989
3872131810
3872138036
3872143041
3872149816
3872155004
3872159642
3872165746
3872170568
3872176244
3872180699
3872186681
3872193029
3872197484
3872204076
3872208226
3872213841
3872219091
3872225377
3872230870
3872237035
3872243382
3872248570
3872253697
3872257482
3872264501
3872271092
3872276036
3872280675
3872286717
3872292333
3872298802
3872304234
3872313084
3872319737
3872326146
3872332555
3872338048
3872343907
3872348668
3872353673
3872360753
3872366795
3872370701
3872377415
3872381810
3872387913
3872393040
3872399083
3872403050
3872409153
3872414647
3872420201
3872424534
3872430943
3872436741
3872442418
3872447178
3872452732
3872458897
3872464146
3872468663
3872473912
3872479527
3872484776
3872490757
3872497166
3872501194
3872507481
3872514988
3872520115
3872524815
3872531407
3872536534
3872543186
3872548496
3872554844
3872559727
3872565769
3872570774
3872577000
3872582066
3872588169
3872594517
3872599094
3872606663
3872611362
3872617893
3872623936
3872629673
3872634251
3872642490
3872647800
3872653721
3872659336
3872665317
3872670566
3872676914
3872682285
3872687778
3872694248
3872699985
3872706211
3872711521
3872716160
3872722202
3872728794
3872733066
3872739353
3872745762
3872749973
3872756382
3872760593
3872768344
3872773899
3872779148
3872785312
3872790927
3872797580
3872802341
3872807346
3872813571
3872825778
3872832492
3872839267
3872845676
3872850437
3872856784
3872862277
3872868198
3872874851
3872879916
3872885776
3872890964
3872897250
3872902683
3872908298
3872914462
3872919650
3872925326
3872930453
3872936435
3872942538
3872946261
3872953281
3872958835
3872963718
3872969455
3872975192
3872979220
3872986117
3872992709
3872997409
3873003573
3873007846
3873013888
3873018588
3873024081
3873031283
3873036776
3873041537
3873047213
3873053317
3873057284
3873063266
3873068515
3873074130
3873079989
3873084079
3873091525
3873097628
3873103366
3873108554
3873115023
3873120211
3873125460
3873132113
3873137057
3873142611
3873148776
3873153719
3873159701
3873164889
3873171847
3873177218
3873184298
3873189425
3873194613
3873201327
3873206210
3873211398
3873216891
3873223605
3873228915
3873235140
3873239962
3873245760
3873252413
3873256502
3873263399
3873270052
3873275973
3873281161
3873287142
3873292208
3873296236
3873303133
3873308687
3873315645
3873320528
3873326387
3873331087
3873337984
3873345003
3873350863
3873357820
3873367769
3873373690
3873379671
3873383760
3873389376
3873394319
3873399935
3873406038
3873413057
3873417452
3873423616
3873429537
3873435030
3873438997
3873444856
3873450777
3873455721
3873461458
3873467806
3873473299
3873479341
3873484346
3873490205
3873495638
3873500642
3873506807
3873511629
3873517671
3873522981
3873527864
3873534212
3873539949
3873544710
3873550813
3873556673
3873560518
3873566865
3873573335
3873578950
3873584810
3873589937
3873596467
3873602632
3873607698
3873613862
3873619172
3873625337
3873629487
3873638520
3873643708
3873649873
3873655061
3873661225
3873666658
3873671846
3873677034
3873682710
3873689363
3873694856
3873700959
3873706208
3873712434
3873716889
3873723176
3873728669
3873734406
3873739716
3873745820
3873752046
3873756928
3873763520
3873769807
3873774567
3873780976
3873785615
3873792268
3873797150
3873803193
3873809724
3873813691
3873819672
3873825715
3873830781
3873835602
3873842255
3873852143
3873859284
3873863434
3873870942
3873875580
3873883332
3873888642
3873894990
3873900178
3873905854
3873910614
3873916291
3873921540
3873927338
3873934052
3873938752
3873944855
3873949250
3873955414
3873961090
3873966950
3873972199
3873977326
3873982819
3873988068
3873992646
3873996247
3874002777
3874008148
3874014069
3874019318
3874024994
3874028717
3874034943
3874040985
3874045197
3874051727
3874057587
3874062286
3874068085
3874074066
3874079010
3874085114
3874089935
3874097382
3874102325
3874106232
3874112213
3874117645
3874122650
3874129120
3874135528
3874141022
3874146515
3874151459
3874156891
3874161774
3874168732
3874173614
3874178863
3874184479
3874189544
3874195404
3874199554
3874205780
3874212738
3874216888
3874223602
3874228302
3874233612
3874238983
3874245147
3874250335
3874256500
3874262603
3874267547
3874272979
3874276947
3874282745
3874289276
3874294342
3874300018
3874304901
3874310272
3874316375
3874320953
3874327178
3874331817
3874338104
3874343719
3874348663
3874357513
3874364410
3874371124
3874378814
3874386443
3874393829
3874400298
3874406402
3874412078
3874417998
3874422088
3874428374
3874432464
3874440703
3874445403
3874451446
3874457671
3874462066
3874467803
3874473357
3874478606
3874483794
3874489654
3874493865
3874501555
3874506316
3874512481
3874516387
3874523040
3874529509
3874534392
3874540496
3874546904
3874552520
3874556670
3874563811
3874568633
3874573882
3874580901
3874586516
3874592436
3874598418
3874603240
3874608306
3874614958
3874620513
3874626738
3874632048
3874638396
3874644255
3874649016
3874657012
3874662444
3874668120
3874674895
3874679167
3874685576
3874691862
3874696623
3874703947
3874708586
3874715056
3874719572
3874725798
3874730925
3874736540
3874742277
3874748259
3874753508
3874759062
3874765043
3874769743
3874776152
3874782988
3874787810
3874794157
3874798796
3874805082
3874810453
3874816557
3874823332
3874829191
3874834196
3874839262
3874844999
3874851042
3874855619
3874865934
3874873808
3874879667
3874885527
3874892424
3874899381
3874904814
3874910978
3874917021
3874920927
3874927763
3874932401
3874939054
3874944547
3874951078
3874955778
3874962492
3874966947
3874973600
3874979215
3874985380
3874991544
3874997160
3875003568
3875007780
3875014127
3875017911
3875025175
3875030607
3875036771
3875041349
3875047025
3875052091
3875057828
3875063444
3875067838
3875075345
3875081388
3875086210
3875090909
3875097074
3875102567
3875108365
3875115079
3875119962
3875126249
3875132169
3875136441
3875142789
3875149564
3875155667
3875162137
3875168119
3875174039
3875179471
3875185941
3875191800
3875198087
3875202054
3875207913
3875213956
3875221280
3875226285
3875232449
3875238736
3875243680
3875249722
3875255277
3875260648
3875266202
3875272183
3875277554
3875284207
3875288724
3875294461
3875300320
3875306180
3875312711
3875319180
3875323758
3875329922
3875334927
3875340726
3875346341
3875352200
3875358792
3875364834
3875369473
3875374905
3875381680
3875388638
3875393277
3875405423
3875411526
3875417019
3875423428
3875429593
3875434842
3875440213
3875446621
3875451565
3875457730
3875462002
3875468228
3875474087
3875480007
3875486538
3875491726
3875495938
3875503323
3875508267
3875515042
3875520230
3875526699
3875531582
3875537686
3875542873
3875549160
3875553860
3875560024
3875566372
3875572231
3875578335
3875582912
3875589565
3875595119
3875601223
3875606167
3875611233
3875617519
3875621853
3875627773
3875633572
3875638027
3875644375
3875649685
3875655727
3875661159
3875667080
3875671840
3875677395
3875683742
3875688137
3875694179
3875698879
3875704372
3875710720
3875715908
3875721706
3875727321
3875732998
3875737758
3875743496
3875748134
3875754970
3875760952
3875765407
3875772304
3875776943
3875782192
3875788295
3875793849
3875799587
3875804225
3875809596
3875816066
3875821803
3875828273
3875834865
3875838649
3875845058
3875850734
3875856899
3875861232
3875867275
3875873927
3875878444
3875886195
3875891017
3875897975
3875904018
3875910426
3875915248
3875921535
3875926417
3875932277
3875937709
3875943690
3875948451
3875954127
3875960170
3875964686
3875971034
3875975734
3875981471
3875986049
3875991725
3875997889
3876001735
3876008082
3876014186
3876019069
3876023707
3876031153
3876036403
3876042140
3876047755
3876051539
3876058436
3876063807
3876068629
3876074732
3876079737
3876085658
3876091578
3876097315
3876102687
3876107447
3876113673
3876118617
3876124110
3876128932
3876135218
3876139918
3876145716
3876152003
3876160365
3876166285
3876171351
3876177637
3876183009
3876188197
3876192469
3876200404
3876203272
3876211085
3876216761
3876222620
3876228297
3876233973
3876240381
3876245630
3876252344
3876256373
3876262720
3876267847
3876274195
3876281519
3876286158
3876292627
3876296961
3876303248
3876308008
3876314356
3876319910
3876326258
3876331324
3876337305
3876342371
3876348597
3876355005
3876360804
3876366602
3876371729
3876377344
3876383692
3876388880
3876395838
3876401880
3876408289
3876416284
3876420801
3876428552
3876434046
3876439722
3876444910
3876448633
3876456445
3876462244
3876468774
3876473596
3876479883
3876486780
3876490930
3876497278
3876503381
3876508081
3876514490
3876520288
3876526147
3876532617
3876536890
3876543542
3876549524
3876555749
3876560449
3876566247
3876571557
3876575403
3876582849
3876587732
3876594018
3876599939
3876606347
3876611169
3876618554
3876622461
3876628686
3876634851
3876640771
3876645715
3876651879
3876658044
3876662133
3876668847
3876674035
3876678186
3876685021
3876689660
3876695458
3876701562
3876707177
3876713037
3876717492
3876723107
3876729455
3876735009
3876741235
3876745873
3876751366
3876755578
3876761803
3876768090
3876773583
3876779565
3876783471
3876789819
3876794640
3876800744
3876806969
3876812157
3876816491
3876821557
3876827355
3876833764
3876839623
3876844811
3876851159
3876857140
3876862023
3876867821
3876873070
3876879906
3876886437
3876891564
3876899254
3876905541
3876912316
3876916954
3876927269
3876933129
3876937889
3876943688
3876949974
3876953636
3876960167
3876965843
3876972130
3876977989
3876984276
3876990502
3876996361
3877001732
3877007591
3877014061
3877020409
3877025292
3877030357
3877036461
3877043053
3877049156
3877055687
3877059898
3877066429
3877072472
3877077782
3877083092
3877089684
3877092674
3877100609
3877105431
3877112083
3877118004
3877122703
3877128563
3877134849
3877140526
3877147056
3877152122
3877156883
3877163292
3877168419
3877175071
3877182884
3877188865
3877194297
3877199913
3877204002
3877210960
3877217125
3877223655
3877228538
3877234336
3877239952
3877244102
3877251915
3877257713
3877264366
3877269065
3877275352
3877281089
3877285118
3877292381
3877297508
3877303916
3877309104
3877315147
3877319908
3877325645
3877332359
3877338340
3877343406
3877348350
3877354575
3877360313
3877366416
3877371482
3877378562
3877384666
3877390098
3877395896
3877402915
3877415183
3877421043
3877429343
3877436729
3877442222
3877448508
3877454612
3877458396
3877465720
3877469748
3877475974
3877480918
3877487021
3877491721
3877498679
3877504111
3877508262
3877515525
3877520957
3877526145
3877532309
3877537741
3877543723
3877548911
3877554526
3877559836
3877566184
3877572165
3877577292
3877583823
3877589438
3877593649
3877601279
3877606894
3877612204
3877617453
3877622763
3877629294
3877635947
3877640524
3877647177
3877652426
3877658347
3877663168
3877671103
3877675925
3877681418
3877687277
3877691367
3877697348
3877703635
3877709799
3877714499
3877720175
3877725729
3877730978
3877737509
3877743124
3877747336
3877755270
3877760580
3877766501
3877770529
3877776510
3877783285
3877787558
3877793966
3877799887
3877806173
3877810202
3877816366
3877822470
3877826803
3877835043
3877839560
3877845846
3877850729
3877856771
3877862509
3877866964
3877875570
3877880697
3877885763
3877891683
3877897787
3877903829
3877908163
3877915548
3877920248
3877928243
3877933431
3877940633
3877947103
3877952230
3877961813
3877967367
3877972982
3877977254
3877983053
3877989278
3877995138
3878000143
3878006307
3878011068
3878017660
3878023397
3878028890
3878032918
3878039327
3878044759
3878050985
3878055501
3878061605
3878066305
3878072042
3878076803
3878083822
3878088765
3878092550
3878099813
3878104818
3878111470
3878117513
3878123372
3878127156
3878132528
3878139974
3878143941
3878151143
3878158040
3878164266
3878168843
3878173543
3878179341
3878185811
3878190022
3878196736
3878202596
3878208516
3878213216
3878218587
3878223409
3878228902
3878235249
3878240987
3878246480
3878250325
3878255818
3878262105
3878267598
3878274983
3878278584
3878284077
3878290120
3878296101
3878300862
3878306721
3878312520
3878317586
3878324727
3878330525
3878335286
3878341328
3878346577
3878352437
3878358235
3878364216
3878368977
3878374409
3878380818
3878385457
3878391743
3878396870
3878403035
3878407856
3878414082
3878419087
3878426533
3878436177
3878441487
3878448445
3878454548
3878459431
3878465840
3878471882
3878477558
3878482807
3878487629
3878492756
3878498615
3878504231
3878510517
3878516071
3878521992
3878526386
3878532429
3878538776
3878544514
3878549824
3878553852
3878560688
3878566792
3878571980
3878577167
3878583393
3878587910
3878594807
3878601032
3878606830
3878611042
3878617206
3878623798
3878628010
3878634601
3878638752
3878646564
3878652546
3878657123
3878662678
3878667072
3878672321
3878678364
3878683063
3878689350
3878695514
3878699421
3878705341
3878711872
3878716938
3878725238
3878730793
3878735553
3878741230
3878747211
3878753742
3878758930
3878765521
3878771930
3878777179
3878783283
3878790546
3878795612
3878802142
3878808307
3878813190
3878818866
3878825031
3878830280
3878836383
3878842242
3878847736
3878853839
3878859760
3878865009
3878870929
3878876300
3878881183
3878887714
3878893146
3878898334
3878903522
3878910113
3878916095
3878920917
3878927142
3878933551
3878938312
3878944354
3878948932
3878956683
3878963153
3878969012
3878976031
3878980731
3878987750
3878997516
3879001727
3879008990
3879014544
3879019610
3879025470
3879032733
3879039141
3879042926
3879049823
3879054278
3879060504
3879066790
3879071612
3879077471
3879083270
3879088885
3879094561
3879100176
3879106890
3879112139
3879118060
3879123187
3879129168
3879133379
3879138384
3879145037
3879151080
3879157122
3879162859
3879168230
3879173846
3879179827
3879185137
3879192034
3879198565
3879203570
3879210161
3879215655
3879221880
3879227740
3879231951
3879239397
3879245318
3879250933
3879256609
3879261858
3879267656
3879272966
3879278521
3879285296
3879290728
3879295122
3879300615
3879306414
3879310930
3879317705
3879323198
3879329485
3879334429
3879339678
3879344683
3879350542
3879355547
3879360247
3879366350
3879372576
3879378313
3879382646
3879388689
3879395647
3879400713
3879407610
3879413774
3879419695
3879426897
3879432573
3879437456
3879443071
3879449297
3879454301
3879459917
3879464372
3879470171
3879474870
3879481462
3879489519
3879495500
3879502397
3879507036
3879513689
3879519548
3879524919
3879529924
3879536027
3879541520
3879547441
3879552324
3879557573
3879563676
3879570512
3879575151
3879581254
3879586625
3879591630
3879597490
3879602250
3879607377
3879613542
3879619401
3879625261
3879630021
3879635636
3879639238
3879645158
3879651567
3879655778
3879662797
3879667131
3879673234
3879677323
3879683427
3879688310
3879694474
3879700578
3879705583
3879710465
3879716386
3879721269
3879726090
3879732438
3879737321
3879743424
3879748185
3879753861
3879758988
3879765214
3879770829
3879776505
3879782792
3879785477
3879793656
3879797867
3879804093
3879810136
3879814835
3879820389
3879825944
3879830643
3879836442
3879840470
3879846573
3879853409
3879860611
3879865494
3879870560
3879876664
3879880204
3879886246
3879891739
3879897843
3879903702
3879908890
3879914139
3879919266
3879924942
3879930802
3879935807
3879941422
3879946488
3879952713
3879957169
3879962845
3879968827
3879973038
3879979325
3879985306
3879991226
3879997574
3880004410
3880009903
3880018448
3880024796
3880031021
3880035049
3880042435
3880044937
3880052322
3880059341
3880064346
3880070755
3880074722
3880081314
3880085220
3880091446
3880098587
3880103958
3880110123
3880114761
3880119766
3880125198
3880130630
3880136734
3880143081
3880149185
3880153763
3880158828
3880164505
3880169388
3880175430
3880182205
3880186660
3880192886
3880197952
3880203506
3880207840
3880212661
3880218582
3880224868
3880230300
3880235855
3880241775
3880245742
3880253128
3880258743
3880264358
3880270217
3880278091
3880283401
3880288894
3880293716
3880301467
3880307327
3880312942
3880318496
3880323318
3880330093
3880334731
3880340835
3880347060
3880353225
3880358596
3880363357
3880367202
3880374160
3880379958
3880386489
3880391738
3880397475
3880402114
3880408034
3880412124
3880418166
3880425429
3880431106
3880435927
3880441298
3880446120
3880451980
3880456923
3880463820
3880468581
3880473769
3880479506
3880485427
3880490432
3880495009
3880501113
3880509902
3880516310
3880523513
3880528273
3880535598
3880540847
3880547011
3880552504
3880558669
3880563735
3880569106
3880575148
3880579360
3880585524
3880591567
3880597975
3880602614
3880608412
3880614699
3880618605
3880624648
3880629897
3880636183
3880641127
3880647292
3880653090
3880657668
3880663344
3880667982
3880675001
3880679823
3880685927
3880691969
3880696791
3880701979
3880706862
3880713454
3880719191
3880724074
3880729811
3880735487
3880739210
3880745497
3880750868
3880757277
3880762587
3880768263
3880772474
3880778212
3880783888
3880790297
3880796705
3880801527
3880807631
3880812574
3880817396
3880822279
3880828504
3880834486
3880839369
3880844007
3880849745
3880854811
3880861158
3880866285
3880873182
3880879591
3880882643
3880890272
3880894911
3880899671
3880904798
3880910780
3880915601
3880921705
3880926038
3880931593
3880936231
3880942030
3880948377
3880952589
3880959364
3880964552
3880969495
3880975477
3880980726
3880985364
3880991468
3880996473
3881006238
3881012281
3881016920
3881025525
3881032239
3881037305
3881043897
3881050794
3881058301
3881063367
3881068433
3881073499
3881079786
3881086988
3881091077
3881097791
3881102857
3881107923
3881113477
3881118482
3881124158
3881130506
3881136670
3881142835
3881148328
3881154920
3881160474
3881167737
3881173963
3881178845
3881184827
3881189588
3881195508
3881200513
3881206677
3881214246
3881219922
3881224622
3881230664
3881237317
3881242261
3881248303
3881253186
3881260632
3881265759
3881271924
3881278210
3881282788
3881288953
3881296094
3881300732
3881307690
3881313916
3881318555
3881324414
3881331311
3881337536
3881342419
3881349072
3881356213
3881360730
3881366955
3881374035
3881379406
3881385693
3881390759
3881396862
3881403088
3881408703
3881414318
3881421276
3881426892
3881431469
3881437634
3881444470
3881449291
3881455334
3881461132
3881466747
3881472546
3881477429
3881484570
3881490124
3881496472
3881504223
3881508801
3881515087
3881522167
3881529247
3881538219
3881544994
3881551220
3881556652
3881563366
3881568737
3881574169
3881579601
3881586132
3881593517
3881599804
3881604931
3881611278
3881616955
3881623424
3881627270
3881634044
3881641796
3881647838
3881652782
3881659069
3881664684
3881670543
3881676220
3881681652
3881687389
3881693981
3881699779
3881706188
3881712596
3881718822
3881723217
3881729381
3881733898
3881740612
3881745555
3881752086
3881756969
3881762645
3881768382
3881774120
3881780956
3881786144
3881793041
3881797679
3881802867
3881808177
3881814281
3881819957
3881825450
3881831065
3881835094
3881840709
3881847057
3881852306
3881858531
3881863719
3881869762
3881875987
3881881541
3881886607
3881893382
3881898875
3881904124
3881909678
3881915172
3881922435
3881928782
3881935252
3881940318
3881945628
3881951610
3881956553
3881962657
3881970103
3881975108
3881979808
3881986522
3881993480
3881999217
3882005381
3882012095
3882018138
3882023936
3882029734
3882033763
3882040721
3882045176
3882052561
3882057017
3882063670
3882070140
3882075022
3882080943
3882086741
3882092661
3882098460
3882103770
3882107920
3882114817
3882121165
3882126170
3882131297
3882137644
3882142710
3882148875
3882154490
3882160593
3882164744
3882172312
3882177622
3882181650
3882188608
3882192759
3882200022
3882205149
3882211741
3882217234
3882223398
3882228342
3882234629
3882240671
3882246164
3882251841
3882255991
3882263559
3882268686
3882275766
3882280283
3882286814
3882290964
3882297373
3882305429
3882309641
3882315683
3882321970
3882327097
3882333261
3882339548
3882346140
3882350473
3882357920
3882363169
3882368234
3882374521
3882378977
3882385324
3882391428
3882397165
3882403085
3882408151
3882413767
3882420114
3882425485
3882431467
3882436960
3882443491
3882448495
3882454538
3882459787
3882465585
3882471567
3882476449
3882482065
3882488046
3882492135
3882498971
3882504037
3882514902
3882522897
3882528207
3882534067
3882540231
3882546518
3882551828
3882557870
3882562570
3882567514
3882574167
3882579110
3882585763
3882591500
3882597543
3882602548
3882608651
3882613290
3882619332
3882625314
3882631051
3882637094
3882642831
3882648019
3882653817
3882659127
3882664804
3882670175
3882676156
3882681527
3882686959
3882693429
3882697701
3882704415
3882708505
3882716622
3882720773
3882727059
3882733163
3882738778
3882744759
3882751168
3882757821
3882763497
3882768502
3882773080
3882780038
3882785714
3882791756
3882796090
3882802743
3882813363
3882820626
3882827096
3882836922
3882844124
3882852120
3882862191
3882869210
3882876778
3882884163
3882892037
3882899849
3882907662
3882914315
3882922493
3882930306
3882938301
3882945992
3882953743
3882960945
3882969002
3882977791
3882985603
3882992989
3883000191
3883007820
3883015083
3883021004
3883027718
3883033272
3883039619
3883045052
3883050850
3883056343
3883061775
3883068245
3883073555
3883079903
3883084968
3883091804
3883097908
3883104133
3883110420
3883117683
3883123298
3883129402
3883135017
3883141121
3883147468
3883153145
3883158455
3883162483
3883169990
3883175727
3883181099
3883185859
3883192451
3883198249
3883204048
3883209541
3883215339
3883220588
3883225837
3883230781
3883237983
3883243537
3883249275
3883255744
3883261176
3883267646
3883273689
3883278144
3883285529
3883290595
3883295844
3883301032
3883307502
3883312385
3883318855
3883324104
3883330634
3883336921
3883341254
3883348640
3883353095
3883359626
3883364570
3883371162
3883376044
3883382331
3883389045
3883395942
3883400641
3883407233
3883412543
3883419196
3883425361
3883431403
3883437690
3883443793
3883449714
3883454902
3883461738
3883466498
3883472541
3883480048
3883485724
3883491034
3883496161
3883501960
3883508612
3883514655
3883521308
3883527411
3883533148
3883537848
3883543158
3883549384
3883555304
3883561041
3883567206
3883573065
3883578620
3883586249
3883591071
3883602606
3883609015
3883614630
3883622565
3883628668
3883636114
3883640875
3883645026
3883648871
3883652960
3883657721
3883662421
3883667670
3883671515
3883676153
3883681158
3883686774
3883690192
3883695502
3883699774
3883703314
3883708380
3883712469
3883717657
3883723272
3883727301
3883730902
3883735235
3883740362
3883745611
3883750738
3883754461
3883758734
3883764166
3883767767
3883773077
3883777960
3883783514
3883786566
3883792364
3883795721
3883801458
3883806585
3883811102
3883814825
3883819097
3883824102
3883827642
3883832098
3883837042
3883842291
3883847662
3883851995
3883855963
3883859991
3883863897
3883869512
3883874395
3883877874
3883882696
3883887701
3883893011
3883896978
3883901678
3883906439
3883910345
3883915228
3883919317
3883923467
3883926580
3883931341
3883938177
3883942754
3883946783
3883950140
3883955022
3883958929
3883962896
3883966924
3883971868
3883977178
3883980474
3883987188
3883993047
3883998479
3884005437
3884010808
3884016302
3884019658
3884025335
3884030401
3884034429
3884038884
3884042730
3884047429
3884051641
3884055791
3884059819
3884064153
3884067205
3884073247
3884077092
3884081060
3884084417
3884089116
3884092412
3884097112
3884100774
3884106694
3884110051
3884114690
3884119084
3884122014
3884125798
3884130498
3884135869
3884140691
3884144963
3884149602
3884154058
3884157598
3884162663
3884169499
3884175176
3884178533
3884183293
3884189153
3884192937
3884198369
3884202397
3884207524
3884213506
3884218205
3884223576
3884228337
3884231877
3884237309
3884241093
3884247197
3884251469
3884257207
3884260930
3884266728
3884271733
3884275700
3884282902
3884287968
3884292180
3884296635
3884302434
3884306401
3884312138
3884317326
3884321965
3884328190
3884335209
3884339970
3884344426
3884349919
3884354496
3884358647
3884363530
3884369389
3884375920
3884381596
3884387028
3884390019
3884396794
3884400822
3884407048
3884411442
3884418339
3884423649
3884428776
3884432743
3884436772
3884442509
3884447087
3884451908
3884461186
3884469242
3884474308
3884480961
3884484989
3884491459
3884497318
3884503727
3884509831
3884514896
3884519718
3884523075
3884529179
3884536320
3884542789
3884547733
3884552128
3884557438
3884562443
3884567570
3884572636
3884577091
3884582035
3884587467
3884592472
3884597355
3884603092
3884608280
3884613407
3884618412
3884623234
3884628055
3884634769
3884640567
3884646000
3884649784
3884655887
3884659855
3884664127
3884670108
3884674991
3884681461
3884687259
3884691166
3884696048
3884700748
3884705936
3884711429
3884717655
3884722232
3884728397
3884733341
3884738040
3884745059
3884750797
3884756656
3884763492
3884770389
3884775455
3884780704
3884786624
3884791446
3884796268
3884801639
3884804874
3884811649
3884817996
3884823856
3884828555
3884832645
3884838199
3884841983
3884848575
3884853702
3884866031
3884871524
3884878360
3884886416
3884893924
3884896060
3884907107
3884911563
3884918765
3884925906
3884934024
3884939273
3884943850
3884956241
3884963931
3884969851
3884977481
3884984744
3884990420
3884996951
3885003237
3885010440
3885017825
3885026431
3885031619
3885042788
3885048709
3885054812
3885064395
3885075991
3885080508
3885093752
3885102419
3885110415
3885116335
3885122744
3885129641
3885137026
3885143313
3885151308
3885158633
3885163637
3885171511
3885176821
3885183474
3885189150
3885197329
3885204775
3885211855
3885216921
3885224611
3885230837
3885237673
3885241396
3885249636
3885255190
3885262819
3885271975
3885276857
3885284731
3885289492
3885296328
3885299929
3885308412
3885314211
3885323793
3885333986
3885340029
3885345033
3885351320
3885358766
3885364382
3885370180
3885376894
3885385988
3885393617
3885400880
3885407106
3885412782
3885418642
3885425661
3885429384
3885438966
3885445924
3885450807
3885460207
3885465272
3885471742
3885480226
3885487794
3885494996
3885500612
3885506715
3885519471
3885526429
3885532533
3885539613
3885546510
3885553285
3885559571
3885566774
3885571962
3885581117
3885587953
3885595582
3885600282
3885607362
3885613099
3885618898
3885625855
3885632386
3885641175
3885649293
3885655335
3885662721
3885668702
3885674317
3885681092
3885687196
3885694459
3885698914
3885708619
3885715028
3885721925
3885728638
3885733887
3885741090
3885747010
3885754517
3885760438
3885770814
3885778687
3885784974
3885789979
3885797730
3885802186
3885809327
3885814576
3885822571
3885832764
3885842591
3885849427
3885863343
3885870972
3885880005
3885888245
3885893555
3885901917
3885909119
3885914429
3885920655
3885926636
3885932495
3885937988
3885943421
3885947937
3885955017
3885960266
3885965943
3885970581
3885975830
3885980713
3885986206
3885991638
3885997070
3886002625
3886007935
3886013306
3886019226
3886022217
3886030457
3886036499
3886042236
3886045410
3886052795
3886059936
3886064941
3886069153
3886076355
3886081055
3886087219
3886093262
3886097290
3886102905
3886106933
3886112610
3886116455
3886125366
3886130493
3886137085
3886143310
3886148010
3886154785
3886161438
3886167602
3886174316
3886179138
3886184265
3886189636
3886195251
3886200805
3886206237
3886213134
3886217163
3886222595
3886229125
3886233154
3886237670
3886244201
3886248840
3886253478
3886259948
3886264953
3886269775
3886275024
3886281249
3886286559
3886291625
3886298278
3886303405
3886309386
3886314269
3886319030
3886324401
3886329101
3886336059
3886342651
3886348571
3886354858
3886361144
3886364684
3886373290
3886375976
3886382995
3886387511
3886394774
3886399474
3886406066
3886410521
3886414611
3886422301
3886428344
3886436095
3886442565
3886452025
3886457335
3886463256
3886468932
3886473388
3886480040
3886484313
3886491149
3886497069
3886502318
3886506652
3886511656
3886518004
3886522704
3886527526
3886534484
3886539916
3886542967
3886551512
3886556212
3886564024
3886570799
3886576415
3886581480
3886586852
3886592101
3886599425
3886605528
3886611021
3886617369
3886622984
3886628233
3886634276
3886640257
3886646300
3886651182
3886657286
3886662047
3886668150
3886673704
3886681212
3886686827
3886692564
3886697996
3886701170
3886710264
3886713499
3886719847
3886724730
3886733152
3886738279
3886745359
3886749876
3886757322
3886762144
3886768736
3886773619
3886781431
3886786253
3886793760
3886798460
3886803587
3886809568
3886813658
3886818968
3886825987
3886830503
3886837889
3886844358
3886849119
3886855161
3886859312
3886865904
3886872495
3886880857
3886885069
3886891966
3886895567
3886901792
3886907590
3886912473
3886917905
3886924985
3886930723
3886935606
3886941831
3886947324
3886954648
3886960081
3886970396
3886979001
3886985288
3886992429
3886999753
3887007322
3887013364
3887019590
3887026609
3887037717
3887054746
3887059140
3887071714
3887078855
3887086484
3887093808
3887101377
3887110044
3887114438
3887124204
3887130429
3887136655
3887143735
3887148740
3887156430
3887165219
3887171201
3887178159
3887185056
3887192197
3887197568
3887205563
3887209470
3887219662
3887225827
3887232419
3887239804
3887245114
3887252743
3887259030
3887266598
3887272946
3887278988
3887286374
3887295590
3887303769
3887308529
3887317685
3887324215
3887331906
3887338925
3887345395
3887351010
3887358334
3887367123
3887373043
3887379452
3887386715
3887393002
3887401120
3887405392
3887415524
3887421871
3887431332
3887438961
3887444393
3887452389
3887458859
3887467037
3887473629
3887481075
3887486324
3887493588
3887504391
3887512630
3887517574
3887524532
3887530209
3887537655
3887545650
3887551571
3887558102
3887566280
3887574642
3887580990
3887589290
3887593685
3887602291
3887608944
3887616329
3887621822
3887630428
3887636837
3887644039
3887650325
3887660701
3887666561
3887672603
3887679195
3887686336
3887694026
3887701839
3887709712
3887715816
3887723995
3887728328
3887736019
3887743465
3887749568
3887757686
3887767940
3887776546
3887783931
3887789790
3887796199
3887803706
3887811397
3887818660
3887824702
3887831660
3887839046
3887847285
3887854976
3887862544
3887867427
3887876033
3887883296
3887890986
3887899714
3887910273
3887920405
3887931086
3887937922
3887946101
3887952449
3887960139
3887966365
3887972346
3887978999
3887984187
3887989741
3887995234
3888000605
3888003413
3888010432
3888014826
3888022578
3888027217
3888033259
3888037531
3888042170
3888048762
3888053340
3888058833
3888063899
3888070918
3888076838
3888081721
3888087092
3888092890
3888096003
3888103876
3888108881
3888114191
3888121027
3888127131
3888131892
3888137568
3888143183
3888148371
3888154291
3888157892
3888166926
3888174250
3888178827
3888183588
3888190912
3888195795
3888201166
3888206782
3888214106
3888221247
3888225519
3888231501
3888237482
3888244562
3888249750
3888255610
3888259089
3888268427
3888273066
3888279047
3888285334
3888289057
3888296137
3888301508
3888306757
3888312433
3888319208
3888325983
3888330560
3888336664
3888342157
3888347528
3888353632
3888360712
3888365961
3888371332
3888377008
3888383234
3888387689
3888394037
3888400140
3888404901
3888412469
3888417352
3888422235
3888428522
3888432733
3888437433
3888442987
3888448846
3888457818
3888464776
3888468133
3888475091
3888479974
3888486017
3888492669
3888498651
3888502313
3888511712
3888518304
3888526727
3888531488
3888539605
3888543817
3888550958
3888559076
3888564386
3888569696
3888575982
3888580499
3888586907
3888591546
3888596612
3888603936
3888609368
3888614007
3888619622
3888622430
3888631219
3888635186
3888640679
3888645745
3888652642
3888658990
3888664666
3888667474
3888674004
3888679864
3888684441
3888690911
3888695733
3888702630
3888707330
3888712273
3888718011
3888723382
3888728753
3888734551
3888740044
3888745782
3888751580
3888757561
3888760796
3888768731
3888772820
3888779229
3888783562
3888793084
3888797539
3888802178
3888808648
3888812371
3888819024
3888823113
3888830071
3888831597
3888842522
3888847039
3888852776
3888857964
3888864006
3888867668
3888874138
3888878533
3888886162
3888892082
3888898613
3888902947
3888908867
3888914543
3888918450
3888924858
3888930840
3888937615
3888942009
3888948235
3888953606
3888958489
3888963677
3888968803
3888971916
3888979973
3888984123
3888991203
3888994377
3889001274
3889006584
3889010612
3889016899
3889023125
3889028862
3889034599
3889040581
3889046135
3889050896
3889056022
3889060966
3889067375
3889073479
3889078605
3889085014
3889090263
3889096306
3889103142
3889109489
3889118522
3889123405
3889129814
3889136711
3889140800
3889147148
3889152580
3889157463
3889164604
3889169609
3889175895
3889181510
3889187309
3889193840
3889198905
3889203788
3889210014
3889215263
3889220573
3889226005
3889232719
3889238090
3889244682
3889250114
3889255851
3889261222
3889267692
3889272880
3889277641
3889283683
3889289237
3889294975
3889298331
3889308036
3889313346
3889319633
3889325858
3889329764
3889336967
3889342155
3889347770
3889352592
3889360892
3889366508
3889372367
3889377677
3889383597
3889388175
3889393180
3889400565
3889407035
3889412345
3889417960
3889423270
3889429007
3889435111
3889440970
3889447074
3889453788
3889460257
3889463736
3889470938
3889475760
3889482047
3889488150
3889492789
3889498099
3889504141
3889510977
3889517020
3889523123
3889528250
3889534354
3889539176
3889545462
3889550345
3889556937
3889562735
3889569144
3889575308
3889580923
3889586600
3889592032
3889598807
3889602103
3889609854
3889615347
3889621878
3889626639
3889633475
3889638235
3889644827
3889650137
3889654898
3889663016
3889667471
3889673575
3889679922
3889685965
3889689078
3889696219
3889702932
3889710074
3889722036
3889728628
3889736136
3889742910
3889749197
3889754507
3889761404
3889766836
3889771841
3889775869
3889780874
3889785208
3889790945
3889797476
3889803274
3889810049
3889814565
3889820852
3889824819
3889831228
3889836599
3889841665
3889847830
3889853018
3889858816
3889864248
3889868459
3889874014
3889878286
3889884878
3889889639
3889898611
3889905019
3889909292
3889913564
3889920217
3889925771
3889929311
3889935537
3889940664
3889947378
3889952260
3889957387
3889962942
3889967885
3889972951
3889978994
3889982107
3889991384
3889996816
3890003591
3890008535
3890013723
3890020803
3890024709
3890030751
3890036977
3890045461
3890051259
3890056874
3890060109
3890067495
3890072438
3890078847
3890085378
3890093495
3890098073
3890102773
3890109609
3890114125
3890120900
3890125112
3890130971
3890139028
3890144948
3890148061
3890155324
3890160024
3890167226
3890172109
3890177358
3890182607
3890189809
3890195241
3890200307
3890207143
3890212392
3890219472
3890225148
3890231007
3890237233
3890244252
3890250355
3890256093
3890262257
3890268300
3890274098
3890280140
3890283742
3890292897
3890299183
3890304554
3890310597
3890315785
3890320057
3890328053
3890336171
3890344044
3890356251
3890360890
3890367421
3890373524
3890378712
3890384510
3890389942
3890395497
3890400746
3890405812
3890411122
3890413990
3890420399
3890424854
3890433277
3890438221
3890444019
3890450062
3890455433
3890459705
3890466297
3890470692
3890477650
3890482533
3890487659
3890494068
3890498707
3890503773
3890509449
3890514271
3890518482
3890525684
3890531788
3890536854
3890541736
3890547108
3890552662
3890556690
3890561085
3890568592
3890573658
3890580616
3890585682
3890592945
3890597339
3890603138
3890608875
3890614246
3890620472
3890626270
3890631092
3890636097
3890643726
3890649097
3890653614
3890660511
3890669422
3890673938
3890678638
3890685718
3890689624
3890697132
3890698718
3890707141
3890711658
3890720081
3890723743
3890729236
3890735462
3890741565
3890746875
3890751941
3890757251
3890763049
3890769092
3890774768
3890780200
3890785754
3890791736
3890797595
3890800830
3890808154
3890814746
3890820666
3890826160
3890832385
3890837695
3890843616
3890849902
3890858142
3890862292
3890867724
3890872607
3890880115
3890884936
3890892322
3890902148
3890907763
3890912341
3890919177
3890925647
3890932666
3890939013
3890945971
3890951037
3890958789
3890963671
3890968066
3890972827
3890977526
3890982287
3890987658
3890990588
3891000476
3891005297
3891010790
3891016345
3891021472
3891026415
3891031786
3891037219
3891044177
3891049426
3891054858
3891059435
3891064928
3891069689
3891075549
3891078417
3891087939
3891092638
3891098681
3891103197
3891108324
3891113024
3891118212
3891123949
3891129931
3891135363
3891140917
3891147204
3891150866
3891158007
3891162340
3891169359
3891174669
3891182360
3891186815
3891193712
3891195360
3891204943
3891210009
3891216112
3891219408
3891227282
3891230761
3891237963
3891242540
3891249254
3891255724
3891260607
3891265306
3891271776
3891278795
3891284288
3891289476
3891295275
3891300768
3891306444
3891310839
3891315538
3891324632
3891332567
3891337633
3891342027
3891349291
3891353746
3891359728
3891365343
3891372301
3891377855
3891383653
3891386827
3891394517
3891399522
3891405138
3891411668
3891419786
3891424242
3891428575
3891435045
3891440233
3891445177
3891451280
3891456407
3891461107
3891466539
3891472154
3891477769
3891483079
3891489000
3891495103
3891501390
3891507676
3891515733
3891521470
3891528489
3891533555
3891539598
3891545640
3891552049
3891556504
3891563035
3891568040
3891573106
3891579454
3891585191
3891590867
3891595628
3891603440
3891612840
3891628282
3891634202
3891639573
3891644517
3891648423
3891655198
3891660081
3891664719
3891670762
3891676011
3891682236
3891686326
3891690781
3891698899
3891704514
3891709946
3891714219
3891720505
3891725022
3891730454
3891735520
3891743210
3891747910
3891754136
3891758591
3891763962
3891768906
3891774582
3891779709
3891784714
3891791855
3891797226
3891802353
3891806565
3891812180
3891819382
3891824936
3891829453
3891836533
3891842881
3891848496
3891852829
3891858872
3891863144
3891868637
3891873520
3891880173
3891886704
3891890549
3891896958
3891901535
3891906784
3891909897
3891919235
3891926315
3891931687
3891937180
3891942795
3891948959
3891954819
3891959702
3891965256
3891969711
3891975449
3891980148
3891987106
3891991257
3891996567
3892002914
3892007187
3892013534
3892018173
3892024826
3892029770
3892035080
3892040207
3892045517
3892051071
3892056503
3892059433
3892068527
3892080063
3892085800
3892093429
3892099655
3892104599
3892110275
3892118515
3892121872
3892127914
3892133346
3892138595
3892142501
3892148422
3892154037
3892158859
3892163436
3892169418
3892174240
3892179977
3892184310
3892189132
3892196090
3892201583
3892207199
3892212325
3892218307
3892223312
3892228317
3892233932
3892240524
3892248275
3892254195
3892259811
3892264022
3892269637
3892276046
3892280074
3892286483
3892293563
3892298507
3892302901
3892309127
3892314071
3892320357
3892324874
3892331283
3892336349
3892342879
3892346786
3892353194
3892358443
3892363387
3892366134
3892374862
3892380233
3892385909
3892391646
3892397017
3892401717
3892408797
3892413375
3892420150
3892425704
3892431563
3892436446
3892443343
3892447798
3892455367
3892459822
3892465926
3892468978
3892479720
3892485213
3892489852
3892495589
3892500655
3892507735
3892512007
3892518904
3892525252
3892531111
3892536360
3892542220
3892547224
3892553328
3892557967
3892564497
3892570967
3892578413
3892583357
3892588423
3892595198
3892600142
3892607405
3892611861
3892618086
3892621199
3892629744
3892636885
3892642683
3892648726
3892653242
3892657759
3892664045
3892672957
3892679731
3892687056
3892697065
3892701948
3892709150
3892713667
3892720015
3892725080
3892731794
3892736860
3892742964
3892747847
3892754316
3892760420
3892766462
3892773481
3892778181
3892782331
3892788923
3892793928
3892800215
3892804975
3892811567
3892817426
3892822614
3892828657
3892833723
3892840192
3892845380
3892851728
3892857404
3892865034
3892870283
3892876203
3892883771
3892890058
3892895795
3892901716
3892907270
3892910688
3892920331
3892923749
3892930952
3892935651
3892941633
3892948102
3892952619
3892958173
3892965070
3892970868
3892977582
3892983198
3892987836
3892994123
3892999128
3893007612
3893014386
3893021100
3893024762
3893032026
3893038861
3893042524
3893049787
3893054608
3893061627
3893067426
3893074933
3893079328
3893086530
3893092084
3893097516
3893102155
3893108319
3893116132
3893122357
3893127606
3893133038
3893136456
3893144025
3893148785
3893155316
3893159283
3893165753
3893172345
3893177350
3893182660
3893187543
3893193707
3893199933
3893205670
3893210675
3893217145
3893222394
3893228009
3893232709
3893239361
3893245465
3893249188
3893255658
3893262799
3893267804
3893272076
3893279889
3893286053
3893291729
3893299786
3893308453
3893315106
3893322491
3893327679
3893334515
3893339581
3893346295
3893351178
3893358074
3893365338
3893370037
3893375592
3893382794
3893387676
3893393048
3893398297
3893404339
3893407391
3893415508
3893421307
3893426861
3893429669
3893436871
3893441387
3893448467
3893453045
3893460613
3893465740
3893471600
3893478619
3893483440
3893489971
3893493145
3893500896
3893506451
3893512859
3893518352
3893525066
3893529949
3893536907
3893543377
3893547893
3893553448
3893559063
3893566936
3893571453
3893578838
3893585674
3893592144
3893600261
3893606487
3893612163
3893617656
3893623516
3893629314
3893636211
3893641704
3893646831
3893652996
3893659648
3893667034
3893670391
3893677165
3893682842
3893688091
3893693767
3893699687
3893706340
3893712566
3893718059
3893724223
3893729778
3893736430
3893741130
3893745586
3893752605
3893758891
3893765727
3893771220
3893776530
3893780925
3893788432
3893793437
3893799358
3893802470
3893812297
3893818400
3893824077
3893827556
3893834941
3893839824
3893845805
3893852092
3893858867
3893868083
3893873393
3893880229
3893887492
3893892497
3893899699
3893905558
3893914164
3893920634
3893929240
3893935466
3893938761
3893947245
3893952861
3893960307
3893964945
3893971659
3893978617
3893982585
3893988688
3893995036
3894000041
3894007060
3894010172
3894019389
3894024882
3894029887
3894035258
3894040629
3894046122
3894051737
3894056376
3894065592
3894069071
3894076151
3894081156
3894087443
3894093729
3894097758
3894104655
3894110819
3894117350
3894121073
3894128397
3894133402
3894141398
3894147135
3894154581
3894161600
3894167582
3894172892
3894178751
3894184610
3894189127
3894193827
3894200480
3894205423
3894212870
3894217752
3894223062
3894230082
3894234049
3894240152
3894246256
3894252481
3894258219
3894264383
3894269876
3894276041
3894280680
3894287149
3894291849
3894297098
3894302713
3894309183
3894315225
3894322061
3894328104
3894331644
3894339212
3894343546
3894350382
3894355203
3894363077
3894368021
3894374673
3894379495
3894385721
3894391031
3894395608
3894403299
3894406473
3894414834
3894419961
3894425577
3894429056
3894436197
3894441080
3894447000
3894454141
3894458536
3894467325
3894473306
3894479287
3894484231
3894491678
3894497720
3894505655
3894511941
3894519326
3894527200
3894535195
3894542092
3894550088
3894560464
3894569558
3894575845
3894583230
3894590249
3894603372
3894611001
3894615701
3894623696
3894630105
3894636758
3894641763
3894648415
3894652810
3894660439
3894665017
3894669411
3894676064
3894680703
3894687173
3894690407
3894697365
3894701028
3894708169
3894712929
3894718606
3894724099
3894729897
3894734231
3894740944
3894745461
3894752907
3894758034
3894762917
3894769448
