3955814335
3955820134
3955825261
3955831547
3955837285
3955843266
3955850102
3955856267
3955863041
3955869328
3955875493
3955882695
3955888859
3955894841
3955902104
3955909123
3955917057
3955923710
3955930241
3955937626
3955944950
3955950993
3955958378
3955965397
3955974186
3955980046
3955987187
3955992497
3956000919
3956008610
3956014530
3956021854
3956028324
3956033573
3956041447
3956047428
3956054935
3956062443
3956067142
3956074284
3956079655
3956086430
3956092106
3956101078
3956108890
3956114200
3956121647
3956128605
3956137638
3956145633
3956153080
3956162723
3956170536
3956179142
3956187687
3956193668
3956201297
3956213871
3956220523
3956231266
3956240055
3956247867
3956257144
3956266300
3956273746
3956281009
3956290347
3956297428
3956306766
3956315250
3956324893
3956331973
3956339908
3956347232
3956355716
3956362979
3956369571
3956376529
3956382999
3956392032
3956399295
3956406070
3956412906
3956422244
3956428958
3956435489
3956442080
3956450869
3956457766
3956465396
3956474124
3956480288
3956487735
3956496341
3956502688
3956511294
3956517154
3956526309
3956533389
3956542056
3956549197
3956559451
3956568606
3956575564
3956585452
3956592349
3956600588
3956609072
3956614871
3956621462
3956630862
3956639285
3956645876
3956653994
3956662539
3956668887
3956676516
3956684511
3956691958
3956698977
3956705630
3956714358
3956721377
3956728579
3956737856
3956746828
3956752871
3956760866
3956766909
3956776125
3956783876
3956794191
3956802309
3956809633
3956817934
3956825075
3956832827
3956841921
3956848451
3956856752
3956864199
3956872438
3956878969
3956888735
3956895937
3956906984
3956914247
3956921632
3956929689
3956937013
3956944215
3956953920
3956959962
3956966310
3956977113
3956986574
3956994264
3957001283
3957010316
3957016847
3957024598
3957032106
3957039613
3957048402
3957056581
3957063478
3957072694
3957079469
3957086671
3957094728
3957102845
3957112367
3957119752
3957127381
3957134523
3957140626
3957149354
3957155397
3957164308
3957170350
3957177674
3957185670
3957194581
3957200562
3957208497
3957214600
3957220704
3957227235
3957236268
3957242554
3957248841
3957256715
3957262757
3957272156
3957278504
3957287049
3957293946
3957300782
3957310853
3957320740
3957330018
3957337159
3957344849
3957354676
3957362305
3957369507
3957376587
3957385559
3957392212
3957399842
3957406678
3957416016
3957423645
3957430420
3957439270
3957446167
3957455384
3957461914
3957470154
3957477112
3957484375
3957493775
3957499085
3957509155
3957515503
3957524902
3957531738
3957538757
3957547791
3957554443
3957564026
3957571045
3957579895
3957586548
3957593445
3957603393
3957611267
3957617737
3957627746
3957631775
3957643066
3957649414
3957656494
3957665222
3957677185
3957683593
3957690307
3957699890
3957706909
3957713501
3957720459
3957727539
3957734130
3957744811
3957751708
3957758422
3957765380
3957772216
3957780273
3957786926
3957793517
3957799804
3957807678
3957815551
3957822875
3957829772
3957837646
3957844360
3957851501
3957858337
3957866210
3957873901
3957880981
3957887389
3957895873
3957903502
3957910399
3957918456
3957925902
3957933104
3957941344
3957950316
3957957396
3957964843
3957971679
3957978576
3957985839
3957992675
3957999205
3958006163
3958012511
3958020873
3958026183
3958033812
3958043090
3958052306
3958060179
3958067015
3958075499
3958082091
3958088622
3958096007
3958102599
3958109435
3958117674
3958123290
3958131773
3958137511
3958144286
3958150938
3958160094
3958167235
3958175658
3958181944
3958188780
3958194456
3958204100
3958212828
3958218321
3958225767
3958229857
3958236509
3958244444
3958250548
3958257078
3958262693
3958269651
3958277159
3958281981
3958288572
3958296446
3958303465
3958310301
3958317686
3958324278
3958330747
3958336973
3958343199
3958349668
3958356748
3958363096
3958368284
3958376402
3958382627
3958387937
3958393186
3958399778
3958404661
3958411253
3958416990
3958421812
3958426572
3958433286
3958439146
3958445432
3958450010
3958454771
3958462278
3958468015
3958473264
3958479185
3958485349
3958490903
3958497312
3958503110
3958509885
3958514524
3958521360
3958528013
3958533628
3958539060
3958544187
3958549375
3958555173
3958562070
3958566526
3958572995
3958577573
3958584165
3958589048
3958595639
3958599973
3958606809
3958612607
3958619748
3958625119
3958630979
3958636167
3958640988
3958647885
3958653195
3958658444
3958663632
3958670224
3958674985
3958681455
3958686643
3958691770
3958699521
3958704648
3958710019
3958716061
3958721066
3958726987
3958732358
3958738644
3958743466
3958749814
3958757199
3958762814
3958768368
3958773495
3958779111
3958785763
3958790585
3958797421
3958802853
3958807614
3958813840
3958818722
3958826840
3958831357
3958837216
3958844052
3958849545
3958854916
3958862179
3958869076
3958874264
3958879818
3958884945
3958892147
3958896969
3958903378
3958910031
3958916683
3958922421
3958929074
3958933651
3958940182
3958943966
3958950680
3958957211
3958962155
3958967587
3958974911
3958979550
3958984310
3958992062
3958996761
3959003414
3959009213
3959014462
3959019894
3959025204
3959031185
3959037899
3959042904
3959049557
3959053768
3959060299
3959065670
3959070492
3959076290
3959081478
3959089413
3959095150
3959100521
3959105587
3959110775
3959116207
3959122799
3959127437
3959133785
3959138424
3959145076
3959150264
3959156856
3959161861
3959168453
3959172969
3959177852
3959185665
3959190609
3959195430
3959202449
3959207759
3959214046
3959219905
3959225460
3959232418
3959237178
3959243709
3959248409
3959255428
3959259639
3959266170
3959271480
3959277644
3959282588
3959288814
3959294063
3959300411
3959307063
3959312373
3959318843
3959324702
3959330257
3959336116
3959341731
3959346858
3959353389
3959359676
3959364925
3959370845
3959375789
3959383906
3959391475
3959396846
3959402705
3959408381
3959413630
3959421016
3959427180
3959432124
3959438411
3959444331
3959450801
3959456721
3959461848
3959467769
3959474238
3959478938
3959485041
3959489192
3959493769
3959501155
3959505732
3959512080
3959517512
3959522517
3959527644
3959533930
3959539546
3959544306
3959550532
3959555720
3959562373
3959567195
3959572505
3959579340
3959583979
3959590876
3959596003
3959601923
3959608393
3959613947
3959619257
3959624628
3959631220
3959636896
3959641962
3959650690
3959656184
3959661555
3959667475
3959674006
3959678583
3959683771
3959689814
3959696650
3959700983
3959707575
3959712763
3959717707
3959724177
3959728998
3959734858
3959741877
3959747248
3959752863
3959758112
3959763117
3959769709
3959775385
3959780573
3959785639
3959790888
3959796381
3959802912
3959807245
3959814020
3959819696
3959824335
3959831537
3959837152
3959842645
3959849909
3959855219
3959862360
3959867426
3959872247
3959879572
3959884149
3959890924
3959899225
3959905939
3959910761
3959918085
3959923578
3959929315
3959934198
3959939142
3959945917
3959951105
3959957941
3959963434
3959969171
3959973505
3959979364
3959984552
3959990961
3959996576
3960002557
3960009027
3960015008
3960020135
3960025995
3960031183
3960036310
3960041925
3960046563
3960052179
3960056817
3960062371
3960068231
3960074090
3960077874
3960083551
3960088861
3960094842
3960100335
3960105218
3960110528
3960116632
3960122613
3960129022
3960133966
3960138726
3960143365
3960148858
3960153314
3960160333
3960165460
3960170831
3960175591
3960180474
3960185845
3960192925
3960198113
3960204705
3960210442
3960215386
3960221429
3960227166
3960233147
3960238152
3960243096
3960249688
3960254327
3960260613
3960265679
3960270318
3960276910
3960282708
3960289055
3960293755
3960300164
3960309014
3960313836
3960319878
3960326104
3960331963
3960337212
3960343010
3960348320
3960354363
3960359002
3960363884
3960370659
3960377007
3960381951
3960387749
3960392815
3960400505
3960405388
3960411980
3960417656
3960422966
3960428765
3960434197
3960438957
3960444756
3960450798
3960455986
3960461907
3960468193
3960474114
3960478630
3960484245
3960490227
3960495110
3960500115
3960505547
3960509575
3960516777
3960522697
3960527763
3960532707
3960537956
3960542839
3960548149
3960555412
3960559379
3960565727
3960570854
3960575798
3960582146
3960587272
3960592888
3960598137
3960602287
3960607597
3960611870
3960617363
3960623039
3960628349
3960634208
3960640129
3960643974
3960649772
3960656791
3960661247
3960665763
3960671257
3960677726
3960681694
3960687370
3960692924
3960698844
3960702446
3960707878
3960713249
3960718193
3960725212
3960731803
3960736015
3960741935
3960747489
3960754814
3960758720
3960765678
3960771171
3960774833
3960780998
3960786613
3960792838
3960798270
3960803825
3960809501
3960814384
3960820792
3960826835
3960832633
3960838004
3960843986
3960848746
3960855094
3960860343
3960866935
3960872306
3960878165
3960882499
3960887748
3960893180
3960898856
3960904166
3960909598
3960915153
3960920279
3960926017
3960930533
3960935660
3960940970
3960945975
3960951468
3960958121
3960962088
3960967215
3960972403
3960977896
3960982779
3960989432
3960995047
3961000540
3961005301
3961010855
3961015860
3961019828
3961026114
3961032767
3961037528
3961043631
3961049002
3961057913
3961063895
3961069205
3961075186
3961079825
3961084891
3961089774
3961095206
3961100577
3961106802
3961111380
3961116446
3961121939
3961126212
3961133108
3961138419
3961143301
3961148550
3961153250
3961158926
3961163992
3961171988
3961177054
3961181326
3961187063
3961191519
3961197989
3961204336
3961211172
3961215872
3961221853
3961227774
3961233633
3961239431
3961245047
3961250967
3961255240
3961262136
3961267141
3961273794
3961280752
3961286489
3961291799
3961296804
3961301382
3961306204
3961312979
3961317739
3961323049
3961328115
3961333853
3961338064
3961344717
3961348928
3961353079
3961358145
3961364675
3961370901
3961376943
3961383230
3961387747
3961392751
3961397695
3961403127
3961408743
3961414114
3961419607
3961425527
3961431448
3961438589
3961444448
3961449880
3961453847
3961459402
3961464590
3961469167
3961476919
3961482778
3961488454
3961493215
3961499257
3961503469
3961508779
3961515127
3961520803
3961526052
3961531728
3961537038
3961542287
3961547841
3961553457
3961559316
3961563344
3961570180
3961574453
3961580495
3961585744
3961591909
3961596730
3961602529
3961609426
3961616384
3961621205
3961626027
3961631825
3961638417
3961644094
3961649281
3961653493
3961661794
3961667531
3961673024
3961678273
3961685109
3961691029
3961696401
3961702748
3961708058
3961714101
3961720265
3961725148
3961731313
3961737843
3961743336
3961748097
3961754018
3961760365
3961766164
3961770741
3961777455
3961782765
3961789174
3961793812
3961800709
3961806386
3961812245
3961816945
3961822011
3961828602
3961832875
3961839833
3961846119
3961851246
3961855458
3961862904
3961868153
3961873585
3961879750
3961886219
3961890614
3961896473
3961901600
3961907582
3961913685
3961918446
3961926075
3961932728
3961937977
3961943409
3961949818
3961955128
3961960621
3961967335
3961971180
3961978382
3961983936
3961989307
3961994679
3962001881
3962007374
3962011890
3962019032
3962024464
3962030262
3962035877
3962041614
3962046802
3962052784
3962058460
3962065418
3962071827
3962075916
3962082447
3962089405
3962094593
3962100696
3962106373
3962113147
3962119861
3962127491
3962134266
3962140674
3962147266
3962151844
3962158680
3962165332
3962171558
3962175952
3962182972
3962188159
3962193958
3962200550
3962205127
3962210865
3962217334
3962222522
3962227466
3962232654
3962238819
3962243396
3962249439
3962254993
3962259570
3962264697
3962269641
3962276355
3962282031
3962288257
3962293323
3962299365
3962304614
3962309680
3962314868
3962319812
3962325183
3962331287
3962335925
3962341907
3962346179
3962352832
3962357776
3962363879
3962369861
3962374133
3962380298
3962384997
3962391040
3962395007
3962401172
3962407153
3962412402
3962418445
3962423755
3962428515
3962433886
3962438952
3962446215
3962451403
3962457934
3962462817
3962468859
3962473803
3962480761
3962487658
3962494067
3962499438
3962503955
3962508898
3962515185
3962520800
3962525195
3962532702
3962538500
3962544116
3962548998
3962554919
3962559435
3962567126
3962573962
3962579150
3962586169
3962590746
3962595446
3962601489
3962608752
3962616137
3962620776
3962626818
3962632311
3962637987
3962643969
3962650866
3962657275
3962662462
3962668505
3962672961
3962679980
3962685900
3962692431
3962696154
3962701830
3962706041
3962712450
3962718981
3962725329
3962729357
3962734423
3962739428
3962744555
3962750597
3962755236
3962761827
3962767748
3962773363
3962778917
3962783861
3962789904
3962795214
3962800157
3962806322
3962812792
3962819200
3962824816
3962830370
3962834581
3962840074
3962847276
3962851244
3962857042
3962862169
3962866930
3962871751
3962877306
3962882860
3962889208
3962892564
3962899644
3962904649
3962909471
3962914415
3962920579
3962926073
3962931200
3962937181
3962942186
3962946702
3962952257
3962957078
3962963365
3962967454
3962972642
3962977769
3962982896
3962988450
3962994920
3962999071
3963005235
3963010057
3963016160
3963021470
3963028428
3963033799
3963038255
3963045091
3963049730
3963056382
3963064134
3963068772
3963074144
3963079881
3963083604
3963091050
3963095933
3963102769
3963106797
3963113877
3963120530
3963126634
3963132310
3963135972
3963142442
3963148118
3963154283
3963157823
3963164842
3963169358
3963176499
3963181016
3963186875
3963191575
3963198411
3963204026
3963209458
3963215989
3963221970
3963228440
3963234788
3963239121
3963246262
3963250413
3963255540
3963260422
3963265183
3963274705
3963280686
3963286484
3963291916
3963297104
3963303025
3963308945
3963314438
3963319870
3963324448
3963330185
3963335862
3963341660
3963345383
3963352036
3963356919
3963362107
3963368149
3963373825
3963380173
3963384995
3963391037
3963395676
3963401169
3963405747
3963413742
3963418625
3963423874
3963428635
3963435044
3963439499
3963447373
3963453781
3963458725
3963463242
3963469101
3963475754
3963479965
3963486862
3963493332
3963497910
3963503647
3963509689
3963514633
3963521469
3963527206
3963533554
3963540085
3963545334
3963551010
3963555710
3963563278
3963569015
3963575058
3963580612
3963584701
3963590683
3963595016
3963601669
3963608261
3963612838
3963618332
3963624801
3963629440
3963634750
3963641281
3963647140
3963652206
3963656845
3963662216
3963666977
3963675949
3963682540
3963686508
3963692245
3963698287
3963702804
3963709701
3963715805
3963721359
3963726669
3963732040
3963737594
3963743759
3963748336
3963755843
3963759689
3963764755
3963771529
3963776290
3963783004
3963790572
3963794845
3963800094
3963805831
3963810409
3963815597
3963821700
3963828536
3963832503
3963838729
3963844039
3963850082
3963855453
3963861678
3963866500
3963872054
3963876754
3963882979
3963888228
3963894698
3963901168
3963907271
3963911971
3963918868
3963923507
3963930526
3963938277
3963942855
3963949202
3963955916
3963960921
3963966353
3963973555
3963979537
3963984786
3963989913
3963995955
3964001509
3964008589
3964013594
3964019881
3964025435
3964030440
3964037032
3964043135
3964048323
3964054366
3964058821
3964064436
3964069991
3964074751
3964080428
3964085432
3964091475
3964096419
3964101668
3964106123
3964114180
3964120406
3964126509
3964131392
3964136946
3964141096
3964147932
3964153609
3964158858
3964164290
3964169600
3964174849
3964181013
3964188154
3964192854
3964198774
3964205244
3964209395
3964214644
3964219648
3964226912
3964231733
3964236494
3964241865
3964248335
3964254805
3964259809
3964265242
3964271223
3964277204
3964283308
3964288008
3964295271
3964300154
3964305952
3964310774
3964317060
3964322614
3964328657
3964335005
3964339765
3964344953
3964350446
3964354658
3964360029
3964369917
3964376753
3964380964
3964387861
3964393476
3964397810
3964404157
3964410383
3964416853
3964422040
3964427412
3964434370
3964439558
3964445783
3964452253
3964458051
3964464033
3964468793
3964473371
3964480085
3964487409
3964493085
3964498334
3964504804
3964510114
3964517072
3964522443
3964527204
3964533918
3964538312
3964543500
3964549482
3964555280
3964561811
3964566022
3964571576
3964577802
3964582135
3964588300
3964595929
3964600812
3964607282
3964612042
3964615582
3964622418
3964628034
3964632916
3964637311
3964644147
3964649091
3964653851
3964661664
3964666425
3964672162
3964677960
3964683942
3964688519
3964694867
3964701886
3964706158
3964712079
3964718060
3964723309
3964728741
3964733380
3964739850
3964745465
3964750592
3964754376
3964761395
3964766827
3964771954
3964775982
3964782757
3964787640
3964793255
3964800335
3964807110
3964813580
3964818341
3964822308
3964828106
3964834637
3964841473
3964849469
3964854962
3964860577
3964868206
3964872784
3964881695
3964888226
3964893109
3964899945
3964906109
3964911236
3964918377
3964924053
3964931256
3964937054
3964942059
3964948406
3964954205
3964958355
3964965191
3964971172
3964977459
3964981731
3964987896
3964993023
3964999432
3965004436
3965010052
3965014996
3965020000
3965026165
3965032146
3965038494
3965042156
3965048138
3965053814
3965058330
3965063946
3965071270
3965076031
3965082805
3965087993
3965092876
3965099895
3965104717
3965110088
3965116069
3965122661
3965127117
3965133342
3965139202
3965143474
3965150249
3965155559
3965161968
3965167583
3965174175
3965179485
3965184368
3965189311
3965196147
3965201946
3965208354
3965214763
3965219707
3965224712
3965230266
3965235271
3965242046
3965246867
3965252178
3965258708
3965264385
3965269389
3965275676
3965282634
3965287273
3965293681
3965299419
3965304240
3965310527
3965315776
3965322185
3965327312
3965334148
3965339641
3965345317
3965351176
3965356730
3965362102
3965367412
3965373942
3965379252
3965385661
3965390056
3965397136
3965401652
3965409343
3965415141
3965421000
3965427897
3965432841
3965438090
3965443217
3965449687
3965457316
3965461833
3965466960
3965474711
3965479960
3965484843
3965490336
3965496440
3965501872
3965506816
3965512614
3965517192
3965522990
3965527690
3965533366
3965539774
3965544718
3965550272
3965556315
3965561625
3965566630
3965571696
3965577860
3965583414
3965587870
3965593363
3965597941
3965604960
3965609965
3965615824
3965620097
3965626200
3965631205
3965636027
3965641947
3965648661
3965652933
3965659647
3965665140
3965669840
3965676371
3965681070
3965686869
3965691691
3965699442
3965704020
3965710550
3965716166
3965721293
3965726908
3965732279
3965738077
3965744364
3965748453
3965754923
3965759439
3965766581
3965771646
3965778177
3965783670
3965790201
3965794718
3965800638
3965805948
3965811441
3965817667
3965824442
3965830362
3965835550
3965841776
3965846292
3965852152
3965860574
3965867349
3965873636
3965878152
3965883951
3965888651
3965894510
3965901773
3965906412
3965913858
3965919473
3965924112
3965930948
3965935586
3965941812
3965947122
3965953287
3965959878
3965965860
3965971475
3965977640
3965982522
3965988809
3965993448
3965999368
3966003946
3966011026
3966016397
3966021280
3966026590
3966032693
3966037149
3966043313
3966047586
3966053689
3966057901
3966064065
3966069741
3966076150
3966080545
3966086587
3966090798
3966097573
3966102517
3966108987
3966113687
3966119607
3966125771
3966130532
3966134805
3966141030
3966147561
3966153664
3966159097
3966164101
3966169900
3966175027
3966180215
3966186440
3966192178
3966197121
3966202248
3966209145
3966215127
3966221596
3966229836
3966238381
3966245156
3966250710
3966255959
3966261819
3966267129
3966272255
3966278969
3966284035
3966289101
3966294289
3966300942
3966306130
3966311013
3966317543
3966325722
3966330971
3966336708
3966343117
3966346962
3966353554
3966358986
3966364296
3966369911
3966376198
3966381996
3966387490
3966393776
3966399697
3966406471
3966411171
3966417580
3966425087
3966429726
3966436867
3966442543
3966447975
3966453652
3966460243
3966467079
3966471596
3966477089
3966482338
3966488197
3966494850
3966500587
3966507301
3966513649
3966517738
3966524086
3966529152
3966535805
3966542091
3966547279
3966552040
3966557594
3966562477
3966567604
3966573646
3966577736
3966583900
3966589760
3966594154
3966600563
3966605629
3966610511
3966616127
3966621071
3966626381
3966632484
3966636757
3966642860
3966648536
3966653053
3966658485
3966665443
3966670021
3966674781
3966681983
3966686622
3966691200
3966698402
3966703651
3966708717
3966714027
3966720008
3966725318
3966732215
3966737464
3966742835
3966748023
3966753150
3966759803
3966764625
3966771400
3966777076
3966783057
3966789832
3966794532
3966801124
3966806251
3966811622
3966817908
3966823096
3966829444
3966835975
3966840247
3966846595
3966855994
3966860938
3966867957
3966872962
3966879432
3966884437
3966891211
3966896766
3966904273
3966911292
3966916724
3966922705
3966928626
3966934424
3966940467
3966948218
3966953101
3966959388
3966965979
3966971228
3966976355
3966981726
3966988257
3966994788
3967000769
3967005591
3967012000
3967016760
3967023902
3967030005
3967035742
3967040564
3967047827
3967055884
3967061743
3967068701
3967075232
3967081335
3967086707
3967091772
3967097205
3967101965
3967108679
3967113196
3967120703
3967126135
3967131079
3967136877
3967141821
3967147314
3967152136
3967157690
3967163855
3967169836
3967174170
3967180517
3967185034
3967191015
3967196936
3967201696
3967207556
3967213903
3967219214
3967223669
3967228857
3967234900
3967240759
3967246069
3967251074
3967256750
3967261633
3967267797
3967272436
3967279699
3967284338
3967290930
3967295690
3967302343
3967306921
3967312109
3967318578
3967325353
3967330053
3967335302
3967340551
3967347265
3967352941
3967360571
3967365942
3967371252
3967378088
3967383398
3967388586
3967394323
3967399145
3967406469
3967411169
3967418615
3967424108
3967429418
3967435888
3967441259
3967448095
3967454381
3967460119
3967464940
3967470495
3967474889
3967483251
3967488378
3967494603
3967500951
3967505895
3967511510
3967517431
3967524083
3967529332
3967534520
3967541478
3967546544
3967552587
3967557347
3967563512
3967568517
3967574987
3967580480
3967585424
3967590917
3967595860
3967602086
3967606908
3967612767
3967617223
3967623265
3967627904
3967633519
3967640050
3967644811
3967652013
3967656957
3967662145
3967668431
3967672765
3967679295
3967684972
3967689427
3967694920
3967699498
3967706273
3967711400
3967716283
3967721837
3967726781
3967732884
3967739476
3967743809
3967750157
3967755650
3967760167
3967766514
3967772679
3967777073
3967784092
3967789036
3967795323
3967800328
3967804844
3967811070
3967816868
3967821202
3967826390
3967832737
3967837193
3967843418
3967850010
3967856175
3967861546
3967866185
3967872837
3967878330
3967883579
3967889561
3967894871
3967901341
3967906223
3967911350
3967917454
3967924107
3967928623
3967935459
3967941258
3967947788
3967953587
3967958775
3967964817
3967970066
3967975620
3967982639
3967989780
3967995762
3968001316
3968006931
3968011997
3968017429
3968024204
3968029880
3968036777
3968042270
3968047581
3968052769
3968058933
3968064487
3968070347
3968076450
3968082248
3968088047
3968092319
3968098362
3968102634
3968109836
3968114841
3968120090
3968126316
3968131198
3968136264
3968141025
3968147495
3968154026
3968158664
3968163181
3968169467
3968177158
3968182163
3968188144
3968192783
3968198215
3968203891
3968208286
3968212802
3968217380
3968223361
3968228793
3968234958
3968239047
3968244785
3968250949
3968256809
3968261935
3968267245
3968273532
3968280307
3968285495
3968291659
3968296481
3968304050
3968308871
3968313876
3968319858
3968325046
3968329928
3968335177
3968341342
3968347201
3968353366
3968357821
3968362521
3968368808
3968374240
3968380771
3968386569
3968393832
3968400546
3968406588
3968411471
3968416232
3968423373
3968429965
3968437106
3968442355
3968447116
3968453280
3968458651
3968463961
3968470492
3968475558
3968483065
3968488314
3968493075
3968499056
3968506808
3968513644
3968518588
3968525485
3968531344
3968536471
3968541598
3968548678
3968554964
3968559664
3968565829
3968572237
3968578036
3968584322
3968589571
3968595736
3968602206
3968608126
3968613497
3968618136
3968625216
3968629793
3968636812
3968642367
3968647188
3968653963
3968660250
3968664950
3968671053
3968675753
3968680819
3968689058
3968693697
3968699251
3968705050
3968710482
3968716768
3968722139
3968728426
3968735079
3968739534
3968746248
3968750460
3968756990
3968761263
3968767977
3968773043
3968779512
3968784456
3968789827
3968796663
3968801790
3968808870
3968814852
3968820101
3968825655
3968831087
3968836763
3968841951
3968847749
3968853059
3968860139
3968865694
3968870882
3968877901
3968882417
3968888948
3968894502
3968899263
3968907136
3968912080
3968916719
3968923128
3968928194
3968934724
3968940156
3968946443
3968953096
3968957490
3968964082
3968968721
3968975679
3968980317
3968987214
3968991914
3968998567
3969003083
3969009675
3969015718
3969020723
3969025544
3969032563
3969037446
3969044404
3969050508
3969055635
3969060762
3969067781
3969073213
3969079804
3969085114
3969090852
3969097993
3969102632
3969108064
3969114045
3969119477
3969126252
3969131379
3969138947
3969144441
3969149690
3969155122
3969160432
3969166474
3969171845
3969177460
3969182709
3969188569
3969195100
3969199982
3969205353
3969213166
3969218049
3969223420
3969230073
3969234162
3969240876
3969246857
3969251679
3969257416
3969262360
3969268342
3969274994
3969280304
3969286347
3969291840
3969297883
3969303864
3969310028
3969315522
3969321137
3969326386
3969332611
3969337799
3969343476
3969348725
3969354706
3969359955
3969365448
3969370697
3969377350
3969382050
3969388214
3969392975
3969398773
3969404816
3969411713
3969416779
3969421417
3969428314
3969433624
3969439789
3969445160
3969450287
3969456940
3969462616
3969467743
3969474091
3969479584
3969486359
3969491363
3969496796
3969504059
3969509003
3969517181
3969523712
3969529083
3969534515
3969541046
3969546295
3969552643
3969558441
3969564850
3969569610
3969576080
3969581024
3969587372
3969592498
3969597992
3969605072
3969611724
3969618682
3969624359
3969629425
3969636993
3969641510
3969648468
3969653106
3969660430
3969665313
3969672210
3969678436
3969684844
3969690338
3969696624
3969701873
3969708099
3969713409
3969719207
3969724395
3969730315
3969735748
3969741546
3969748199
3969753692
3969758147
3969763641
3969770171
3969774566
3969780852
3969787566
3969792754
3969798186
3969804168
3969809539
3969815642
3969821013
3969827361
3969832549
3969838042
3969843413
3969849151
3969855864
3969860137
3969866729
3969871856
3969876555
3969882232
3969888762
3969893401
3969900298
3969905120
3969912444
3969917815
3969923003
3969929595
3969934111
3969940703
3969946135
3969951262
3969956633
3969962859
3969967681
3969974394
3969978972
3969983611
3969990935
3969997588
3970003081
3970008513
3970015166
3970020354
3970025237
3970031340
3970036040
3970042754
3970047636
3970055266
3970059721
3970064360
3970071623
3970076811
3970082732
3970087981
3970094145
3970099760
3970105009
3970111662
3970117399
3970123869
3970129606
3970136748
3970142485
3970149199
3970154997
3970160551
3970166533
3970172087
3970178801
3970185820
3970190702
3970196501
3970201323
3970206633
3970213652
3970219938
3970226835
3970232267
3970237272
3970243986
3970249723
3970254972
3970260771
3970266081
3970272489
3970277860
3970282682
3970289274
3970293852
3970300504
3970306608
3970312772
3970317594
3970324003
3970328642
3970333341
3970341093
3970345731
3970352567
3970357206
3970362577
3970368803
3970374052
3970380216
3970385526
3970391935
3970397001
3970402555
3970407865
3970414274
3970419156
3970425626
3970430570
3970437345
3970441984
3970447111
3970452054
3970459012
3970463773
3970470792
3970475431
3970482206
3970487394
3970492826
3970499112
3970504361
3970510587
3970515836
3970521573
3970526883
3970532437
3970537870
3970543912
3970549283
3970553861
3970560330
3970567411
3970572171
3970577542
3970582425
3970589200
3970594266
3970601468
3970607694
3970615018
3970620633
3970625882
3970631253
3970637845
3970642789
3970648343
3970654141
3970660489
3970666592
3970671597
3970677151
3970681973
3970689358
3970696438
3970703091
3970707425
3970714322
3970719876
3970726590
3970731412
3970738736
3970744107
3970749783
3970755398
3970761868
3970767605
3970773282
3970778592
3970785855
3970791043
3970796902
3970802029
3970807583
3970812893
3970819119
3970824063
3970831265
3970836087
3970841152
3970847927
3970852566
3970859036
3970863858
3970872402
3970879482
3970888577
3970893704
3970899380
3970904751
3970911160
3970916470
3970921475
3970928188
3970934292
3970939114
3970945339
3970952724
3970958157
3970964870
3970970180
3970975857
3970982510
3970987759
3970993069
3970998012
3971004604
3971010158
3971014858
3971020107
3971026699
3971032802
3971037746
3971043484
3971050014
3971055629
3971061306
3971067836
3971072109
3971078518
3971083828
3971090053
3971096645
3971102504
3971107998
3971113491
3971118496
3971122890
3971129299
3971136135
3971142604
3971147853
3971153652
3971159084
3971164394
3971170986
3971177272
3971183803
3971189540
3971195888
3971201198
3971207118
3971212001
3971219081
3971224513
3971229518
3971236964
3971241908
3971249171
3971254482
3971260585
3971267177
3971274074
3971279140
3971286586
3971291896
3971297328
3971304469
3971309230
3971315700
3971322352
3971327235
3971332423
3971338283
3971343471
3971350367
3971356959
3971361537
3971368434
3971374965
3971379481
3971386500
3971391993
3971398463
3971403956
3971408778
3971414210
3971419154
3971425746
3971431666
3971436915
3971442713
3971449305
3971454249
3971460902
3971464991
3971471583
3971477259
3971483790
3971488612
3971494898
3971499598
3971505824
3971512415
3971518153
3971523402
3971528895
3971534388
3971539881
3971545191
3971552027
3971557398
3971563258
3971570704
3971577051
3971581812
3971587549
3971593836
3971598597
3971603480
3971611231
3971616236
3971622950
3971628443
3971633448
3971638941
3971643763
3971650965
3971657129
3971661768
3971668360
3971672937
3971679346
3971684412
3971690516
3971698267
3971704004
3971708826
3971715906
3971720240
3971725183
3971732263
3971740503
3971747095
3971757044
3971762964
3971772547
3971780237
3971788721
3971796167
3971802637
3971810449
3971817407
3971825037
3971832971
3971839868
3971847131
3971853540
3971859827
3971864893
3971871118
3971877100
3971882654
3971888879
3971894311
3971899255
3971904504
3971920679
3971926843
3971932031
3971937646
3971943323
3971948327
3971954126
3971959802
3971967004
3971972802
3971977746
3971983667
3971988916
3971994226
3971999292
3972005639
3972012353
3972016687
3972023523
3972028588
3972033837
3972040185
3972045129
3972050317
3972056359
3972062646
3972067712
3972073754
3972078759
3972084252
3972091149
3972096703
3972101403
3972106957
3972113122
3972118188
3972123864
3972130395
3972134484
3972140832
3972146996
3972153771
3972158044
3972165002
3972171715
3972175805
3972182152
3972187401
3972192101
3972197472
3972204552
3972211693
3972217126
3972223351
3972228905
3972234276
3972240929
3972245690
3972251610
3972258202
3972262902
3972269738
3972275048
3972280846
3972286095
3972291344
3972298668
3972304406
3972309716
3972316796
3972322960
3972327477
3972334008
3972340111
3972346215
3972350792
3972357506
3972364952
3972369469
3972376793
3972382591
3972389244
3972394493
3972401268
3972405846
3972412499
3972416771
3972423668
3972429527
3972434166
3972439781
3972446617
3972451317
3972458153
3972463463
3972469566
3972474632
3972480308
3972485680
3972491112
3972497764
3972503380
3972509117
3972515220
3972521873
3972526695
3972531944
3972537437
3972544029
3972549461
3972554283
3972561119
3972565880
3972571495
3972577720
3972582481
3972588951
3972593711
3972600853
3972607383
3972612022
3972618492
3972623008
3972629600
3972635337
3972640281
3972646324
3972653160
3972658653
3972664207
3972669456
3972675010
3972680625
3972687461
3972693015
3972699119
3972705283
3972709861
3972716331
3972720908
3972727317
3972735069
3972740684
3972745994
3972751731
3972757102
3972762778
3972768088
3972774558
3972781089
3972785483
3972792380
3972797324
3972802878
3972809958
3972816916
3972822410
3972827903
3972833213
3972838889
3972845969
3972850608
3972857139
3972863608
3972869407
3972875998
3972882773
3972887290
3972892051
3972899314
3972904502
3972910239
3972918601
3972925193
3972929831
3972936606
3972941550
3972948325
3972953025
3972959555
3972964133
3972970297
3972974997
3972981162
3972987753
3972993552
3972998801
3973004477
3973009909
3973015707
3973020956
3973027060
3973032309
3973038657
3973043906
3973050070
3973056296
3973060934
3973065695
3973073019
3973077780
3973082602
3973089194
3973094321
3973100973
3973106833
3973113302
3973118612
3973123678
3973130270
3973134787
3973141562
3973147116
3973152304
3973157370
3973164023
3973169760
3973174582
3973181356
3973186422
3973192587
3973198751
3973203329
3973209555
3973214926
3973220602
3973227194
3973231771
3973238424
3973243124
3973249777
3973255880
3973260580
3973266928
3973271749
3973279012
3973284628
3973289510
3973296163
3973301351
3973306905
3973311971
3973318441
3973323141
3973328024
3973335409
3973342123
3973349386
3973354635
3973360738
3973366109
3973370382
3973377035
3973384847
3973389059
3973395956
3973401937
3973407552
3973413228
3973418599
3973424825
3973429952
3973435506
3973442220
3973447713
3973453878
3973459066
3973466634
3973473226
3973478109
3973484151
3973490804
3973495443
3973501668
3973506307
3973513143
3973518941
3973524495
3973531209
3973536153
3973541341
3973546895
3973552205
3973558309
3973564900
3973569600
3973574727
3973580892
3973586263
3973592732
3973597676
3973604878
3973609761
3973617024
3973622151
3973626912
3973631795
3973637654
3973645345
3973650532
3973656392
3973661824
3973668355
3973673787
3973679158
3973684590
3973689900
3973696431
3973701558
3973709309
3973713887
3973721455
3973726826
3973732564
3973737629
3973743733
3973749043
3973755757
3973760457
3973766682
3973771504
3973777668
3973782429
3973787861
3973794697
3973799336
3973804097
3973812275
3973817707
3973823201
3973829731
3973835224
3973840962
3973845783
3973852009
3973856648
3973862812
3973869709
3973875324
3973880512
3973886494
3973892048
3973898396
3973905171
3973910175
3973917255
3973921955
3973927631
3973934162
3973939533
3973946308
3973953876
3973960285
3973965351
3973971210
3973978107
3973983356
3973989399
3973995807
3974004719
3974010273
3974015217
3974021930
3974026569
3974031391
3974039570
3974044330
3974051105
3974056354
3974061725
3974067768
3974073017
3974079181
3974084430
3974089374
3974096027
3974100727
3974107441
3974112018
3974118549
3974125141
3974131244
3974136005
3974142353
3974147113
3974153400
3974158832
3974165607
3974171039
3974176593
3974181964
3974187640
3974192951
3974199542
3974204913
3974210162
3974216632
3974220966
3974227618
3974232745
3974237750
3974244464
3974249408
3974256793
3974261310
3974267902
3974273089
3974279437
3974284137
3974290973
3974295306
3974301776
3974307391
3974313861
3974318561
3974323260
3974330951
3974336261
3974342791
3974348040
3974352496
3974358600
3974365069
3974370196
3974376544
3974381915
3974388018
3974393267
3974398211
3974404986
3974409686
3974416461
3974424700
3974430987
3974436236
3974441790
3974447161
3974452960
3974458209
3974464434
3974468585
3974474017
3974477679
3974483355
3974487017
3974490801
3974495562
3974502581
3974505877
3974510699
3974514239
3974519000
3974523821
3974528216
3974532122
3974537310
3974541094
3974546160
3974549883
3974554949
3974558672
3974564654
3974568011
3974572222
3974577471
3974581438
3974585589
3974590288
3974593401
3974598467
3974603350
3974606768
3974610430
3974615130
3974620379
3974622637
3974630327
3974634722
3974638689
3974642717
3974647173
3974651323
3974656572
3974661455
3974666948
3974670916
3974675066
3974679277
3974683550
3974688738
3974693071
3974697832
3974703386
3974707109
3974711321
3974716570
3974720598
3974724504
3974729814
3974734514
3974738726
3974742754
3974748552
3974752580
3974756914
3974761003
3974765398
3974769670
3974774858
3974779192
3974783708
3974787981
3974792131
3974797563
3974801897
3974807146
3974812639
3974816484
3974820879
3974825517
3974829546
3974834673
3974838640
3974844499
3974848344
3974853105
3974857317
3974862627
3974866411
3974873918
3974879533
3974883745
3974887956
3974892717
3974898210
3974902543
3974907304
3974912248
3974918962
3974923417
3974928056
3974932390
3974938432
3974943986
3974949907
3974955766
3974961808
3974965410
3974971574
3974976884
3974981279
3974986100
3974991960
3974995683
3974999528
3975003495
3975008927
3975012590
3975016496
3975021501
3975026628
3975030290
3975034135
3975038896
3975042680
3975047624
3975053666
3975058610
3975063432
3975067582
3975071427
3975075578
3975079972
3975084184
3975089066
3975095475
3975099625
3975104325
3975110246
3975115372
3975118851
3975123368
3975129899
3975134782
3975140580
3975145341
3975149613
3975154435
3975159135
3975163834
3975169450
3975174210
3975178666
3975183304
3975188614
3975195817
3975200089
3975207413
3975212052
3975217484
3975223954
3975230179
3975236710
3975242142
3975247025
3975253067
3975258988
3975266251
3975271378
3975276871
3975281693
3975287125
3975292374
3975297806
3975303116
3975309708
3975314530
3975319290
3975325699
3975331253
3975336319
3975341812
3975346817
3975354202
3975359146
3975363907
3975368912
3975375504
3975380631
3975385758
3975391190
3975397476
3975403153
3975411026
3975416153
3975419693
3975427689
3975432632
3975438370
3975445084
3975452286
3975457535
3975463211
3975467422
3975473648
3975479263
3975484878
3975487686
3975496963
3975503921
3975510757
3975517166
3975523208
3975528152
3975532730
3975537857
3975542679
3975547622
3975552383
3975558181
3975563003
3975567764
3975572464
3975577407
3975582473
3975587295
3975591873
3975597305
3975602188
3975607559
3975613174
3975618484
3975625015
3975629287
3975634536
3975639907
3975645523
3975651138
3975656570
3975662124
3975667434
3975673171
3975678359
3975682998
3975687942
3975692336
3975696731
3975701492
3975709975
3975715102
3975718398
3975725173
3975730239
3975735000
3975739333
3975745681
3975751723
3975757644
3975762771
3975767287
3975772475
3975778823
3975782241
3975789504
3975795241
3975799819
3975804152
3975810134
3975814589
3975819533
3975825942
3975830886
3975836440
3975841750
3975847609
3975852675
3975858962
3975864943
3975870192
3975875563
3975880751
3975887831
3975891982
3975898574
3975903884
3975909865
3975916091
3975921462
3975928115
3975934950
3975941359
3975946913
3975951796
3975957228
3975960463
3975966689
3975971816
3975978529
3975988600
3975993422
3975998305
3976003859
3976008742
3976013686
3976020094
3976025526
3976031874
3976039381
3976044264
3976049086
3976054152
3976059950
3976066969
3976076308
3976084669
3976087965
3976094374
3976099013
3976106276
3976109144
3976118910
3976122267
3976127699
3976132094
3976137709
3976142225
3976146986
3976152296
3976157484
3976164381
3976169691
3976175001
3976179090
3976184523
3976189955
3976192762
3976202711
3976207350
3976212538
3976217176
3976222120
3976226942
3976232618
3976237440
3976244276
3976251661
3976256361
3976261427
3976266187
3976271681
3976277479
3976281690
3976287183
3976292860
3976298353
3976303724
3976308607
3976313306
3976318372
3976323682
3976328687
3976335035
3976340284
3976347303
3976352369
3976361158
3976366468
3976371839
3976376966
3976383680
3976388807
3976393751
3976398939
3976405347
3976410535
3976416272
3976421155
3976427137
3976432081
3976437513
3976444959
3976448987
3976456739
3976461621
3976467237
3976472181
3976477735
3976484998
3976490430
3976495435
3976502027
3976506482
3976512036
3976517163
3976523999
3976530286
3976536756
3976539563
3976546338
3976552136
3976558667
3976564527
3976573193
3976578504
3976583875
3976590588
3976595532
3976601514
3976605969
3976612866
3976617932
3976625562
3976629834
3976635144
3976640698
3976646619
3976651929
3976657971
3976663525
3976668347
3976673291
3976678296
3976684094
3976689160
3976693493
3976698804
3976704663
3976710156
3976714245
3976719189
3976724682
3976729687
3976734143
3976739087
3976743420
3976752636
3976756054
3976762280
3976768322
3976772534
3976777600
3976783703
3976788342
3976793896
3976798901
3976805004
3976808361
3976814221
3976818676
3976824291
3976830761
3976837048
3976841992
3976847241
3976852123
3976859387
3976863964
3976868664
3976874096
3976880077
3976885815
3976890087
3976895702
3976900829
3976906445
3976912426
3976916027
3976920910
3976929638
3976935192
3976938671
3976945202
3976950756
3976955334
3976960338
3976965221
3976973827
3976979137
3976983837
3976988720
3976996410
3977000316
3977008007
3977013683
3977021496
3977028026
3977034557
3977041027
3977046764
3977052684
3977058544
3977065990
3977072887
3977078868
3977084850
3977089977
3977096080
3977099193
3977106456
3977112255
3977118602
3977125926
3977132945
3977138378
3977144237
3977149608
3977154857
3977161754
3977166332
3977173473
3977179759
3977186595
3977192210
3977197154
3977202037
3977207652
3977212535
3977219554
3977226756
3977231639
3977238048
3977243175
3977249522
3977255260
3977261546
3977268687
3977274669
3977277965
3977284862
3977290294
3977297435
3977302684
3977310313
3977315562
3977320994
3977326121
3977330150
3977337169
3977341502
3977347117
3977352977
3977359385
3977365733
3977369944
3977375376
3977380809
3977386607
3977390086
3977396983
3977403697
3977408946
3977414317
3977419261
3977425852
3977430857
3977435740
3977441172
3977446848
3977452525
3977457408
3977462840
3977469187
3977475474
3977479380
3977484385
3977491221
3977496836
3977502512
3977507212
3977512339
3977518381
3977523447
3977529185
3977534129
3977541453
3977546580
3977550425
3977555979
3977561594
3977566904
3977572581
3977576792
3977583567
3977589609
3977594614
3977600229
3977605356
3977608652
3977614329
3977620127
3977625681
3977632883
3977640207
3977644602
3977651377
3977654795
3977660471
3977666452
3977671518
3977679209
3977686960
3977693979
3977699106
3977704904
3977712595
3977718027
3977723276
3977730966
3977736460
3977742380
3977747202
3977753122
3977758737
3977764963
3977771066
3977776071
3977783518
3977788950
3977794565
3977800302
3977806528
3977812631
3977821237
3977827829
3977832529
3977839975
3977845590
3977851144
3977857431
3977864816
3977870431
3977875802
3977881418
3977886545
3977889596
3977895456
3977900400
3977906625
3977911691
3977919687
3977925180
3977930795
3977935678
3977939645
3977946481
3977950631
3977956002
3977962838
3977968698
3977974374
3977979928
3977985604
3977988900
3977995736
3977999154
3978004098
3978011117
3978016488
3978022225
3978027658
3978032052
3978037545
3978043099
3978048531
3978054879
3978064950
3978069161
3978075082
3978081185
3978086923
3978092172
3978097848
3978100777
3978110238
3978116463
3978119820
3978124703
3978130563
3978135506
3978142281
3978147347
3978154244
3978159676
3978165536
3978170968
3978177743
3978184212
3978189522
3978195565
3978202340
3978206429
3978213509
3978219002
3978225228
3978230843
3978235726
3978241524
3978249154
3978254891
3978261055
3978266426
3978271004
3978276863
3978282235
3978287850
3978294014
3978299752
3978303536
3978311043
3978318184
3978323799
3978329048
3978333809
3978338448
3978346077
3978353829
3978359200
3978364327
3978370186
3978376534
3978381722
3978387093
3978392952
3978398933
3978404549
3978409431
3978414864
3978420357
3978425362
3978430977
3978436287
3978442085
3978447029
3978452095
3978457344
3978461677
3978466865
3978473518
3978479133
3978483589
3978489204
3978494880
3978500618
3978506538
3978510994
3978516853
3978523384
3978526924
3978533149
3978539558
3978545295
3978548408
3978554451
3978559394
3978568916
3978575019
3978578804
3978583686
3978589729
3978595100
3978601936
3978607490
3978613166
3978620796
3978625923
3978632697
3978637458
3978642219
3978647041
3978651740
3978657600
3978662849
3978668830
3978674751
3978679694
3978684516
3978689887
3978694953
3978700507
3978705939
3978711066
3978716010
3978721259
3978727851
3978730964
3978737739
3978743476
3978749763
3978755927
3978759589
3978766974
3978771308
3978776069
3978784186
3978790839
3978796210
3978801459
3978807929
3978812690
3978817084
3978824347
3978832099
3978837165
3978842902
3978848639
3978856208
3978860907
3978866950
3978875556
3978880439
3978885871
3978890998
3978897101
3978905341
3978911383
3978918707
3978923041
3978928412
3978933661
3978940619
3978944892
3978950507
3978956000
3978962409
3978968695
3978974127
3978979681
3978984015
3978988959
3978995734
3979000616
3979005438
3979012152
3979017401
3979021735
3979027350
3979032049
3979040106
3979044989
3979050543
3979057318
3979062689
3979067084
3979072088
3979077521
3979082892
3979088141
3979093573
3979098517
3979104559
3979111578
3979114996
3979122137
3979127142
3979132147
3979137640
3979142462
3979149054
3979154669
3979160406
3979165960
3979172125
3979178167
3979183599
3979186956
3979191961
3979198126
3979203497
3979209112
3979216070
3979221502
3979227361
3979231695
3979237493
3979243109
3979248846
3979254461
3979260137
3979265386
3979271368
3979276251
3979281622
3979287176
3979293035
3979300420
3979304144
3979309087
3979315008
3979320196
3979325323
3979330633
3979337530
3979343328
3979348455
3979354070
3979360906
3979366765
3979374822
3979381109
3979387212
3979393377
3979399846
3979406316
3979411870
3979418584
3979426152
3979431585
3979438787
3979445256
3979452581
3979459722
3979463933
3979469426
3979474431
3979479863
3979485417
3979491399
3979497991
3979503911
3979510015
3979515325
3979520329
3979524968
3979530034
3979536687
3979542851
3979547673
3979553227
3979558659
3979565129
3979569951
3979575139
3979582768
3979587895
3979594731
3979599797
3979604008
3979609319
3979614445
3979620061
3979625676
3979631718
3979638188
3979642338
3979648015
3979653569
3979657902
3979662602
3979667790
3979675969
3979681584
3979687443
3979692326
3979697087
3979702519
3979708317
3979713871
3979720341
3979726017
3979730961
3979736393
3979741276
3979746830
3979752324
3979757511
3979763066
3979769963
3979775944
3979782048
3979787663
3979794316
3979799870
3979803898
3979810185
3979816166
3979822758
3979831120
3979837223
3979843632
3979848942
3979855290
3979858891
3979864445
3979871342
3979878849
3979884708
3979887516
3979894169
3979899784
3979905338
3979911320
3979918339
3979924259
3979929203
3979934879
3979940372
3979946171
3979952030
3979956058
3979962833
3979969547
3979974735
3979981022
3979985904
3979991092
3979998050
3980003849
3980009830
3980013736
3980021427
3980027836
3980032413
3980038089
3980043644
3980049686
3980056034
3980061649
3980067630
3980073856
3980077945
3980084049
3980089664
3980094974
3980101749
3980106998
3980113346
3980118778
3980123966
3980129886
3980133243
3980138309
3980144107
3980151553
3980157413
3980163089
3980167911
3980172794
3980177982
3980182986
3980189517
3980194644
3980199405
3980204837
3980209903
3980216922
3980222049
3980227847
3980235049
3980240542
3980246097
3980252139
3980258487
3980264651
3980269473
3980275271
3980280887
3980286807
3980293277
3980299075
3980304385
3980309939
3980315616
3980319156
3980326114
3980330996
3980336062
3980341861
3980346988
3980351809
3980358950
3980363650
3980371218
3980375430
3980381411
3980387698
3980393984
3980399722
3980405947
3980411074
3980417483
3980421755
3980427188
3980432681
3980439639
3980444949
3980450564
3980455935
3980461184
3980467349
3980473208
3980478945
3980484805
3980490725
3980496767
3980500857
3980506899
3980512942
3980515688
3980522158
3980529238
3980536074
3980541811
3980547304
3980552309
3980557924
3980563418
3980568606
3980574587
3980580507
3980588320
3980593996
3980599489
3980605349
3980609438
3980614931
3980620668
3980626650
3980632570
3980641054
3980646608
3980652590
3980657961
3980664675
3980669741
3980674257
3980680117
3980688417
3980694033
3980700624
3980706484
3980712770
3980717714
3980722719
3980727358
3980734010
3980740541
3980745912
3980751405
3980756044
3980760927
3980767275
3980773805
3980777406
3980782289
3980789125
3980794252
3980799684
3980804567
3980809816
3980816835
3980821474
3980827089
3980831789
3980837221
3980842409
3980847963
3980853334
3980859743
3980864931
3980870485
3980875429
3980880372
3980885194
3980890687
3980895631
3980901124
3980908510
3980912904
3980920045
3980925355
3980931337
3980937928
3980943361
3980950013
3980955445
3980960878
3980966493
3980971864
3980977967
3980984437
3980990846
3980997438
3981003968
3981009767
3981014588
3981021790
3981025819
3981031434
3981038270
3981043580
3981048768
3981056458
3981060731
3981066773
3981073487
3981078065
3981084412
3981090394
3981093568
3981103822
3981108521
3981114075
3981120423
3981130616
3981135682
3981143860
3981152283
3981157837
3981163270
3981168946
3981174866
3981180237
3981185853
3981189759
3981195862
3981202088
3981208069
3981213990
3981219483
3981224793
3981230347
3981238099
3981243103
3981248902
3981254883
3981259461
3981263977
3981268677
3981275147
3981280396
3981287171
3981292908
3981297791
3981302429
3981307312
3981311646
3981316406
3981323364
3981328613
3981332886
3981338501
3981342896
3981347778
3981351929
3981358643
3981363525
3981368408
3981373535
3981379578
3981384705
3981390564
3981396484
3981402649
3981408569
3981413940
3981418518
3981424377
3981429993
3981436218
3981439697
3981448059
3981454223
3981458618
3981464966
3981469604
3981475403
3981481384
3981486694
3981492004
3981499450
3981504089
3981508789
3981514465
3981520385
3981525268
3981531494
3981536804
3981543029
3981547546
3981552673
3981558410
3981563659
3981569091
3981574401
3981579040
3981583984
3981589233
3981594177
3981599121
3981604064
3981608032
3981613159
3981616943
3981622436
3981626159
3981632751
3981637328
3981641113
3981646179
3981650451
3981656738
3981659545
3981667602
3981672302
3981678588
3981683410
3981687133
3981691894
3981695800
3981700622
3981704711
3981712646
3981723937
3981729003
3981734740
3981739501
3981745788
3981750487
3981757873
3981763854
3981769286
3981773620
3981779601
3981782958
3981788573
3981795287
3981801391
3981806029
3981813170
3981820189
3981825805
3981830504
3981835387
3981840270
3981844786
3981849486
3981855834
3981861083
3981865599
3981871154
3981877562
3981881835
3981887694
3981891905
3981897765
3981904540
3981910887
3981915465
3981920226
3981925597
3981930968
3981936949
3981942931
3981947936
3981953185
3981958922
3981964232
3981970519
3981975645
3981981871
3981988341
3981994017
3981998717
3982005186
3982008665
3982013060
3982020933
3982026549
3982031554
3982037474
3982042113
3982047606
3982053343
3982058897
3982065489
3982069884
3982075316
3982080320
3982085142
3982089476
3982097532
3982103209
3982108152
3982113585
3982118406
3982123106
3982127440
3982134825
3982139708
3982145323
3982151487
3982157408
3982163206
3982168821
3982173094
3982179930
3982185301
3982191526
3982197447
3982203794
3982210020
3982214048
3982221189
3982227049
3982231138
3982236997
3982242429
3982247495
3982251646
3982257566
3982264585
3982272337
3982275694
3982282224
3982286985
3982291990
3982298032
3982303098
3982309995
3982315488
3982320188
3982327207
3982332334
3982338132
3982345212
3982350767
3982357297
3982362485
3982367856
3982372800
3982378965
3982384031
3982388791
3982394285
3982400937
3982406858
3982413266
3982418882
3982423581
3982429013
3982434629
3982438840
3982445493
3982452512
3982458005
3982462766
3982469174
3982474668
3982480100
3982485349
3982491452
3982496640
3982502683
3982509885
3982514585
3982519834
3982526975
3982532285
3982537473
3982542844
3982548215
3982554379
3982559872
3982565732
3982571042
3982576962
3982582150
3982588315
3982594540
3982601132
3982606625
3982611996
3982617428
3982623715
3982630185
3982635861
3982641842
3982647641
3982653988
3982658383
3982664242
3982669674
3982674923
3982681759
3982687314
3982692746
3982699276
3982704831
3982710202
3982718319
3982723996
3982730526
3982735775
3982744870
3982751095
3982757931
3982764279
3982771542
3982778012
3982782955
3982789608
3982796383
3982800717
3982808956
3982815121
3982821163
3982827084
3982833737
3982838986
3982844357
3982850155
3982856991
3982863766
3982868893
3982876278
3982881771
3982888058
3982892513
3982898251
3982903744
3982909481
3982913875
3982918453
3982923702
3982930111
3982934872
3982939205
3982943966
3982951107
3982957821
3982963253
3982968929
3982974666
3982979671
3982984615
3982989620
3982996761
3983002132
3983007442
3983012386
3983017879
3983022640
3983027767
3983035030
3983039547
3983045345
3983050960
3983057796
3983062374
3983067501
3983071712
3983077205
3983083431
3983091915
3983096492
3983102168
3983108211
3983113826
3983119380
3983123409
3983129634
3983135249
3983140376
3983145320
3983151912
3983155208
3983160457
3983166438
3983173640
3983177852
3983184871
3983190669
3983195918
3983203059
3983209712
3983217403
3983223384
3983230037
3983238338
3983244624
3983251216
3983256343
3983262813
3983268977
3983273005
3983279292
3983287410
3983294429
3983299312
3983304194
3983309626
3983314753
3983319880
3983325312
3983331355
3983337825
3983343318
3983349421
3983355708
3983359370
3983364863
3983370783
3983377925
3983383845
3983389826
3983396479
3983402217
3983407160
3983413081
3983418940
3983425044
3983429804
3983435359
3983441340
3983446284
3983451899
3983457575
3983462214
3983468562
3983474482
3983481135
3983487543
3983492365
3983496699
3983502314
3983508295
3983511713
3983518061
3983524103
3983531122
3983534479
3983539728
3983546747
3983551630
3983555536
3983561152
3983566401
3983572260
3983577997
3983583613
3983589472
3983593500
3983598749
3983603693
3983611322
3983618708
3983624506
3983629999
3983632563
3983638056
3983643122
3983650141
3983655207
3983661066
3983666376
3983671076
3983678034
3983684381
3983689936
3983697626
3983703607
3983711054
3983717401
3983725458
3983731073
3983736383
3983742914
3983749567
3983754999
3983760858
3983768121
3983772638
3983778131
3983783990
3983789850
3983794916
3983800653
3983807672
3983813776
3983818780
3983824640
3983830804
3983836847
3983842218
3983846002
3983851495
3983860040
3983865411
3983870599
3983876214
3983880853
3983888177
3983892328
3983900506
3983907220
3983914544
3983920098
3983927484
3983932244
3983938348
3983942132
3983950494
3983954705
3983963861
3983969415
3983976556
3983980035
3983987176
3983992852
3983998712
3984004937
3984010613
3984017022
3984022942
3984029839
3984036492
3984041680
3984047967
3984052972
3984059747
3984065362
3984070855
3984079034
3984085198
3984090813
3984099541
3984104363
3984109917
3984114312
3984120232
3984123284
3984132378
3984137749
3984142815
3984148919
3984156731
3984161309
3984168328
3984173394
3984178032
3984182244
3984187615
3984192498
3984199028
3984204033
3984209832
3984214959
3984219902
3984224419
3984229363
3984231865
3984240166
3984246270
3984249993
3984255730
3984258843
3984266472
3984271416
3984276116
3984283257
3984288933
3984294060
3984299431
3984304192
3984306694
3984313347
3984317253
3984324028
3984330498
3984334099
3984340508
3984343437
3984349785
3984354240
3984358818
3984363457
3984370171
3984375786
3984381157
3984388603
3984395012
3984400444
3984407402
3984414238
3984421989
3984428642
3984436699
3984444450
3984450004
3984457634
3984463859
3984472648
3984479423
3984492180
3984496940
3984505973
3984512931
3984519523
3984525077
3984529228
3984538017
3984545707
3984552787
3984562553
3984568717
3984575004
3984580375
3984591239
3984599052
3984606254
3984611625
3984621452
3984627982
3984635368
3984643485
3984651115
3984656913
3984664970
3984672782
3984681754
3984689445
3984697623
3984704764
3984711722
3984718741
3984726981
3984732291
3984738944
3984744620
3984753348
3984761344
3984768180
3984775748
3984782950
3984789420
3984797171
3984802481
3984807059
3984817862
3984823478
3984831229
3984838004
3984844596
3984850760
3984856864
3984861808
3984868338
3984875174
3984880301
3984886649
3984892508
3984898245
3984903678
3984910208
3984916922
