3590734093
3590738915
3590744042
3590749535
3590755211
3590759850
3590765587
3590770287
3590776085
3590781579
3590787011
3590792931
3590798302
3590803795
3590808922
3590814537
3590819786
3590825768
3590831932
3590838402
3590844323
3590850426
3590855797
3590862633
3590869042
3590875023
3590881432
3590888878
3590894921
3590903771
3590911278
3590919823
3590926842
3590932213
3590938072
3590946739
3590954002
3590960045
3590967674
3590973289
3590980309
3590987633
3590995201
3591002586
3591009117
3591015831
3591023521
3591028526
3591038475
3591043602
3591051781
3591059532
3591068565
3591079612
3591087913
3591095848
3591103599
3591111290
3591118736
3591126609
3591132042
3591142234
3591150596
3591156333
3591163841
3591170310
3591177513
3591185935
3591190940
3591200706
3591206748
3591214378
3591222129
3591229759
3591236961
3591245689
3591252952
3591258506
3591265708
3591274131
3591279746
3591288047
3591295554
3591301475
3591310081
3591317344
3591323569
3591328513
3591338157
3591346213
3591353782
3591360068
3591366904
3591372275
3591381308
3591388022
3591396933
3591403098
3591409568
3591416770
3591422812
3591429892
3591437522
3591446677
3591453757
3591461753
3591469138
3591477072
3591482199
3591496970
3591505026
3591511557
3591519003
3591527976
3591537131
3591546713
3591555624
3591562033
3591569968
3591576559
3591583701
3591592184
3591600302
3591608603
3591615256
3591622092
3591630026
3591635153
3591643515
3591650168
3591657919
3591667074
3591672812
3591680929
3591684713
3591696737
3591703329
3591712179
3591720968
3591731527
3591739279
3591747824
3591754782
3591764303
3591778219
3591784994
3591794210
3591803304
3591813070
3591820760
3591827291
3591833944
3591843099
3591849020
3591858663
3591867147
3591873617
3591881368
3591886983
3591895223
3591904195
3591910543
3591918783
3591925741
3591933126
3591941183
3591946309
3591955465
3591961812
3591970296
3591976217
3591983419
3591989827
3591996846
3592005758
3592012471
3592020711
3592027059
3592034932
3592041829
3592049642
3592058492
3592064534
3592074178
3592081380
3592089925
3592097798
3592105306
3592114644
3592121358
3592130452
3592137837
3592144490
3592151814
3592163350
3592172932
3592182210
3592191243
3592199483
3592206746
3592215962
3592222188
3592229329
3592238667
3592245564
3592253743
3592262593
3592270527
3592277668
3592286702
3592294758
3592301899
3592309468
3592317402
3592325459
3592333699
3592341511
3592352619
3592361470
3592374714
3592381672
3592391438
3592397968
3592405476
3592415180
3592422260
3592430927
3592440022
3592447041
3592455769
3592461323
3592470051
3592476765
3592483540
3592492512
3592498859
3592506916
3592512958
3592519977
3592527607
3592532551
3592540851
3592548542
3592555500
3592561664
3592570209
3592578205
3592585041
3592592975
3592599994
3592607563
3592615009
3592622272
3592628192
3592635578
3592643268
3592650836
3592657611
3592664813
3592672748
3592680194
3592687763
3592695148
3592701984
3592710285
3592719440
3592729450
3592738910
3592748431
3592757587
3592767230
3592778400
3592789203
3592798480
3592809161
3592819659
3592829669
3592839740
3592849322
3592856585
3592864459
3592872149
3592880694
3592888995
3592898333
3592906207
3592914019
3592921160
3592929217
3592937823
3592946246
3592952227
3592960406
3592967669
3592973162
3592982012
3592991229
3592998126
3593003680
3593009600
3593013995
3593021929
3593027544
3593036639
3593041949
3593052264
3593058306
3593064837
3593070818
3593076434
3593083147
3593089617
3593095843
3593102129
3593109331
3593114947
3593121416
3593125872
3593132342
3593138872
3593143145
3593148516
3593153704
3593159197
3593165178
3593171160
3593176653
3593182085
3593186419
3593193132
3593198320
3593204363
3593209917
3593217363
3593222918
3593228167
3593234087
3593239763
3593244768
3593248247
3593254900
3593260759
3593267412
3593273271
3593278704
3593283586
3593288652
3593294023
3593299761
3593304338
3593311052
3593315447
3593320574
3593327532
3593330827
3593338762
3593345171
3593349138
3593354631
3593361162
3593365984
3593372270
3593378679
3593383440
3593390337
3593395219
3593400896
3593405839
3593413042
3593418230
3593425249
3593430925
3593438432
3593442644
3593449418
3593456193
3593461442
3593466935
3593472246
3593478593
3593484575
3593491410
3593496354
3593503129
3593507280
3593513688
3593519853
3593527238
3593536515
3593541215
3593547013
3593554521
3593563554
3593567704
3593575334
3593580461
3593586259
3593591935
3593597794
3593603959
3593610307
3593614396
3593620866
3593627152
3593632645
3593638078
3593644364
3593649796
3593656022
3593661820
3593667130
3593674271
3593680558
3593686112
3593690324
3593698685
3593703385
3593709305
3593716935
3593722977
3593727372
3593734025
3593739396
3593744828
3593752091
3593756974
3593762711
3593767289
3593773392
3593779679
3593784012
3593790970
3593796341
3593802079
3593808609
3593813370
3593819168
3593825394
3593832474
3593837906
3593842362
3593849625
3593854447
3593861893
3593868302
3593873917
3593879227
3593885575
3593892044
3593896622
3593903275
3593909073
3593914139
3593919876
3593926712
3593931351
3593936783
3593942337
3593948868
3593955154
3593961014
3593966934
3593973160
3593978653
3593984085
3593993545
3594000015
3594007217
3594012832
3594017837
3594024917
3594030655
3594035599
3594041763
3594048843
3594054336
3594059463
3594064956
3594070877
3594076004
3594081619
3594088089
3594093460
3594098281
3594103897
3594109939
3594114334
3594120498
3594125198
3594130874
3594135635
3594143142
3594148208
3594152175
3594159500
3594163772
3594169876
3594174392
3594180923
3594185806
3594192214
3594197280
3594203323
3594208083
3594213882
3594219192
3594225295
3594230972
3594236282
3594241592
3594247207
3594252395
3594258071
3594263442
3594269912
3594275039
3594280044
3594286513
3594290542
3594296950
3594301650
3594308608
3594313369
3594319411
3594325820
3594329970
3594336684
3594342238
3594347976
3594354506
3594359389
3594364699
3594371535
3594376723
3594382644
3594388015
3594393508
3594399428
3594405104
3594410170
3594415969
3594422377
3594427199
3594434523
3594438552
3594444960
3594450392
3594456496
3594460829
3594466933
3594472060
3594477919
3594484572
3594490187
3594495558
3594499709
3594505934
3594512526
3594518324
3594525282
3594530959
3594537672
3594542494
3594548354
3594554762
3594560194
3594566542
3594573927
3594579237
3594585646
3594590407
3594596632
3594600783
3594607374
3594612623
3594618544
3594623915
3594628981
3594632948
3594638441
3594644484
3594650953
3594655958
3594661268
3594666151
3594670912
3594676954
3594681959
3594688063
3594693068
3594698744
3594704603
3594711500
3594716993
3594722364
3594729322
3594734632
3594740675
3594745558
3594751478
3594757887
3594762037
3594768263
3594772596
3594780226
3594785719
3594790968
3594796461
3594801588
3594808302
3594813368
3594819471
3594824232
3594829542
3594835279
3594840223
3594846021
3594852186
3594857130
3594863721
3594868787
3594874525
3594879407
3594885328
3594890211
3594899854
3594905103
3594909803
3594916212
3594920667
3594927442
3594933118
3594938367
3594944105
3594950025
3594954480
3594960523
3594967054
3594972364
3594976514
3594982862
3594988416
3594993848
3595000074
3595004041
3595011792
3595016858
3595022412
3595028211
3595035169
3595041516
3595046582
3595053296
3595059888
3595065320
3595070264
3595077405
3595083753
3595089002
3595095105
3595101209
3595106580
3595113171
3595117139
3595124646
3595130444
3595134595
3595141126
3595146741
3595151990
3595157910
3595164441
3595169446
3595174878
3595180188
3595185315
3595191724
3595197034
3595203808
3595208447
3595213696
3595219617
3595225781
3595231274
3595236889
3595242810
3595247937
3595251965
3595258008
3595264111
3595269116
3595275219
3595280407
3595285473
3595292004
3595297009
3595302197
3595307751
3595314160
3595319104
3595326245
3595331433
3595337597
3595343395
3595348889
3595354870
3595360729
3595366039
3595370190
3595377392
3595382153
3595388561
3595393322
3595398449
3595403576
3595410107
3595415417
3595421581
3595425793
3595432934
3595438610
3595443859
3595449963
3595456066
3595462048
3595466015
3595471874
3595478649
3595483715
3595487804
3595493908
3595499950
3595505138
3595511364
3595516674
3595522472
3595527660
3595533031
3595539623
3595544811
3595550792
3595555492
3595561657
3595568187
3595572887
3595580272
3595585094
3595594555
3595600353
3595606700
3595612560
3595618358
3595624034
3595632762
3595638195
3595644115
3595649852
3595654552
3595659984
3595666332
3595671459
3595677074
3595681163
3595687023
3595692272
3595698436
3595704173
3595708202
3595715831
3595721568
3595726756
3595732677
3595737743
3595742564
3595749217
3595754955
3595760936
3595765086
3595771129
3595776500
3595782603
3595788280
3595793895
3595799022
3595804393
3595810191
3595816356
3595821483
3595828013
3595833201
3595837962
3595844432
3595849986
3595856028
3595861277
3595867320
3595871226
3595879222
3595884044
3595887950
3595896251
3595901377
3595906565
3595911937
3595917186
3595922557
3595928904
3595934764
3595939585
3595945140
3595950999
3595957713
3595962657
3595970713
3595975779
3595980906
3595986949
3595992137
3595998362
3596004466
3596009104
3596015025
3596019785
3596025767
3596032359
3596036387
3596044077
3596049876
3596054880
3596060068
3596066599
3596071238
3596076914
3596081858
3596088084
3596094553
3596100596
3596106577
3596112986
3596118296
3596124582
3596131418
3596136240
3596142405
3596147837
3596154184
3596160654
3596166269
3596172800
3596177500
3596183359
3596189646
3596195139
3596200388
3596204416
3596212168
3596218149
3596223215
3596228098
3596234568
3596239145
3596245737
3596248606
3596256601
3596261179
3596267587
3596273325
3596278513
3596284677
3596290781
3596296335
3596302377
3596307321
3596312448
3596319101
3596324960
3596330270
3596334848
3596341440
3596347299
3596353036
3596358224
3596362863
3596367990
3596374033
3596380319
3596384592
3596392343
3596397897
3596402536
3596407968
3596413766
3596418405
3596425851
3596431039
3596436288
3596442636
3596448007
3596453744
3596459482
3596466684
3596471994
3596476144
3596483651
3596488107
3596494271
3596499826
3596505868
3596511544
3596517831
3596522958
3596527658
3596534066
3596539498
3596544625
3596550180
3596556222
3596561959
3596568185
3596573190
3596578866
3596584054
3596590951
3596595406
3596599984
3596607125
3596611031
3596617806
3596625375
3596631844
3596639596
3596646004
3596651925
3596657906
3596662484
3596668709
3596675973
3596681527
3596687325
3596692757
3596697701
3596703011
3596709725
3596713936
3596719430
3596724434
3596728707
3596733834
3596740914
3596745553
3596750741
3596755623
3596761178
3596765877
3596771798
3596777657
3596783577
3596789742
3596794320
3596800667
3596804634
3596811226
3596816170
3596824166
3596828926
3596833931
3596839363
3596845345
3596850472
3596856331
3596862251
3596866829
3596872688
3596878060
3596884651
3596889595
3596895638
3596901619
3596906014
3596911446
3596916328
3596923286
3596929756
3596933662
3596938911
3596945442
3596950691
3596957649
3596963203
3596969490
3596974617
3596979072
3596984749
3596990913
3596996773
3597002388
3597007332
3597012520
3597018501
3597023872
3597030586
3597036506
3597042305
3597047798
3597052314
3597057502
3597062751
3597068306
3597076301
3597082344
3597088569
3597094734
3597099678
3597106086
3597113533
3597119331
3597124519
3597131294
3597137763
3597143501
3597148139
3597153083
3597159919
3597165473
3597170783
3597174934
3597180671
3597187812
3597192939
3597197578
3597203376
3597208564
3597213081
3597219856
3597226020
3597231452
3597236579
3597242927
3597247626
3597253791
3597259406
3597265632
3597270454
3597277228
3597281806
3597287421
3597294929
3597300361
3597306403
3597310615
3597316840
3597321662
3597327949
3597333075
3597339728
3597345527
3597350165
3597354926
3597361029
3597368659
3597373969
3597378852
3597384162
3597390082
3597395514
3597401068
3597407172
3597412116
3597419440
3597424628
3597430304
3597435736
3597440558
3597448126
3597453803
3597459906
3597466437
3597471625
3597475653
3597482184
3597487555
3597492804
3597498663
3597503302
3597510992
3597515997
3597520941
3597525519
3597531989
3597539496
3597545721
3597553900
3597559454
3597564276
3597570074
3597575262
3597582159
3597588751
3597593634
3597598578
3597603583
3597608038
3597613714
3597620245
3597624823
3597631598
3597635687
3597641119
3597645880
3597651922
3597658758
3597664312
3597669439
3597674383
3597679388
3597685492
3597693121
3597696600
3597703009
3597707952
3597713446
3597718450
3597724676
3597730535
3597736395
3597740789
3597746832
3597751531
3597757330
3597764166
3597769354
3597774481
3597780157
3597785040
3597791692
3597799505
3597804571
3597810491
3597816167
3597821355
3597827337
3597833440
3597839544
3597843755
3597849065
3597854559
3597858953
3597865545
3597871709
3597878179
3597883550
3597888616
3597893499
3597900030
3597905095
3597910650
3597917180
3597922918
3597928167
3597934026
3597941228
3597947820
3597952703
3597958257
3597964116
3597968328
3597973882
3597980046
3597986943
3597993840
3597999944
3598007390
3598012883
3598019902
3598026067
3598030583
3598037908
3598043950
3598049260
3598054082
3598059453
3598065129
3598071477
3598076055
3598082585
3598088323
3598093877
3598099614
3598105962
3598111455
3598115422
3598122624
3598129704
3598134343
3598139226
3598145207
3598150334
3598156560
3598160771
3598167607
3598172429
3598177922
3598183049
3598188603
3598194096
3598201420
3598206364
3598211247
3598216801
3598222416
3598229558
3598234868
3598241215
3598245976
3598250248
3598256169
3598262028
3598265934
3598272831
3598277897
3598284184
3598289982
3598294804
3598300480
3598305119
3598310978
3598316838
3598323124
3598328129
3598333195
3598340824
3598345707
3598350529
3598356571
3598361881
3598367619
3598372502
3598379398
3598385563
3598391178
3598395451
3598400456
3598406620
3598413944
3598419498
3598424686
3598430180
3598436344
3598443424
3598448551
3598457157
3598463444
3598469669
3598475895
3598481144
3598486942
3598493046
3598498661
3598503971
3598509037
3598514591
3598520694
3598526371
3598531986
3598538212
3598543705
3598548343
3598554142
3598558597
3598565067
3598569889
3598574955
3598581913
3598586673
3598593509
3598599002
3598604312
3598610233
3598616092
3598621463
3598626651
3598632266
3598638370
3598643619
3598647403
3598653690
3598658512
3598664737
3598671085
3598676151
3598681827
3598687259
3598692264
3598697513
3598705570
3598711551
3598716312
3598721256
3598726749
3598732120
3598737430
3598742557
3598748721
3598754153
3598758975
3598763980
3598769900
3598776736
3598784671
3598790957
3598795901
3598802066
3598807437
3598811587
3598818606
3598825686
3598830386
3598836306
3598841678
3598848697
3598853762
3598859805
3598864749
3598870669
3598877139
3598881472
3598888369
3598895449
3598900759
3598907168
3598912417
3598917910
3598924441
3598930361
3598935366
3598942813
3598948001
3598954226
3598961306
3598965457
3598972537
3598977297
3598982119
3598988467
3598994570
3598999636
3599005618
3599010256
3599016604
3599022707
3599028323
3599034365
3599040408
3599045779
3599051943
3599057192
3599062441
3599067080
3599073550
3599079592
3599083864
3599089480
3599094973
3599100222
3599107180
3599112002
3599116701
3599123415
3599129336
3599133547
3599138979
3599146486
3599152346
3599157045
3599161867
3599168032
3599173769
3599181765
3599186159
3599188662
3599197267
3599201601
3599207094
3599211489
3599218508
3599224672
3599230471
3599236391
3599242433
3599247377
3599253237
3599258852
3599263918
3599269228
3599274294
3599279482
3599284425
3599289980
3599295656
3599300172
3599305360
3599310365
3599314211
3599321291
3599326662
3599333314
3599338747
3599343263
3599348390
3599352724
3599359498
3599366334
3599372560
3599379762
3599387758
3599391359
3599398988
3599403993
3599410768
3599416017
3599421510
3599427919
3599433046
3599437990
3599445558
3599451600
3599456422
3599461854
3599466554
3599473207
3599479371
3599485109
3599490785
3599496766
3599502931
3599508119
3599513124
3599519288
3599524842
3599530885
3599536683
3599544312
3599549317
3599555299
3599561097
3599567017
3599572267
3599577882
3599584535
3599591615
3599597413
3599602906
3599606751
3599613404
3599619447
3599625184
3599631837
3599636536
3599642396
3599649171
3599653626
3599659363
3599665345
3599671021
3599676758
3599682068
3599686951
3599692994
3599698243
3599705567
3599710450
3599716187
3599723084
3599727112
3599733155
3599742066
3599749390
3599754761
3599759766
3599766114
3599772583
3599777588
3599783753
3599789978
3599795655
3599801758
3599806458
3599812195
3599818787
3599823303
3599830689
3599836670
3599842957
3599849610
3599857727
3599863281
3599867676
3599874634
3599882141
3599888428
3599893860
3599899658
3599905457
3599912476
3599917542
3599922363
3599929199
3599935120
3599941101
3599945679
3599951538
3599957275
3599963745
3599968506
3599974853
3599979370
3599985473
3599991699
3599997131
3600001831
3600006897
3600013244
3600018921
3600024841
3600029785
3600035766
3600040527
3600046203
3600050903
3600057556
3600062927
3600068664
3600073120
3600078491
3600083984
3600088256
3600093994
3600100585
3600106262
3600111083
3600116210
3600121093
3600126281
3600131042
3600137634
3600142394
3600147155
3600153259
3600157653
3600166625
3600171935
3600178039
3600183837
3600189147
3600195007
3600201781
3600207763
3600213683
3600220153
3600225707
3600232360
3600237731
3600243163
3600250854
3600255981
3600262206
3600268066
3600274474
3600279540
3600284911
3600291381
3600299010
3600303832
3600309691
3600314757
3600320250
3600326537
3600336364
3600341735
3600349181
3600356566
3600361632
3600368895
3600374816
3600382445
3600390197
3600395995
3600401915
3600407225
3600413024
3600419799
3600426207
3600430968
3600437071
3600443358
3600448851
3600453978
3600460753
3600465148
3600471556
3600477049
3600481566
3600487425
3600493529
3600497801
3600503416
3600508116
3600513670
3600519774
3600523680
3600531065
3600536070
3600541319
3600546873
3600553343
3600558592
3600564757
3600569639
3600575804
3600580626
3600586607
3600591490
3600597471
3600602720
3600608153
3600614256
3600621336
3600626463
3600631163
3600637510
3600642576
3600648253
3600653624
3600659056
3600665159
3600670347
3600675535
3600680479
3600686644
3600691404
3600697996
3600704832
3600711790
3600717039
3600721739
3600727903
3600733396
3600738340
3600745298
3600749632
3600755918
3600761839
3600766782
3600772398
3600779173
3600786131
3600790159
3600796323
3600801939
3600806944
3600811887
3600818662
3600823972
3600829954
3600836057
3600842893
3600849119
3600853452
3600860471
3600867368
3600874265
3600879575
3600885801
3600891172
3600897580
3600903440
3600910276
3600915769
3600921262
3600927060
3600932554
3600937803
3600943601
3600950071
3600956601
3600961606
3600967832
3600972654
3600978696
3600984738
3600988950
3600995542
3601002622
3601007688
3601013059
3601018979
3601024228
3601029294
3601036130
3601041867
3601047788
3601053525
3601058286
3601063840
3601069943
3601074033
3601080563
3601087582
3601091550
3601097958
3601102048
3601109372
3601113583
3601120358
3601126340
3601131345
3601136410
3601141720
3601147641
3601153012
3601158383
3601165463
3601173825
3601179074
3601185605
3601191098
3601196103
3601201352
3601208554
3601214047
3601220089
3601224667
3601230587
3601236203
3601242672
3601246884
3601253048
3601259701
3601263668
3601269955
3601275448
3601281918
3601286862
3601292050
3601298275
3601303158
3601308102
3601314450
3601319638
3601325436
3601330929
3601337155
3601342465
3601347286
3601353451
3601358517
3601364132
3601368832
3601377621
3601385677
3601391964
3601398495
3601405148
3601409359
3601416195
3601425594
3601432552
3601439022
3601444210
3601449276
3601454525
3601460201
3601465084
3601470760
3601476925
3601481502
3601487972
3601493282
3601499080
3601503902
3601509578
3601515438
3601520321
3601525753
3601531978
3601538570
3601544613
3601549373
3601555477
3601561458
3601565975
3601572139
3601577449
3601583492
3601589168
3601593257
3601600521
3601604488
3601612056
3601614681
3601622493
3601628169
3601634273
3601640132
3601645809
3601650508
3601656123
3601662654
3601669307
3601673457
3601679805
3601685603
3601690608
3601695979
3601701167
3601707820
3601712642
3601717464
3601723384
3601729732
3601735713
3601740535
3601750056
3601754451
3601760554
3601766414
3601770930
3601775935
3601782161
3601788142
3601794063
3601800349
3601804744
3601809749
3601816462
3601822932
3601828364
3601834224
3601839228
3601844966
3601849910
3601856257
3601861201
3601867976
3601872309
3601879145
3601884394
3601890254
3601896540
3601903559
3601910090
3601916255
3601922175
3601928156
3601933467
3601939204
3601945674
3601950129
3601957392
3601962763
3601967890
3601973933
3601979182
3601984126
3601990595
3601995234
3602001643
3602006586
3602012751
3602018000
3602024165
3602030207
3602036616
3602041804
3602047785
3602052912
3602058710
3602064020
3602069758
3602074885
3602079523
3602085627
3602091486
3602097590
3602104303
3602109797
3602115534
3602121759
3602126947
3602131830
3602138422
3602143610
3602148737
3602153498
3602160028
3602166193
3602170893
3602177179
3602183100
3602187616
3602193720
3602199579
3602206293
3602212702
3602217401
3602223993
3602228327
3602234979
3602240045
3602246576
3602252191
3602258234
3602263483
3602267633
3602275507
3602281427
3602286432
3602292291
3602297479
3602302179
3602308527
3602313165
3602319757
3602324701
3602332086
3602337884
3602342218
3602349481
3602354364
3602359491
3602365838
3602371149
3602376275
3602382623
3602387140
3602392999
3602399469
3602403436
3602410394
3602416986
3602424066
3602431207
3602437310
3602444391
3602448724
3602455255
3602461358
3602469659
3602476434
3602481927
3602487420
3602492303
3602498223
3602504144
3602510064
3602515252
3602521173
3602526361
3602532098
3602537408
3602542901
3602549310
3602553399
3602559930
3602567437
3602573846
3602579705
3602586968
3602591729
3602597344
3602604058
3602608636
3602614861
3602620660
3602627251
3602632500
3602638604
3602643914
3602648492
3602655694
3602658379
3602666375
3602672539
3602678643
3602683465
3602689751
3602694939
3602701043
3602707634
3602714470
3602720879
3602725640
3602732354
3602737114
3602743645
3602748772
3602754998
3602761223
3602766594
3602770501
3602776421
3602782646
3602786980
3602793694
3602797905
3602807915
3602814446
3602820183
3602825676
3602831780
3602837090
3602844170
3602849053
3602855217
3602860100
3602865410
3602869194
3602874077
3602882195
3602887077
3602892387
3602898796
3602903557
3602909050
3602913628
3602919426
3602924492
3602930473
3602935356
3602941032
3602947136
3602955192
3602961845
3602969292
3602975273
3602981193
3602986259
3602992973
3602998039
3603005790
3603011894
3603016166
3603022941
3603028495
3603034721
3603040397
3603045341
3603051933
3603055900
3603063224
3603068962
3603073967
3603080925
3603086906
3603091545
3603097099
3603103324
3603107536
3603115531
3603121635
3603127067
3603133109
3603137687
3603143180
3603149467
3603156120
3603160941
3603166984
3603171134
3603178092
3603184013
3603188712
3603194572
3603200919
3603205680
3603212272
3603217582
3603222892
3603226676
3603233756
3603239127
3603244681
3603250175
3603256583
3603261161
3603266654
3603274344
3603279654
3603284842
3603290580
3603296256
3603303092
3603307486
3603314261
3603321036
3603325980
3603331900
3603337394
3603342826
3603348319
3603354422
3603361258
3603367057
3603372061
3603377127
3603382987
3603388968
3603393851
3603399893
3603405265
3603410697
3603416251
3603427725
3603434256
3603440299
3603445853
3603451529
3603458487
3603464774
3603471060
3603476675
3603482169
3603487357
3603494070
3603502127
3603508108
3603513968
3603519156
3603525381
3603530875
3603536490
3603542715
3603548086
3603553946
3603559866
3603569632
3603575308
3603580923
3603587088
3603595572
3603604544
3603610220
3603615286
3603621084
3603626761
3603631765
3603636892
3603642691
3603647146
3603653250
3603657766
3603664419
3603671560
3603675527
3603681204
3603685720
3603691763
3603695913
3603702078
3603708120
3603713308
3603720205
3603724355
3603732168
3603738333
3603745229
3603751394
3603757253
3603763845
3603769827
3603775564
3603782827
3603791128
3603797353
3603801992
3603807973
3603814260
3603820974
3603826284
3603832693
3603837575
3603844106
3603850576
3603856069
3603864126
3603869008
3603874868
3603880178
3603885915
3603891591
3603898000
3603903249
3603909841
3603914663
3603921804
3603927724
3603937001
3603942678
3603948110
3603955251
3603960988
3603968373
3603973683
3603980764
3603986867
3603992604
3603999684
3604004628
3604009999
3604016103
3604021535
3604026845
3604032399
3604038136
3604044057
3604050588
3604055959
3604062184
3604067738
3604072987
3604079823
3604085927
3604091481
3604098134
3604102284
3604108205
3604114308
3604121510
3604127431
3604133412
3604138844
3604143971
3604149342
3604155751
3604161854
3604167225
3604173512
3604178395
3604182484
3604188771
3604195607
3604201222
3604207570
3604212513
3604218739
3604225392
3604231984
3604238453
3604243153
3604249256
3604254261
3604261463
3604268238
3604274647
3604278370
3604285694
3604291249
3604297352
3604302723
3604307850
3604313954
3604319081
3604324818
3604330738
3604336170
3604342762
3604348499
3604354115
3604361500
3604367420
3604372852
3604378468
3604388233
3604393970
3604401051
3604408924
3604413929
3604420582
3604426319
3604434315
3604439869
3604446216
3604451343
3604457325
3604462574
3604469288
3604474354
3604480823
3604485523
3604490894
3604496937
3604501697
3604509144
3604514148
3604519581
3604525196
3604531482
3604536731
3604542896
3604548206
3604554309
3604559375
3604564991
3604570911
3604575550
3604581958
3604586658
3604592761
3604597766
3604603565
3604609546
3604615466
3604620654
3604624866
3604632617
3604637805
3604644153
3604649341
3604655139
3604660632
3604665820
3604670459
3604677661
3604682910
3604688525
3604693408
3604700122
3604704578
3604709888
3604716052
3604722644
3604728137
3604733325
3604739795
3604744189
3604748889
3604755542
3604761889
3604769702
3604774951
3604779651
3604785815
3604790576
3604796679
3604803088
3604807238
3604814868
3604818896
3604825183
3604829943
3604836108
3604841967
3604848132
3604853259
3604861377
3604868151
3604874621
3604881030
3604886523
3604892199
3604897448
3604902270
3604910021
3604917040
3604924120
3604930041
3604935412
3604941332
3604947680
3604955309
3604961901
3604967333
3604973071
3604979968
3604984728
3604990832
3604997240
3605002245
3605008105
3605014086
3605019884
3605024340
3605031359
3605035509
3605042040
3605049059
3605054308
3605060534
3605065844
3605070971
3605077440
3605082873
3605087694
3605093981
3605098620
3605103685
3605109789
3605114733
3605120897
3605126024
3605132067
3605137682
3605142931
3605148546
3605154711
3605159899
3605165270
3605171617
3605176805
3605182421
3605189195
3605193224
3605200426
3605204881
3605211351
3605216478
3605222460
3605228197
3605233995
3605238878
3605244615
3605249620
3605256090
3605262315
3605267748
3605273058
3605278123
3605282579
3605291185
3605297655
3605303575
3605307725
3605313707
3605319932
3605323839
3605330858
3605336290
3605341539
3605346239
3605352525
3605357530
3605363572
3605369432
3605375108
3605380296
3605386705
3605391710
3605397813
3605402330
3605407213
3605413499
3605423387
3605427964
3605434068
3605440232
3605446092
3605451280
3605455430
3605462998
3605467759
3605474961
3605480516
3605487290
3605491929
3605498643
3605504075
3605510240
3605514695
3605520677
3605527085
3605532456
3605538011
3605543870
3605548936
3605554429
3605561021
3605565537
3605572129
3605576890
3605583421
3605588609
3605595017
3605599900
3605605820
3605610398
3605616379
3605621262
3605627427
3605632493
3605638535
3605643906
3605649399
3605655442
3605661240
3605666489
3605672654
3605677537
3605683457
3605688218
3605693467
3605699631
3605704758
3605711167
3605717148
3605723008
3605728745
3605734909
3605740219
3605745102
3605751694
3605756882
3605764145
3605769028
3605774521
3605779282
3605785568
3605790451
3605796921
3605801377
3605809006
3605814987
3605819992
3605825546
3605830551
3605837326
3605842087
3605847092
3605852951
3605859665
3605863571
3605870712
3605877304
3605882553
3605888962
3605895187
3605899704
3605905197
3605910446
3605916122
3605922653
3605926926
3605933151
3605938278
3605945602
3605950058
3605956650
3605965072
3605969833
3605977401
3605982589
3605988266
3605994980
3606001327
3606008285
3606014328
3606018844
3606024948
3606030197
3606036239
3606040268
3606047836
3606054000
3606058090
3606064315
3606069870
3606075485
3606081283
3606086532
3606092880
3606098007
3606103378
3606110092
3606114364
3606120773
3606124801
3606131454
3606136764
3606142745
3606146957
3606152938
3606159591
3606165145
3606170760
3606176925
3606182174
3606187728
3606193099
3606199081
3606204208
3606209945
3606215316
3606221908
3606226668
3606231978
3606238021
3606243453
3606249434
3606254622
3606260909
3606266829
3606271773
3606277022
3606282271
3606288497
3606293502
3606299727
3606304549
3606311385
3606316878
3606321395
3606327620
3606334212
3606339461
3606344771
3606350692
3606357833
3606361983
3606368819
3606372847
3606378707
3606382918
3606390730
3606395369
3606402022
3606406905
3606413497
3606419600
3606424544
3606430464
3606436446
3606441023
3606448531
3606453780
3606457808
3606463911
3606469832
3606478072
3606485457
3606489729
3606496321
3606502058
3606507979
3606513960
3606519331
3606525801
3606531782
3606537214
3606543806
3606549483
3606556074
3606561384
3606567305
3606572127
3606578169
3606584639
3606588850
3606594709
3606601423
3606606611
3606610640
3606618330
3606622480
3606629011
3606634016
3606639082
3606645552
3606651533
3606656965
3606661604
3606666487
3606672590
3606677961
3606684187
3606689192
3606695112
3606701093
3606706953
3606712202
3606717634
3606722761
3606729048
3606735700
3606740400
3606746992
3606752058
3606758100
3606762983
3606769086
3606775983
3606781049
3606787702
3606792463
3606798017
3606804304
3606809125
3606815412
3606821210
3606826948
3606832258
3606838666
3606843427
3606848798
3606855451
3606860334
3606866254
3606872907
3606879133
3606884565
3606888654
3606896100
3606901349
3606907331
3606912519
3606918622
3606923810
3606929975
3606934613
3606940229
3606946576
3606951886
3606957868
3606964215
3606968122
3606974530
3606978742
3606985883
3606991559
3606997724
3607002667
3607009747
3607015180
3607022138
3607030438
3607034894
3607041425
3607045880
3607052472
3607057721
3607064923
3607071393
3607077252
3607082501
3607087994
3607093976
3607098126
3607105694
3607113324
3607118024
3607124066
3607129010
3607136029
3607141461
3607146832
3607153241
3607158368
3607164654
3607169842
3607175702
3607181317
3607186505
3607193097
3607197979
3607204510
3607209393
3607215374
3607220257
3607226239
3607230816
3607236798
3607241803
3607247662
3607253887
3607257977
3607264508
3607270306
3607275555
3607282147
3607287274
3607292340
3607298870
3607303509
3607310040
3607314984
3607321148
3607327923
3607334210
3607339336
3607344036
3607350323
3607355328
3607361431
3607366741
3607373394
3607378521
3607383709
3607389141
3607393963
3607401470
3607407085
3607413128
3607417766
3607423321
3607429973
3607435222
3607440105
3607447857
3607452495
3607458538
3607463360
3607470196
3607473980
3607480999
3607487346
3607492717
3607498516
3607504558
3607508220
3607514080
3607519634
3607525066
3607531414
3607538311
3607545696
3607551006
3607557415
3607562541
3607570171
3607576091
3607582622
3607588054
3607592510
3607601238
3607606487
3607611553
3607617717
3607623821
3607628764
3607634807
3607639323
3607645122
3607649577
3607655803
3607661418
3607665569
3607672221
3607677592
3607682353
3607686015
3607691753
3607698039
3607704570
3607710673
3607717143
3607721843
3607728129
3607733989
3607741069
3607746867
3607752421
3607758342
3607763774
3607769084
3607775309
3607780803
3607786113
3607791545
3607796367
3607801799
3607808696
3607813090
3607819438
3607824137
3607830485
3607835063
3607840617
3607845683
3607850749
3607856364
3607862590
3607867716
3607873698
3607878459
3607884196
3607888590
3607893046
3607899333
3607904582
3607910929
3607916667
3607922526
3607928385
3607933878
3607938639
3607944437
3607949686
3607955363
3607960123
3607966105
3607970438
3607975687
3607982401
3607988383
3607994547
3607999369
3608004496
3608010783
3608014689
3608020548
3608024882
3608032999
3608038675
3608044413
3608049112
3608054911
3608061258
3608068155
3608073649
3608079020
3608085001
3608090128
3608095926
3608100565
3608107096
3608113626
3608120523
3608125467
3608130899
3608135782
3608141764
3608146341
3608151712
3608157999
3608162638
3608168436
3608174051
3608179117
3608184549
3608188700
3608195596
3608200418
3608206644
3608210977
3608216959
3608220804
3608227091
3608233194
3608238870
3608243021
3608248758
3608253275
3608258951
3608264566
3608268777
3608276285
3608279275
3608286783
3608291299
3608297464
3608302103
3608309671
3608314859
3608320535
3608325052
3608330667
3608334573
3608340249
3608345804
3608350259
3608358865
3608363443
3608369424
3608373269
3608379373
3608383523
3608389810
3608396402
3608403909
3608410196
3608415322
3608420999
3608425882
3608432901
3608438821
3608444985
3608450906
3608454812
3608460549
3608465859
3608470620
3608476602
3608482827
3608489053
3608494058
3608500161
3608505715
3608511514
3608518227
3608523232
3608529519
3608535439
3608542825
3608546853
3608553506
3608559975
3608566567
3608572488
3608580178
3608587319
3608593606
3608598489
3608606301
3608611794
3608619301
3608624917
3608631264
3608638222
3608644204
3608650673
3608655556
3608660195
3608663125
3608667702
3608672036
3608675332
3608681618
3608685158
3608689797
3608693825
3608698159
3608702675
3608708352
3608713478
3608719094
3608723793
3608727639
3608732643
3608736550
3608740578
3608745339
3608748085
3608753029
3608758156
3608761452
3608765236
3608769203
3608773964
3608778481
3608782265
3608786598
3608791542
3608796181
3608801491
3608805336
3608810463
3608813820
3608820656
3608824501
3608829567
3608833962
3608837441
3608841347
3608846108
3608850624
3608856178
3608863014
3608866981
3608872475
3608878212
3608883461
3608888466
3608892677
3608896644
3608901894
3608906227
3608912269
3608916725
3608921303
3608925758
3608930336
3608934303
3608938942
3608943947
3608946815
3608951820
3608955909
3608960426
3608965736
3608970863
3608977089
3608981971
3608986488
3608990516
3608995277
3608999305
3609004066
3609010231
3609014320
3609019569
3609023475
3609028114
3609032020
3609037208
3609041664
3609046546
3609051246
3609055702
3609059486
3609063392
3609068397
3609072914
3609077796
3609082069
3609085975
3609090309
3609096168
3609100257
3609105384
3609108863
3609113075
3609118690
3609123756
3609128211
3609132911
3609136695
3609141395
3609147010
3609151771
3609157569
3609160377
3609165137
3609169410
3609174537
3609179298
3609182899
3609187171
3609191383
3609195289
3609199927
3609203712
3609207984
3609212562
3609217750
3609221046
3609225867
3609229224
3609233802
3609239966
3609244361
3609249122
3609254188
3609257605
3609262671
3609267310
3609270545
3609276099
3609280677
3609285315
3609289588
3609294593
3609299170
3609303931
3609308509
3609312415
3609315467
3609320105
3609325293
3609332801
3609337317
3609342444
3609346961
3609351599
3609355506
3609361121
3609366858
3609373145
3609379065
3609382666
3609388526
3609394202
3609398657
3609404517
3609408240
3609412634
3609428259
3609433020
3609437842
3609442053
3609446387
3609452246
3609457861
3609463416
3609469885
3609475561
3609481482
3609486059
3609491125
3609497778
3609502966
3609508520
3609513098
3609518652
3609524389
3609527685
3609533117
3609538672
3609544165
3609550146
3609555822
3609560339
3609564734
3609568640
3609574743
3609581762
3609586584
3609591772
3609595984
3609600622
3609607519
3609613989
3609619238
3609623754
3609628942
3609633886
3609639318
3609643164
3609649572
3609654211
3609658483
3609663732
3609667883
3609671606
3609677587
3609683080
3609688391
3609694921
3609700659
3609705541
3609711584
3609716711
3609720983
3609727392
3609733129
3609738989
3609743139
3609748632
3609752721
3609758276
3609763769
3609768285
3609773840
3609778783
3609784948
3609791845
3609798925
3609805150
3609810522
3609816808
3609822484
3609827062
3609832555
3609837743
3609844884
3609852086
3609856359
3609861913
3609867284
3609872289
3609877355
3609884008
3609890294
3609895299
3609900365
3609905797
3609911229
3609916478
3609919896
3609926549
3609932531
3609937963
3609944310
3609948278
3609954991
3609959813
3609964818
3609971715
3609977269
3609983190
3609988072
3609992101
3609997411
3610003331
3610009984
3610014562
3610019505
3610024327
3610030492
3610034520
3610039769
3610048985
3610055699
3610061742
3610066685
3610072240
3610076695
3610083348
3610088658
3610094517
3610099583
3610107152
3610111485
3610117955
3610123143
3610128697
3610135899
3610142674
3610147679
3610152623
3610159276
3610164464
3610169774
3610174351
3610180211
3610188389
3610195103
3610201390
3610207371
3610212315
3610217564
3610224766
3610229100
3610236180
3610241185
3610246861
3610253575
3610258885
3610263767
3610269871
3610272862
3610280247
3610285374
3610292210
3610297154
3610302769
3610308140
3610313633
3610319065
3610324741
3610330479
3610336704
3610343113
3610347019
3610355625
3610363560
3610368565
3610376072
3610382969
3610387424
3610394504
3610401157
3610406833
3610411045
3610418003
3610423557
3610428745
3610433506
3610440464
3610447239
3610451938
3610456821
3610461704
3610469028
3610474826
3610480259
3610487156
3610492527
3610497898
3610503086
3610508884
3610514499
3610517734
3610525852
3610531101
3610538059
3610542636
3610549228
3610553134
3610559909
3610563449
3610569980
3610575412
3610581272
3610586337
3610592441
3610598056
3610605686
3610610202
3610616306
3610623752
3610628574
3610633945
3610641574
3610646457
3610653171
3610661288
3610670138
3610675510
3610681247
3610687961
3610693820
3610698276
3610703342
3610709933
3610714084
3610721286
3610727389
3610732944
3610738131
3610745273
3610749545
3610755343
3610761264
3610767062
3610772799
3610778781
3610783786
3610788607
3610795687
3610801425
3610807101
3610811679
3610818942
3610826144
3610832064
3610836398
3610842440
3610848788
3610853243
3610859469
3610864962
3610870089
3610877596
3610883517
3610889132
3610896212
3610900179
3610907443
3610913363
3610919039
3610924288
3610931002
3610935885
3610941622
3610946261
3610952670
3610959505
3610963900
3610970431
3610979220
3610984713
3610993014
3610997164
3611002901
3611008578
3611013521
3611019259
3611025545
3611035189
3611039278
3611045687
3611050997
3611056185
3611060213
3611065035
3611075106
3611080294
3611084505
3611088717
3611095491
3611099886
3611105196
3611110384
3611117403
3611121920
3611127046
3611131990
3611136873
3611142183
3611147005
3611152437
3611159761
3611165071
3611170015
3611175936
3611181490
3611188936
3611193880
3611202181
3611208101
3611213533
3611219576
3611226167
3611229768
3611238924
3611243013
3611251863
3611258455
3611265047
3611272554
3611279451
3611287508
3611292207
3611299898
3611307954
3611316011
3611321382
3611326204
3611337495
3611344758
3611350801
3611359834
3611364351
3611371919
3611380037
3611388520
3611394258
3611403047
3611409516
3611417024
3611425447
3611431489
3611439241
3611445588
3611452851
3611460237
3611468232
3611476411
3611487458
3611492097
3611499909
3611507966
3611515656
3611522065
3611529145
3611535065
3611542939
3611551484
3611558381
3611564973
3611573701
3611580537
3611585847
3611594880
3611599335
3611610261
3611617463
3611626435
3611634369
3611640900
3611647004
3611653840
3611660676
3611668305
3611676850
3611683503
3611691864
3611698029
3611707917
3611715119
3611720856
3611731354
3611738434
3611745575
3611755402
3611761994
3611771759
3611780609
3611788178
3611794403
3611801666
3611809418
3611817841
3611827301
3611835052
3611839691
3611848724
3611853302
3611859711
3611866363
3611874542
3611879364
3611885406
3611894012
3611900604
3611906586
3611914093
3611920196
3611928070
3611933075
3611944000
3611953705
3611960540
3611968170
3611975494
3611983062
3611989471
3611997955
3612002472
3612011871
3612018768
3612027191
3612035125
3612043121
3612049163
3612056549
3612062042
3612069915
3612076568
3612085357
3612089996
3612098357
3612106475
3612116180
3612124725
3612131377
3612137847
3612144744
3612153472
3612159759
3612169097
3612175811
3612183379
3612189727
3612198333
3612205474
3612213714
3612218780
3612226592
3612234710
3612241851
3612250518
3612260772
3612266936
3612273650
3612283538
3612290252
3612300078
3612308135
3612315154
3612323577
3612328582
3612341277
3612345793
3612354155
3612362273
3612368987
3612378752
3612383574
3612390471
3612398345
3612406035
3612415862
3612423369
3612429839
3612436980
3612442595
3612451262
3612456145
3612466826
3612474272
3612480986
3612489897
3612496184
3612505583
3612513334
3612522673
3612527495
3612539274
3612547026
3612554594
3612560209
3612564238
3612575651
3612580168
3612591215
3612598234
3612602812
3612613737
3612619779
3612633512
3612645048
3612653837
3612659452
3612671232
3612678495
3612688932
3612696745
3612704191
3612713712
3612721342
3612732023
3612738493
3612747892
3612755643
3612763334
3612771268
3612777677
3612786710
3612793790
3612800443
3612806791
3612815030
3612822660
3612828336
3612836210
3612843168
3612850919
3612857511
3612863675
3612871671
3612878812
3612885221
3612892179
3612899625
3612907498
3612916104
3612925443
3612929593
3612938199
3612946927
3612952481
3612960660
3612968656
3612976346
3612983853
3612990323
3612998319
3613006741
3613011929
3613018521
3613026639
3613033231
3613038113
3613046536
3613055142
3613063992
3613071988
3613078213
3613084805
3613090787
3613098843
3613106839
3613113186
3613120999
3613128506
3613136319
3613144803
3613149991
3613157925
3613163662
3613170193
3613177822
3613185452
3613194546
3613204373
3613208706
3613216275
3613222622
3613228665
3613236294
3613243374
3613249417
3613256558
3613266567
3613275784
3613281460
3613289456
3613296475
3613301418
3613308926
3613315090
3613322781
3613327969
3613341518
3613346096
3613356167
3613363735
3613371914
3613380337
3613386501
3613395534
3613403103
3613411464
3613419826
3613426357
3613435207
3613440578
3613448940
3613455227
3613464077
3613469509
3613478054
3613486721
3613493251
3613503566
3613508754
3613517971
3613526393
3613533229
3613543361
3613548793
3613559047
3613566066
3613573390
3613581569
3613587367
3613595851
3613602565
3613609218
3613615871
3613624477
3613632045
3613636928
3613644496
3613651698
3613656337
3613663173
3613668849
3613676356
3613681117
3613692470
3613698573
3613706447
3613712672
3613718532
3613725306
3613732631
3613738124
3613745814
3613753505
3613761866
3613769679
3613777369
3613784388
3613793238
3613802882
3613810023
3613817958
3613824122
3613834010
3613840541
3613848597
3613854762
3613863856
3613870692
3613875941
3613883875
3613893519
3613917811
3613925867
3613935389
3613946986
3613956995
3613965479
3613978113
3613987452
3613997462
3614005579
3614014002
3614022120
3614029627
3614034754
3614039515
3614044642
3614048792
3614052881
3614056849
3614061548
3614066309
3614074366
3614079004
3614083643
3614088709
3614093592
3614097864
3614103907
3614107935
3614111841
3614116114
3614120020
3614123194
3614128443
3614133020
3614138391
3614143457
3614148035
3614151575
3614158106
3614162561
3614168421
3614174585
3614178186
3614184107
3614187586
3614193262
3614198023
3614202905
3614209985
3614215662
3614221155
3614226404
3614230676
3614233850
3614240076
3614244470
3614249231
3614255090
3614260278
3614265405
3614269678
3614273889
3614278039
3614282312
3614287866
3614292566
3614296289
3614299524
3614304773
3614308740
3614313196
3614318506
3614324365
3614328515
3614334192
3614339013
3614344873
3614350488
3614354577
3614361596
3614367028
3614371972
3614376672
3614381860
3614385949
3614390405
3614394982
3614402246
3614407434
3614412500
3614416772
3614421655
3614425622
3614431481
3614435815
3614442224
3614448815
3614454614
3614458520
3614462426
3614468347
3614473229
3614477807
3614485253
3614491601
3614496117
3614500695
3614505578
3614510156
3614515282
3614520043
3614524865
3614531518
3614535607
3614542138
3614545739
3614552575
3614557580
3614565026
3614570153
3614577538
3614584130
3614589867
3614595788
3614600243
3614605187
3614610375
3614615746
3614620873
3614625573
3614632592
3614636925
3614642357
3614646874
3614652245
3614656884
3614664208
3614668969
3614675255
3614679955
3614684960
3614691246
3614695946
3614700768
3614707482
3614712853
3614716942
3614725304
3614730492
3614736840
3614742211
3614747643
3614756859
3614762108
3614766380
3614772484
3614776878
3614782066
3614788231
3614792625
3614796715
3614803551
3614808678
3614814171
3614818810
3614823875
3614827782
3614833702
3614837852
3614844932
3614851158
3614854637
3614860496
3614865562
3614869408
3614874718
3614879295
3614885887
3614891563
3614894981
3614901329
3614905784
3614910179
3614914451
3614920555
3614924644
3614930443
3614935508
3614941490
3614946739
3614950523
3614955284
3614960044
3614966453
3614973045
3614978111
3614983116
3614987449
3614992637
3614997947
3615003196
3615006309
3615014610
3615017967
3615025047
3615029563
3615035850
3615040183
3615045799
3615050559
3615057884
3615064597
3615069175
3615073875
3615079612
3615084556
3615089927
3615095359
3615098533
3615106895
3615113731
3615118186
3615123008
3615130637
3615135459
3615140708
3615147544
3615154380
3615159507
3615166160
3615170615
3615178672
3615184104
3615190818
3615196677
3615202231
3615209434
3615216147
3615222007
3615229270
3615236289
3615242087
3615249900
3615254721
3615263694
3615270407
3615276755
3615283957
3615287986
3615297324
3615304038
3615309958
3615320578
3615328940
3615337912
3615345664
3615356772
3615363913
3615370383
3615375937
3615382834
3615389792
3615397543
3615406210
3615414389
3615421408
3615427267
3615433493
3615439474
3615446188
3615455893
3615463583
3615470175
3615477316
3615483053
3615487997
3615496542
3615500815
3615508017
3615515585
3615523703
3615530417
3615535849
3615542624
3615547689
3615554953
3615559042
3615565817
3615573080
3615585165
3615591818
3615596273
3615606710
3615613668
3615618551
3615625814
3615631796
3615639791
3615644491
3615651449
3615660604
3615665548
3615672567
3615680013
3615685751
3615691854
3615697897
3615704671
3615713094
3615721029
3615727682
3615733236
3615741170
3615746053
3615752706
3615759237
3615764791
3615771383
3615777364
3615785177
3615792745
3615799337
3615803121
3615810506
3615818258
3615824056
3615830648
3615839193
3615847493
3615852132
3615860860
3615866658
3615872701
3615879293
3615885396
3615890706
3615897420
3615907552
3615915364
3615921712
3615928670
3615934896
3615942159
3615946004
3615952657
3615959248
3615968648
3615976643
3615982259
3615989949
3615993672
3615999165
3616007832
3616013142
3616020650
3616025960
3616037190
3616043660
3616050130
3616056966
3616064656
3616069417
3616075215
3616080769
3616087422
3616098225
3616106526
3616112690
3616120137
3616128010
3616137959
3616142903
3616152913
3616162251
3616170369
3616177876
3616184101
3616194050
3616200337
3616209126
3616216389
3616224568
3616230732
3616238972
3616245014
3616251972
3616255757
3616265766
3616270649
3616277241
3616285603
3616290913
3616296345
3616303974
3616309467
3616315327
3616320454
3616327656
3616336140
3616342182
3616346638
3616353779
3616358906
3616364216
3616370746
3616376545
3616384418
3616390583
3616396808
3616401630
3616407001
3616411640
3616419147
3616424823
3616431415
3616437336
3616444172
3616448749
3616455219
3616460407
3616465290
3616471210
3616477802
3616482257
3616488422
3616494098
3616498920
3616505878
3616511310
3616516803
3616521625
3616527362
3616533771
3616538288
3616543353
3616548236
3616554340
3616559406
3616565204
3616571368
3616576740
3616583759
3616589862
3616597858
3616603717
3616608966
3616614825
3616620868
3616626544
3616631976
3616636737
3616644488
3616649860
3616656085
3616661395
3616666766
3616672198
3616677508
3616682086
3616690387
3616697589
3616703509
3616707232
3616713519
3616717486
3616723712
3616729693
3616738238
3616744220
3616753619
3616759112
3616763446
3616769915
3616773883
3616778521
3616786883
3616791949
3616799395
3616804095
3616809771
3616814776
3616820147
3616825762
3616831317
3616836016
3616842425
3616846148
3616854998
3616859637
3616865191
3616870806
3616877947
3616882098
3616888934
3616893633
3616898882
3616903643
3616909014
3616914019
3616921648
3616924944
3616931841
3616936297
3616943621
3616948260
3616953692
3616961443
3616967119
3616972857
3616978472
3616984453
3616989214
3616995257
3616999895
3617004717
3617012041
3617019487
3617028643
3617034441
3617040300
3617046587
3617052568
3617058428
3617061724
3617069536
3617074419
3617079485
3617086504
3617089922
3617096636
3617100908
3617106706
3617112810
3617120683
3617125994
3617132219
3617135576
3617142717
3617147295
3617153093
3617158647
3617165300
3617171709
3617178301
3617184343
3617190569
3617195818
3617201677
3617207658
3617212602
3617220354
3617225542
3617231523
3617236894
3617243364
3617248430
3617254350
3617259355
3617266435
3617273088
3617277238
3617284196
3617288041
3617295793
3617299577
3617305681
3617311662
3617317582
3617322953
3617329545
3617334672
3617340409
3617348710
3617353776
3617360124
3617368119
3617374101
3617378373
3617384904
3617389726
3617396562
3617401872
3617408708
3617414384
3617419999
3617425126
3617431535
3617436540
3617441544
3617445756
3617451066
3617457108
3617462785
3617468644
3617474259
3617480424
3617486466
3617492509
3617499833
3617505204
3617510148
3617514970
3617522538
3617527604
3617533768
3617540238
3617546586
3617550004
3617557633
3617562943
3617568070
3617575089
3617579178
3617586075
3617590226
3617597611
3617604325
3617610184
3617615616
3617621415
3617626114
3617632157
3617636673
3617641495
3617648819
3617655106
3617659989
3617665726
3617672074
3617677506
3617682938
3617688736
3617694474
3617701309
3617708023
3617713333
3617719193
3617724137
3617729996
3617736893
3617740555
3617747635
3617753128
3617758804
3617765152
3617770523
3617775772
3617781876
3617788406
3617794327
3617799454
3617806168
3617811600
3617818558
3617823257
3617828140
3617836258
3617841080
3617846329
3617851944
3617857986
3617863785
3617869766
3617874893
3617881119
3617887527
3617892044
3617899246
3617905349
3617910354
3617914871
3617921890
3617926223
3617931961
3617937515
3617943313
3617948684
3617956558
3617965347
3617973220
3617979690
3617984329
3617990310
3617995132
3618003066
3618008377
3618015884
3618022109
3618028457
3618032730
3618037368
3618043838
3618050857
3618056472
3618061660
3618066055
3618072402
3618078811
3618084182
3618088882
3618096145
3618101760
3618105178
3618111404
3618115615
3618121841
3618126174
3618132644
3618140700
3618145949
3618150405
3618155715
3618161391
3618166945
3618171950
3618177199
3618180190
3618188857
3618194289
3618198684
3618203322
3618208938
3618216018
3618220473
3618225966
3618231582
3618237685
3618242995
3618249099
3618253981
3618259841
3618264724
3618269423
3618276564
3618283156
3618288100
3618293959
3618299452
3618304946
3618310561
3618316359
3618322341
3618329604
3618336012
3618341994
3618347975
3618353285
3618359633
3618364211
3618369276
3618376357
3618383803
3618392104
3618398207
3618401686
3618409926
3618414198
3618421583
3618426039
3618432936
3618440382
3618444594
3618449232
3618456190
3618461195
3618466078
3618473585
3618479750
3618487379
3618491774
3618497084
3618503492
3618508619
3618512892
3618518934
3618524122
3618531935
3618537306
3618544264
3618550673
3618555555
3618561720
3618567030
3618575025
3618582838
3618587171
3618592481
3618599562
3618603529
3618610182
3618615248
3618620985
3618626051
3618633131
3618638258
3618643751
3618648145
3618653516
3618659498
3618663465
3618670179
3618676954
3618681715
3618687391
3618693006
3618697218
3618703504
3618708448
3618713270
3618720533
3618725721
3618731763
3618736829
3618741041
3618746412
3618751722
3618757459
3618762647
3618768873
3618773939
3618780469
3618785291
3618791334
3618795972
3618802259
3618807813
3618815625
3618821485
3618826673
3618832532
3618835767
3618843518
3618848096
3618854077
3618858716
3618866284
3618871228
3618876721
3618882093
3618887525
3618893628
3618896680
3618904492
3618910657
3618916944
3618923657
3618928174
3618934400
3618939221
3618944653
3618948926
3618954785
3618960767
3618967297
3618973340
3618979321
3618985486
3618991956
3618999890
3619006848
3619010815
3619020581
3619026868
3619034436
3619040600
3619047681
3619055005
3619059582
3619068860
3619076306
3619084485
3619090527
3619098706
3619105175
3619111706
3619118603
3619127514
3619131787
3619140576
3619147473
3619159130
3619166333
3619172192
3619180920
3619185498
3619193371
3619201184
3619208508
3619215222
3619222363
3619231152
3619240185
3619250500
3619260693
3619268322
3619276867
3619283520
3619289867
3619298107
3619304638
3619317882
3619325573
3619332592
3619340587
3619346447
3619353710
3619360302
3619366649
3619374706
3619378612
3619388134
3619394787
3619403392
3619410900
3619422374
3619429821
3619442272
3619451000
3619456554
3619464611
3619469005
3619475963
3619486156
3619492809
3619498058
3619508006
3619514476
3619521495
3619527416
3619537242
3619542369
3619551402
3619555797
3619563426
3619571422
3619578868
3619588145
3619592967
3619600536
3619611461
3619619945
3619628856
3619637096
3619645762
3619654307
3619660899
3619667613
3619674205
3619682445
3619687388
3619699107
3619705882
3619711314
3619719554
3619727794
3619737376
3619742320
3619749156
3619757457
3619766795
3619772471
3619777110
3619789256
3619795420
3619805003
3619811289
3619817576
3619825816
3619832224
3619838389
3619846079
3619852000
3619860728
3619865183
3619875376
3619886851
3619894724
3619901133
3619907420
3619913828
3619922190
3619929636
3619932261
3619944102
3619951914
3619961252
3619967905
3619976633
3619984568
3619992380
3620000864
3620009653
3620019236
3620024363
3620033640
3620041941
3620049753
3620058847
3620066294
3620075815
3620080942
3620089060
3620098337
3620104135
3620113657
3620118784
3620128855
3620137705
3620140634
3620152475
3620157602
3620169931
3620176462
3620184579
3620191293
3620198862
3620206247
3620213571
3620219430
3620226694
3620236703
3620242624
3620248178
3620255441
3620260873
3620266244
3620271798
3620277047
3620283029
3620288644
3620294931
3620299142
3620303476
3620310067
3620314584
3620320382
3620326608
3620332162
3620336740
3620342782
3620347177
3620353158
3620358041
3620363961
3620368844
3620373971
3620379525
3620384469
3620390145
3620395333
3620401376
3620406259
3620412728
3620418160
3620426095
3620431100
3620435494
3620442513
3620446664
3620453561
3620458016
3620463815
3620467294
3620476876
3620479989
3620488473
3620493050
3620501290
3620506173
3620513619
3620522774
3620528268
3620533700
3620543404
3620550118
3620556893
3620565804
3620570626
3620583138
3620587899
3620599129
3620605843
3620613350
3620620369
3620626900
3620632821
3620638741
3620646309
3620653206
3620663704
3620671639
3620674019
3620684578
3620690743
3620695687
3620703560
3620710945
3620716683
3620723885
3620734322
3620742561
3620751045
3620757637
3620764717
3620769661
3620777168
3620782906
3620790901
3620795418
3620805061
3620812202
3620818306
3620825569
3620831795
3620839851
3620844002
3620851265
3620858528
3620865852
3620874092
3620882942
3620891121
3620896736
3620909126
3620913643
3620922554
3620929512
3620937690
3620949226
3620951911
3620962226
3620970344
3620975715
3620981941
3620988716
3620995552
3621003181
3621008918
3621017890
3621023628
3621029426
3621035774
3621042976
