3895358130
3895363440
3895369422
3895374671
3895380042
3895385718
3895391028
3895396827
3895403174
3895408240
3895412696
3895418677
3895425391
3895432898
3895438758
3895443457
3895450293
3895455603
3895461219
3895468787
3895476111
3895480811
3895488196
3895496131
3895501563
3895507544
3895516394
3895522925
3895531836
3895537390
3895545813
3895552405
3895559546
3895568457
3895576636
3895583105
3895591284
3895599585
3895606238
3895613928
3895619543
3895627966
3895636450
3895642309
3895650183
3895657873
3895665014
3895672827
3895680578
3895689428
3895696569
3895703527
3895711950
3895717566
3895726171
3895733679
3895742163
3895747656
3895757727
3895763891
3895779028
3895785986
3895795019
3895800146
3895807714
3895815588
3895823827
3895828161
3895838964
3895843542
3895853063
3895861425
3895869787
3895877355
3895885290
3895892065
3895899816
3895907201
3895913244
3895921789
3895928014
3895936559
3895942785
3895952367
3895956640
3895965551
3895971532
3895982824
3895990575
3895998143
3896007482
3896014623
3896021886
3896029882
3896037816
3896044408
3896054051
3896063451
3896071141
3896078954
3896084569
3896094274
3896100194
3896108434
3896116368
3896123814
3896131871
3896138341
3896146519
3896155431
3896162877
3896170567
3896178563
3896185643
3896192723
3896199742
3896207066
3896216099
3896225194
3896232274
3896239476
3896246800
3896253941
3896261937
3896270298
3896277806
3896283909
3896292149
3896298130
3896306614
3896314244
3896323887
3896331089
3896338536
3896345372
3896351597
3896359898
3896365574
3896376377
3896383579
3896390904
3896399510
3896405491
3896413242
3896420200
3896429722
3896444248
3896451817
3896460178
3896468906
3896475010
3896485630
3896492161
3896501987
3896509861
3896516758
3896523533
3896532322
3896538425
3896547214
3896553623
3896564609
3896571445
3896579075
3896587864
3896595310
3896602024
3896609653
3896619052
3896625217
3896631992
3896639987
3896648105
3896654209
3896662631
3896669040
3896677951
3896684177
3896692417
3896699313
3896706760
3896711093
3896722812
3896729770
3896736667
3896743930
3896750583
3896756869
3896763644
3896772067
3896779636
3896786166
3896791659
3896799289
3896804782
3896812472
3896817966
3896828280
3896837558
3896842990
3896851535
3896856723
3896864840
3896872165
3896878878
3896887851
3896894687
3896901339
3896907992
3896914645
3896921298
3896930209
3896935946
3896944308
3896952609
3896959262
3896965609
3896972323
3896978732
3896986239
3896996249
3897001925
3897010348
3897017672
3897024386
3897031649
3897037508
3897046358
3897056124
3897062167
3897072359
3897081454
3897089083
3897098116
3897109164
3897116793
3897123202
3897132052
3897141390
3897147738
3897157076
3897165438
3897173494
3897182406
3897189547
3897198458
3897205965
3897217867
3897226046
3897233431
3897240389
3897248262
3897255892
3897262911
3897270540
3897278108
3897285311
3897292330
3897299226
3897307405
3897314424
3897321809
3897329195
3897337251
3897345186
3897351595
3897359712
3897366304
3897374116
3897380952
3897388826
3897397371
3897404329
3897411470
3897418977
3897426118
3897434114
3897441072
3897450166
3897457612
3897464753
3897472993
3897480500
3897488191
3897493867
3897502229
3897510530
3897517793
3897525300
3897533540
3897541108
3897548127
3897556550
3897563081
3897571015
3897577607
3897584931
3897589631
3897598542
3897604463
3897615632
3897622041
3897628999
3897636445
3897643159
3897649506
3897656281
3897663911
3897672700
3897679841
3897685456
3897694489
3897700165
3897706696
3897711396
3897719636
3897725678
3897731354
3897738434
3897742890
3897749482
3897753998
3897761384
3897767304
3897773285
3897776642
3897783905
3897789399
3897794953
3897801422
3897807648
3897815338
3897821747
3897831085
3897838349
3897846344
3897852631
3897860748
3897867401
3897870880
3897878693
3897884918
3897891022
3897897186
3897903351
3897909882
3897914459
3897920746
3897924713
3897931793
3897937958
3897943634
3897948700
3897955109
3897961456
3897966400
3897972626
3897979523
3897985443
3897991180
3897996979
3898002899
3898009674
3898019378
3898025909
3898031891
3898037323
3898043853
3898048797
3898056671
3898060943
3898066375
3898072113
3898079132
3898085418
3898090667
3898097564
3898104766
3898110565
3898116363
3898122039
3898127716
3898134979
3898141265
3898147857
3898152862
3898158538
3898164031
3898168914
3898175506
3898179901
3898187530
3898192535
3898198028
3898204681
3898210540
3898215850
3898222137
3898226531
3898233123
3898238311
3898243804
3898250335
3898255035
3898262359
3898267669
3898273223
3898279082
3898284148
3898291350
3898296660
3898301055
3898308867
3898315276
3898321685
3898327483
3898334014
3898341277
3898346831
3898353423
3898358184
3898365813
3898370452
3898376860
3898383941
3898389434
3898394805
3898400420
3898405791
3898411284
3898417327
3898423979
3898430266
3898434844
3898442290
3898447417
3898452788
3898458037
3898463713
3898469512
3898476164
3898480559
3898486052
3898492766
3898498747
3898503569
3898509734
3898515593
3898520171
3898526335
3898531218
3898538176
3898542754
3898550383
3898555937
3898561491
3898566862
3898572478
3898578093
3898583647
3898590727
3898595244
3898601958
3898606535
3898613615
3898618376
3898624174
3898630827
3898636320
3898642912
3898647184
3898653715
3898659025
3898665312
3898669706
3898677214
3898684233
3898690275
3898694975
3898700712
3898706083
3898710600
3898719389
3898724699
3898730314
3898736173
3898741850
3898748564
3898751615
3898758879
3898765470
3898771513
3898776945
3898781400
3898788542
3898794401
3898799833
3898806364
3898812040
3898817533
3898822233
3898828397
3898833707
3898839689
3898850431
3898856962
3898863676
3898869718
3898875150
3898883756
3898890104
3898895719
3898901700
3898907255
3898911893
3898917508
3898923734
3898926847
3898934537
3898937589
3898944608
3898950101
3898955472
3898962674
3898967374
3898973539
3898979520
3898984769
3898990567
3898997342
3899002591
3899007352
3899013517
3899019620
3899025052
3899030728
3899036405
3899042508
3899048551
3899054288
3899060697
3899066007
3899070706
3899078031
3899083463
3899090238
3899095426
3899100797
3899107205
3899115567
3899121548
3899128690
3899134305
3899137418
3899145779
3899150906
3899157132
3899163663
3899168301
3899175076
3899180325
3899186124
3899191861
3899197232
3899202908
3899209683
3899215298
3899219327
3899225613
3899231778
3899238431
3899241910
3899248990
3899254971
3899261929
3899266995
3899273220
3899277981
3899283535
3899288723
3899293118
3899300686
3899306851
3899312466
3899317471
3899322598
3899329190
3899333645
3899339199
3899343777
3899350674
3899354946
3899361721
3899365078
3899372036
3899380581
3899386440
3899392117
3899396511
3899406155
3899412319
3899417446
3899422085
3899426357
3899433498
3899438747
3899443325
3899448757
3899453945
3899459133
3899465603
3899470791
3899475918
3899480923
3899486477
3899491604
3899496975
3899503261
3899509548
3899513820
3899519924
3899524135
3899530788
3899536037
3899542080
3899547634
3899553188
3899558864
3899564479
3899570766
3899574550
3899580532
3899586940
3899593654
3899599392
3899604396
3899609584
3899614772
3899620998
3899627223
3899632595
3899636928
3899643093
3899647243
3899653469
3899657802
3899664211
3899670863
3899676296
3899681667
3899686855
3899692104
3899697231
3899702541
3899709132
3899715541
3899719630
3899725124
3899731471
3899736598
3899739772
3899748195
3899754420
3899760219
3899765224
3899770717
3899775539
3899781764
3899786769
3899793788
3899799525
3899805385
3899810634
3899815516
3899820643
3899825953
3899832789
3899839869
3899844325
3899849818
3899854091
3899861415
3899864283
3899871241
3899877650
3899885951
3899891627
3899897792
3899906031
3899912318
3899918910
3899924891
3899930445
3899935877
3899941981
3899946925
3899953395
3899957545
3899964808
3899969630
3899974391
3899980677
3899985682
3899991358
3899996241
3900002955
3900008265
3900012965
3900019251
3900023158
3900028651
3900034693
3900041468
3900045863
3900052088
3900057154
3900062220
3900067164
3900073694
3900079493
3900085291
3900091822
3900096277
3900103052
3900106043
3900114588
3900120142
3900125696
3900131495
3900136316
3900144434
3900150293
3900156214
3900163050
3900169336
3900174402
3900180567
3900185633
3900191187
3900196863
3900203638
3900209436
3900214441
3900218897
3900225855
3900230371
3900237268
3900243006
3900248621
3900254907
3900258875
3900264978
3900270532
3900274927
3900282068
3900288782
3900293909
3900297876
3900303491
3900310266
3900314722
3900322168
3900326746
3900332300
3900339380
3900344446
3900352258
3900357019
3900362878
3900369287
3900373865
3900380823
3900386438
3900391870
3900398523
3900405237
3900411828
3900418969
3900424402
3900431360
3900437158
3900443261
3900449853
3900454858
3900460229
3900465905
3900471643
3900478173
3900484216
3900490380
3900495690
3900501123
3900506127
3900510522
3900514794
3900521325
3900526574
3900531701
3900538781
3900543176
3900549096
3900553430
3900561059
3900567651
3900573693
3900578576
3900584191
3900589440
3900594994
3900601342
3900604821
3900611901
3900618249
3900623315
3900629113
3900633202
3900639367
3900646081
3900652550
3900657494
3900663415
3900668358
3900673546
3900678979
3900684167
3900689355
3900694909
3900701073
3900704796
3900710473
3900716088
3900721764
3900728600
3900734093
3900737023
3900744164
3900749169
3900754418
3900760277
3900766198
3900771935
3900777550
3900783043
3900787316
3900793053
3900797264
3900805504
3900811180
3900816429
3900821739
3900827355
3900831932
3900837364
3900843773
3900848656
3900854881
3900859154
3900864891
3900869103
3900875389
3900880882
3900887962
3900893517
3900900108
3900905968
3900911278
3900920006
3900927208
3900932213
3900940391
3900945396
3900950035
3900956810
3900960655
3900966514
3900972069
3900977684
3900986351
3900991539
3900996971
3901002769
3901008018
3901013511
3901018394
3901023887
3901029075
3901034691
3901038719
3901045372
3901050865
3901056297
3901062706
3901066734
3901073509
3901077903
3901083519
3901091270
3901096641
3901101951
3901106956
3901112388
3901117820
3901121910
3901128013
3901134849
3901139121
3901146812
3901151634
3901156822
3901162254
3901167869
3901174339
3901179954
3901185691
3901190086
3901195396
3901199607
3901205833
3901210349
3901217735
3901223350
3901228416
3901233970
3901239402
3901244712
3901249351
3901256003
3901261314
3901267356
3901273276
3901278342
3901282859
3901290732
3901295615
3901301352
3901307273
3901314902
3901321006
3901325950
3901331931
3901337790
3901342368
3901349143
3901355979
3901361533
3901366904
3901372824
3901379538
3901385642
3901392112
3901396811
3901404319
3901408103
3901416770
3901422873
3901429282
3901436545
3901443503
3901450705
3901455466
3901461386
3901468222
3901473471
3901478598
3901483786
3901489035
3901494528
3901501303
3901505576
3901511862
3901515768
3901521750
3901526511
3901531576
3901536581
3901541464
3901547995
3901553549
3901560385
3901565939
3901571066
3901576498
3901584494
3901588827
3901594382
3901599814
3901606039
3901611532
3901617392
3901624533
3901629416
3901635702
3901641928
3901647055
3901652548
3901659628
3901665853
3901671041
3901676535
3901683187
3901687338
3901693502
3901699362
3901705282
3901709982
3901717245
3901722555
3901727682
3901733297
3901738363
3901743917
3901749960
3901755392
3901761373
3901765768
3901769918
3901776754
3901782247
3901786520
3901793539
3901797994
3901804525
3901808492
3901814718
3901820211
3901825521
3901832662
3901838094
3901843038
3901848592
3901854085
3901859273
3901864644
3901870687
3901875631
3901880697
3901886922
3901890706
3901896627
3901902364
3901907613
3901913472
3901918416
3901924032
3901930684
3901934224
3901943136
3901949117
3901956075
3901962789
3901967305
3901974752
3901980245
3901985616
3901990865
3901994954
3902001180
3902007039
3902012837
3902018086
3902023213
3902027303
3902033345
3902039327
3902044881
3902049520
3902054769
3902059590
3902064900
3902070332
3902076558
3902080769
3902087239
3902091328
3902098470
3902101521
3902109090
3902116658
3902120869
3902126546
3902132283
3902137410
3902142537
3902149495
3902154133
3902160786
3902166340
3902171528
3902177510
3902182637
3902187276
3902195088
3902200581
3902204793
3902210469
3902214680
3902222310
3902225422
3902232563
3902238789
3902244587
3902251179
3902254902
3902260823
3902266316
3902271931
3902276509
3902283467
3902287739
3902294819
3902300190
3902305317
3902310078
3902315815
3902322285
3902327839
3902334919
3902338093
3902346638
3902352497
3902358418
3902363545
3902369404
3902375691
3902378559
3902385212
3902390400
3902396565
3902403278
3902408588
3902414326
3902419880
3902424824
3902430683
3902436848
3902441547
3902449482
3902455463
3902462116
3902468952
3902474262
3902478901
3902485431
3902491413
3902494587
3902501850
3902506733
3902511615
3902517536
3902522968
3902528949
3902533100
3902538410
3902544208
3902549030
3902553791
3902559284
3902565876
3902570392
3902576923
3902582965
3902588275
3902594623
3902601154
3902607990
3902613849
3902619342
3902625385
3902632038
3902637531
3902643695
3902649066
3902655109
3902660236
3902664996
3902669757
3902676532
3902683917
3902689044
3902694843
3902700031
3902706134
3902710162
3902716022
3902722064
3902728473
3902734210
3902739459
3902745013
3902749957
3902754535
3902760394
3902767169
3902773395
3902779315
3902782855
3902791766
3902797259
3902803119
3902809710
3902814593
3902820453
3902825763
3902830829
3902836993
3902843646
3902848773
3902854388
3902860553
3902866046
3902870501
3902874652
3902885516
3902891314
3902897479
3902903582
3902913165
3902918414
3902923724
3902930255
3902936419
3902943011
3902950640
3902957476
3902961077
3902970965
3902978167
3902983050
3902989459
3902994708
3902999468
3903004839
3903010271
3903015643
3903021258
3903025957
3903030901
3903036822
3903041277
3903046465
3903053423
3903058001
3903065264
3903072527
3903078631
3903084551
3903089800
3903095171
3903101458
3903106768
3903112078
3903118548
3903123736
3903129656
3903134905
3903139849
3903145403
3903151018
3903155352
3903162981
3903168169
3903174639
3903181841
3903187334
3903193437
3903200273
3903206011
3903211870
3903217913
3903223406
3903229814
3903235674
3903240984
3903246782
3903252275
3903256731
3903263139
3903267656
3903273760
3903278398
3903284990
3903290666
3903296220
3903301897
3903307268
3903313982
3903319353
3903325090
3903331071
3903336687
3903342790
3903348100
3903354509
3903360734
3903365312
3903371782
3903382829
3903388322
3903393266
3903398942
3903404374
3903409196
3903417192
3903423356
3903427690
3903434404
3903439897
3903445878
3903452104
3903458085
3903468095
3903474076
3903480363
3903486650
3903492936
3903498429
3903504045
3903511430
3903516923
3903522111
3903527421
3903532487
3903538835
3903544450
3903549394
3903554948
3903560990
3903564042
3903571610
3903577348
3903582719
3903588029
3903593339
3903599625
3903603837
3903610001
3903614396
3903620744
3903626969
3903631974
3903637162
3903642289
3903648209
3903653947
3903660660
3903666764
3903671891
3903678177
3903683182
3903688248
3903693863
3903699662
3903704606
3903711075
3903717484
3903722428
3903729020
3903733170
3903739701
3903745316
3903752213
3903757584
3903762711
3903768082
3903773270
3903778580
3903785416
3903790055
3903795487
3903801224
3903807999
3903813126
3903818375
3903823807
3903829727
3903833695
3903840958
3903845902
3903851212
3903857132
3903864700
3903870316
3903877152
3903881363
3903888016
3903892654
3903901138
3903906387
3903911514
3903917557
3903921463
3903927933
3903933487
3903938614
3903945022
3903950760
3903953689
3903962906
3903968704
3903974380
3903981094
3903986282
3903994522
3904000564
3904007156
3904012954
3904017227
3904023880
3904030777
3904035782
3904042190
3904047622
3904052566
3904059036
3904065017
3904071060
3904075943
3904081436
3904086196
3904091506
3904097000
3904101272
3904107376
3904112991
3904115798
3904121963
3904127273
3904132095
3904138076
3904144241
3904149490
3904155715
3904161086
3904167068
3904172744
3904180068
3904187270
3904192886
3904198745
3904204116
3904210159
3904215469
3904221267
3904227370
3904232802
3904238723
3904245620
3904250197
3904256667
3904261916
3904267653
3904274673
3904280288
3904286330
3904292251
3904297561
3904303847
3904309523
3904316054
3904321853
3904327529
3904332839
3904338698
3904344619
3904351393
3904356948
3904362685
3904369033
3904374526
3904380629
3904386306
3904391188
3904399001
3904404738
3904410781
3904416518
3904422072
3904426833
3904434645
3904440260
3904445998
3904451979
3904457716
3904463271
3904468398
3904475783
3904483839
3904489943
3904497755
3904501356
3904509230
3904515944
3904521315
3904528151
3904532118
3904539748
3904546461
3904551588
3904557204
3904562819
3904568312
3904572645
3904579420
3904583998
3904590529
3904593641
3904601332
3904607191
3904612318
3904619337
3904625319
3904630079
3904634413
3904641066
3904650282
3904655409
3904661879
3904667311
3904672682
3904679029
3904685072
3904689527
3904695875
3904701979
3904707105
3904713941
3904718153
3904724928
3904731336
3904737318
3904744215
3904749708
3904753431
3904760084
3904766981
3904772901
3904779249
3904782301
3904789930
3904796644
3904801954
3904808729
3904813489
3904822889
3904829542
3904836195
3904845838
3904851331
3904857191
3904861707
3904868726
3904874341
3904879468
3904884778
3904889722
3904895093
3904901441
3904906995
3904911207
3904917371
3904921460
3904930188
3904934888
3904940320
3904946729
3904952710
3904958387
3904962598
3904969251
3904974195
3904979566
3904986524
3904992444
3905001538
3905008496
3905014661
3905021924
3905028089
3905035413
3905042859
3905048047
3905053662
3905060132
3905066296
3905071362
3905076672
3905081616
3905088452
3905092358
3905099072
3905103345
3905109326
3905115613
3905120618
3905126111
3905131726
3905137036
3905141858
3905147656
3905153699
3905159741
3905164746
3905170056
3905176282
3905181653
3905187695
3905194043
3905199536
3905206433
3905211377
3905218579
3905224804
3905230603
3905235424
3905241467
3905246777
3905252636
3905257214
3905264477
3905269909
3905275280
3905281811
3905288586
3905294079
3905299328
3905303906
3905310681
3905317700
3905328137
3905333203
3905339306
3905344738
3905349987
3905356518
3905361645
3905367687
3905373180
3905380077
3905385265
3905390697
3905395946
3905402355
3905407665
3905413769
3905418102
3905424145
3905431225
3905437633
3905442638
3905449718
3905455395
3905462536
3905469616
3905475902
3905484630
3905489513
3905498241
3905502025
3905510204
3905517711
3905522411
3905527965
3905533519
3905539745
3905543834
3905550731
3905555553
3905560802
3905568126
3905577159
3905585887
3905592418
3905597118
3905602123
3905608653
3905613353
3905618968
3905624523
3905630870
3905636363
3905643382
3905648814
3905654308
3905661876
3905667857
3905673595
3905680492
3905684581
3905691417
3905697948
3905702220
3905709239
3905715953
3905720836
3905726451
3905733409
3905738902
3905745311
3905751842
3905757579
3905763988
3905769603
3905774608
3905780284
3905787852
3905792918
3905798533
3905805308
3905811290
3905818675
3905823253
3905829661
3905835643
3905841502
3905848399
3905854014
3905859324
3905865061
3905871531
3905877330
3905883677
3905888804
3905895518
3905901194
3905906932
3905913401
3905919871
3905924204
3905930247
3905936839
3905942576
3905950022
3905955149
3905963572
3905969065
3905977854
3905990794
3905998911
3906007456
3906015269
3906022654
3906030588
3906038828
3906046213
3906053660
3906060984
3906068613
3906075510
3906081431
3906087717
3906093577
3906099131
3906105295
3906111521
3906117319
3906122873
3906128428
3906133493
3906139780
3906146433
3906151194
3906157541
3906163889
3906169138
3906177194
3906182993
3906187876
3906193552
3906198679
3906204904
3906209482
3906218271
3906223886
3906230417
3906233652
3906241647
3906247507
3906254831
3906259592
3906264597
3906270090
3906277353
3906282663
3906288034
3906295053
3906301157
3906305673
3906311594
3906317880
3906325265
3906330453
3906335947
3906341318
3906346750
3906352853
3906358835
3906365793
3906369333
3906377023
3906383432
3906390024
3906395883
3906401620
3906406259
3906414315
3906420175
3906424264
3906430307
3906437448
3906445077
3906451730
3906457833
3906463754
3906469552
3906475167
3906481515
3906486215
3906492684
3906497933
3906502938
3906507394
3906514840
3906520883
3906528146
3906533944
3906539132
3906546090
3906552010
3906559213
3906563607
3906571053
3906577279
3906583016
3906588631
3906596200
3906602181
3906607308
3906614388
3906619210
3906624703
3906630990
3906635079
3906642464
3906647469
3906652230
3906657967
3906662850
3906669259
3906674386
3906679879
3906684456
3906690133
3906697152
3906702340
3906711190
3906717232
3906721810
3906727425
3906734688
3906739449
3906744942
3906751168
3906755806
3906761971
3906768135
3906773812
3906779854
3906785042
3906790047
3906795479
3906800789
3906806038
3906811165
3906818245
3906823738
3906829537
3906835762
3906840523
3906846260
3906852608
3906856819
3906862984
3906871223
3906876717
3906884712
3906888252
3906895393
3906903206
3906909248
3906915962
3906923592
3906927803
3906935860
3906942390
3906946541
3906954597
3906959968
3906965339
3906971870
3906979133
3906984077
3906992805
3906998542
3907003547
3907009407
3907016060
3907021186
3907027290
3907031562
3907039009
3907044563
3907049873
3907056343
3907060554
3907067390
3907072639
3907078620
3907084419
3907089912
3907095954
3907100837
3907106147
3907111946
3907118354
3907123725
3907129096
3907134162
3907139839
3907145881
3907154365
3907158454
3907165290
3907170173
3907176521
3907181831
3907187995
3907194526
3907200324
3907205268
3907210883
3907216010
3907221198
3907228034
3907233344
3907238898
3907244330
3907250007
3907254096
3907260749
3907266669
3907270698
3907277656
3907282172
3907288947
3907294074
3907299750
3907306342
3907312323
3907317450
3907321967
3907329352
3907332282
3907339362
3907345465
3907352851
3907358222
3907362433
3907368842
3907373358
3907381354
3907389228
3907395941
3907402350
3907407477
3907414069
3907420355
3907425726
3907431830
3907436896
3907441779
3907447272
3907453986
3907459479
3907465094
3907473578
3907478156
3907487250
3907493964
3907499701
3907506049
3907510382
3907518561
3907523382
3907528998
3907534552
3907539374
3907545965
3907551825
3907558172
3907562872
3907569220
3907574286
3907580206
3907586615
3907593512
3907598089
3907603643
3907610052
3907615728
3907620672
3907626593
3907632391
3907640081
3907645575
3907648809
3907656012
3907662298
3907667791
3907673406
3907679327
3907685125
3907691168
3907696356
3907704351
3907710699
3907715399
3907724004
3907729681
3907735418
3907739996
3907745489
3907750494
3907756048
3907762273
3907765203
3907772955
3907775884
3907782049
3907787847
3907793035
3907798406
3907804449
3907811529
3907816411
3907823980
3907827215
3907834783
3907841314
3907845952
3907851873
3907858465
3907865362
3907870366
3907874761
3907881719
3907889104
3907894414
3907900274
3907904485
3907911382
3907917913
3907926091
3907930120
3907939580
3907944219
3907951055
3907956365
3907962041
3907967595
3907973760
3907979314
3907985784
3907991521
3907998479
3908004582
3908010137
3908017339
3908024175
3908030034
3908035588
3908040349
3908046147
3908052800
3908057805
3908062383
3908069035
3908074834
3908080571
3908086552
3908092107
3908098820
3908104802
3908109990
3908116399
3908121709
3908126897
3908133977
3908138981
3908144597
3908150456
3908155888
3908161870
3908167851
3908173466
3908179509
3908185673
3908192997
3908198430
3908201848
3908208867
3908214909
3908220463
3908226139
3908232182
3908239689
3908244145
3908251225
3908254643
3908262638
3908268742
3908275517
3908282047
3908285343
3908293827
3908300175
3908304203
3908310429
3908316471
3908322697
3908327519
3908334660
3908341374
3908346989
3908352238
3908357304
3908363712
3908370609
3908375919
3908381046
3908386723
3908393314
3908397831
3908404484
3908410953
3908416141
3908421451
3908427372
3908433781
3908446964
3908452884
3908459781
3908466495
3908470951
3908477115
3908482425
3908489322
3908495060
3908500553
3908506778
3908512210
3908517643
3908523624
3908533145
3908539981
3908546207
3908551700
3908556339
3908563358
3908568973
3908575626
3908581973
3908587406
3908593509
3908597782
3908604556
3908610599
3908616824
3908621341
3908627139
3908633853
3908639346
3908644595
3908650272
3908655948
3908661380
3908668460
3908674503
3908679446
3908685367
3908691959
3908696414
3908702945
3908708316
3908713809
3908719485
3908726504
3908731448
3908737002
3908743472
3908749515
3908755435
3908760074
3908766910
3908771487
3908779239
3908786136
3908792117
3908796878
3908802737
3908808169
3908812869
3908819888
3908827395
3908831546
3908838137
3908844302
3908849917
3908854129
3908861575
3908868045
3908873782
3908880313
3908885195
3908892153
3908898867
3908904482
3908909854
3908915835
3908921450
3908927737
3908932925
3908938662
3908944582
3908950686
3908955691
3908962038
3908970156
3908976260
3908984316
3908987978
3908998293
3909004519
3909010683
3909016848
3909021487
3909027224
3909031862
3909039370
3909045229
3909050722
3909056948
3909062990
3909068300
3909074709
3909080996
3909086428
3909093447
3909097963
3909104860
3909109621
3909116945
3909120180
3909127321
3909133669
3909139284
3909145327
3909150820
3909155580
3909161745
3909168459
3909174745
3909180727
3909185365
3909191774
3909196352
3909203554
3909209657
3909215151
3909218324
3909226808
3909231813
3909237428
3909243166
3909249269
3909254884
3909260378
3909266969
3909271791
3909279237
3909282716
3909291200
3909294557
3909301637
3909307802
3909313295
3909320680
3909325319
3909332033
3909337953
3909344911
3909351259
3909355104
3909362428
3909367067
3909372804
3909377565
3909385316
3909390565
3909395997
3909401918
3909407411
3909412538
3909418763
3909425843
3909431703
3909436036
3909441651
3909447084
3909453797
3909458741
3909464662
3909470887
3909475038
3909480958
3909487428
3909494569
3909502015
3909505738
3909514039
3909521302
3909525880
3909532838
3909539430
3909544556
3909550843
3909556214
3909561524
3909568116
3909578370
3909585511
3909590821
3909597230
3909602906
3909608277
3909615479
3909620789
3909626771
3909632996
3909638489
3909644288
3909651307
3909658204
3909663392
3909669922
3909674866
3909681458
3909687012
3909692872
3909699830
3909705750
3909711426
3909717774
3909723450
3909729676
3909735108
3909739258
3909745972
3909753052
3909759217
3909765869
3909774292
3909779663
3909784668
3909790955
3909796753
3909802185
3909808777
3909814880
3909821045
3909825256
3909831543
3909838684
3909844116
3909849365
3909855774
3909861084
3909867310
3909873657
3909880249
3909886169
3909891724
3909897034
3909902527
3909908447
3909915466
3909920410
3909926819
3909931824
3909938049
3909944885
3909950378
3909956054
3909962890
3909968933
3909975708
3909983154
3909989135
3909996338
3910003662
3910009033
3910013671
3910019714
3910026001
3910033081
3910038330
3910044799
3910049011
3910054870
3910062744
3910069335
3910075317
3910080932
3910087036
3910092590
3910097900
3910104247
3910110290
3910116149
3910122985
3910128417
3910133605
3910138915
3910145019
3910149535
3910157592
3910166625
3910170959
3910177856
3910183349
3910188110
3910195312
3910201415
3910206969
3910212401
3910216918
3910223205
3910230346
3910236327
3910242858
3910249999
3910255553
3910262511
3910267516
3910272704
3910278869
3910285338
3910291503
3910296080
3910304442
3910309874
3910316100
3910322753
3910327880
3910334349
3910340392
3910346739
3910351134
3910357665
3910363829
3910371581
3910379759
3910386046
3910393370
3910398497
3910405943
3910411253
3910417174
3910422972
3910429686
3910435057
3910440306
3910445860
3910452086
3910457945
3910464720
3910472472
3910477110
3910484801
3910491026
3910496702
3910502562
3910508116
3910513609
3910517882
3910525206
3910530760
3910535460
3910543272
3910550169
3910556700
3910564329
3910570128
3910576719
3910582640
3910588011
3910593565
3910599119
3910604063
3910609678
3910614561
3910621336
3910626768
3910630125
3910637144
3910643003
3910648130
3910654112
3910659605
3910665281
3910671202
3910676756
3910680906
3910687986
3910691160
3910697996
3910705259
3910710935
3910716306
3910721372
3910726682
3910732420
3910739195
3910743833
3910750364
3910755918
3910761045
3910766294
3910771299
3910776304
3910781980
3910788267
3910794370
3910799436
3910804929
3910809629
3910814084
3910820371
3910828000
3910833433
3910838132
3910843076
3910848691
3910854307
3910859128
3910865781
3910871702
3910876584
3910884214
3910890744
3910896543
3910902646
3910907102
3910913999
3910918454
3910926389
3910931150
3910936460
3910942746
3910948484
3910953610
3910960813
3910965940
3910973813
3910979733
3910986203
3910993161
3910999387
3911006772
3911011716
3911017514
3911021481
3911028012
3911034848
3911040463
3911045224
3911052609
3911059872
3911067136
3911073300
3911081113
3911085995
3911092831
3911097958
3911103329
3911108334
3911113766
3911119748
3911124936
3911131100
3911136227
3911143124
3911148739
3911154355
3911159054
3911165646
3911169980
3911177121
3911179989
3911187558
3911191891
3911199398
3911206112
3911210385
3911216732
3911219906
3911226559
3911231747
3911237423
3911243527
3911249569
3911254269
3911259823
3911265194
3911269589
3911275265
3911279904
3911286801
3911292355
3911297421
3911302242
3911307308
3911313656
3911318173
3911325802
3911331600
3911336483
3911340878
3911348141
3911351131
3911359676
3911365780
3911371395
3911376583
3911381832
3911388058
3911391964
3911397823
3911404842
3911410885
3911416561
3911422664
3911429561
3911433651
3911440365
3911445675
3911452694
3911459713
3911466182
3911471553
3911478511
3911483944
3911493221
3911500423
3911505428
3911513485
3911520381
3911526424
3911531978
3911537532
3911544124
3911550472
3911556148
3911561885
3911568843
3911577388
3911585201
3911590938
3911598079
3911603694
3911610225
3911616817
3911621822
3911629817
3911637874
3911646663
3911653743
3911661800
3911667293
3911674617
3911679744
3911686519
3911692500
3911698787
3911705195
3911711177
3911717769
3911724483
3911731013
3911735286
3911743037
3911749629
3911757014
3911762019
3911768916
3911773799
3911780146
3911786921
3911791255
3911798091
3911803950
3911809748
3911816340
3911820735
3911827815
3911833735
3911839228
3911845088
3911853572
3911859004
3911865107
3911871394
3911876399
3911882319
3911889277
3911895258
3911901484
3911907343
3911914240
3911919795
3911923884
3911930659
3911935969
3911941889
3911948542
3911954707
3911960322
3911967036
3911972346
3911978022
3911985712
3911990778
3911999140
3912007990
3912015253
3912021174
3912027460
3912033320
3912038813
3912045771
3912051386
3912056269
3912062616
3912068293
3912076471
3912084467
3912090265
3912094477
3912101557
3912105036
3912111933
3912116999
3912122858
3912128473
3912132929
3912138666
3912142877
3912149347
3912153498
3912160272
3912166193
3912172602
3912178034
3912181696
3912188287
3912193537
3912198969
3912203546
3912209894
3912214777
3912221124
3912226617
3912231683
3912236993
3912241083
3912246759
3912251825
3912257623
3912263177
3912270013
3912274591
3912280817
3912288324
3912293817
3912298212
3912304620
3912308954
3912314142
3912319513
3912326288
3912332818
3912337457
3912342523
3912348687
3912353753
3912358575
3912363946
3912371515
3912376031
3912381952
3912387384
3912393487
3912397454
3912403192
3912409356
3912415765
3912419427
3912426324
3912431939
3912437066
3912439996
3912447686
3912454705
3912459100
3912465753
3912469659
3912475335
3912481561
3912486749
3912491387
3912498712
3912505792
3912511163
3912516961
3912522759
3912528619
3912534539
3912540093
3912544427
3912551568
3912554681
3912561455
3912566949
3912572259
3912578179
3912582879
3912590813
3912595940
3912602654
3912606927
3912612969
3912619011
3912625359
3912630547
3912635735
3912640984
3912646111
3912651116
3912656426
3912662774
3912667656
3912674065
3912678460
3912685784
3912692192
3912698601
3912705925
3912709771
3912715935
3912720085
3912726311
3912731987
3912737786
3912742180
3912748528
3912754997
3912760124
3912764519
3912770989
3912775505
3912780937
3912788017
3912793144
3912798515
3912802910
3912809868
3912812798
3912819817
3912826469
3912831963
3912837090
3912842155
3912846977
3912852043
3912857414
3912863274
3912869438
3912874016
3912881462
3912887871
3912893669
3912899956
3912905022
3912911491
3912918083
3912923515
3912929313
3912933586
3912939811
3912944328
3912951408
3912956291
3912961540
3912967155
3912972343
3912978264
3912982536
3912989677
3912995903
3913000846
3913007011
3913011344
3913015800
3913024833
3913030815
3913036857
3913042716
3913049003
3913054740
3913060905
3913066154
3913071159
3913076713
3913083366
3913087577
3913093986
3913100150
3913106986
3913112296
3913117912
3913124564
3913128471
3913135612
3913140006
3913145133
3913153312
3913158683
3913163688
3913168815
3913174125
3913179191
3913184684
3913189384
3913196708
3913202567
3913207633
3913211844
3913218558
3913223380
3913230216
3913235465
3913241202
3913247245
3913253531
3913259025
3913265494
3913269767
3913276969
3913282462
3913288504
3913292777
3913299491
3913304190
3913310294
3913317130
3913322501
3913327933
3913334464
3913339408
3913345572
3913351981
3913358206
3913363394
3913368582
3913374991
3913380606
3913387808
3913394766
3913400504
3913406607
3913413931
3913418326
3913425650
3913431265
3913439017
3913444388
3913450308
3913456351
3913462332
3913468252
3913474478
3913479422
3913486319
3913491873
3913497244
3913503287
3913510855
3913517325
3913523123
3913528982
3913536734
3913543020
3913549978
3913555288
3913561880
3913567251
3913573111
3913576284
3913580984
3913584768
3913590567
3913595022
3913601126
3913605581
3913610403
3913615286
3913619497
3913624746
3913627798
3913632559
3913636892
3913641348
3913645620
3913650686
3913654043
3913657949
3913660818
3913668081
3913675039
3913678823
3913683950
3913687734
3913692190
3913696584
3913701101
3913705679
3913709768
3913712209
3913717519
3913723562
3913727407
3913732168
3913736196
3913741140
3913745168
3913750112
3913753774
3913758779
3913764028
3913767873
3913772146
3913777395
3913782278
3913786550
3913790822
3913795400
3913798574
3913803945
3913808462
3913813161
3913818776
3913825979
3913829580
3913834035
3913837514
3913843435
3913849416
3913853750
3913858144
3913863515
3913867482
3913872060
3913877553
3913881337
3913885671
3913891286
3913895986
3913901235
3913906972
3913912038
3913917958
3913922170
3913927297
3913931142
3913936818
3913942006
3913946095
3913950368
3913955190
3913960622
3913964345
3913969899
3913974660
3913981130
3913983693
3913991078
3913995046
3913999806
3914004262
3914008229
3914015004
3914018788
3914023488
3914027150
3914032399
3914036061
3914041188
3914047292
3914052113
3914056630
3914061085
3914065358
3914069752
3914074025
3914078664
3914083790
3914087697
3914092518
3914097279
3914102650
3914106251
3914111744
3914118519
3914123768
3914128102
3914134450
3914138356
3914144276
3914149586
3914154286
3914159962
3914165028
3914170704
3914175282
3914180653
3914185109
3914190174
3914195729
3914202137
3914208851
3914213551
3914218678
3914224354
3914227772
3914234547
3914237843
3914244740
3914250416
3914256947
3914262562
3914266895
3914271107
3914277577
3914283558
3914288319
3914293018
3914301502
3914306934
3914312550
3914318348
3914322742
3914329029
3914334705
3914341480
3914347218
3914353382
3914357777
3914363270
3914369373
3914373707
3914379322
3914385120
3914389210
3914396961
3914400379
3914409534
3914413990
3914420948
3914426136
3914433277
3914438648
3914446644
3914449878
3914456775
3914459827
3914467518
3914470813
3914476551
3914481250
3914488453
3914491993
3914500598
3914504200
3914512867
3914517627
3914523487
3914529163
3914535938
3914539234
3914545825
3914551196
3914555164
3914560718
3914566516
3914571216
3914577381
3914581043
3914588855
3914594104
3914599841
3914604846
3914609729
3914616138
3914624988
3914633594
3914639819
3914647571
3914653308
3914659961
3914665271
3914671313
3914675525
3914682117
3914687732
3914695300
3914701709
3914709216
3914714892
3914720691
3914724719
3914730334
3914735583
3914741015
3914745349
3914750354
3914756274
3914761950
3914766406
3914769763
3914777514
3914781726
3914788073
3914791308
3914798144
3914804858
3914809497
3914814196
3914819934
3914824816
3914830371
3914836535
3914840991
3914848864
3914853930
3914860644
3914865771
3914870043
3914876391
3914880847
3914887255
3914894030
3914900073
3914904650
3914910204
3914915881
3914920824
3914926379
3914931872
3914937121
3914944384
3914950182
3914953539
3914960314
3914965075
3914969958
3914976671
3914983324
3914989245
3914999193
3915005602
3915010790
3915016649
3915022020
3915027331
3915031603
3915038500
3915042711
3915047899
3915053576
3915058703
3915064379
3915066393
3915074450
3915081163
3915086901
3915089891
3915096605
3915101061
3915106249
3915110826
3915116503
3915123033
3915128893
3915135057
3915139513
3915145616
3915150743
3915155138
3915161058
3915168138
3915173570
3915179247
3915184435
3915188890
3915194933
3915199266
3915204332
3915210069
3915215623
3915221056
3915225938
3915231737
3915238329
3915242723
3915248888
3915253465
3915261156
3915265672
3915271348
3915276964
3915282518
3915287218
3915292894
3915298753
3915302965
3915309617
3915315599
3915319383
3915325731
3915329027
3915336595
3915341539
3915346849
3915352830
3915359788
3915364549
3915370774
3915376085
3915382798
3915388292
3915396287
3915401292
3915410997
3915417344
3915422044
3915425584
3915433641
3915437852
3915445298
3915452500
3915458238
3915463304
3915468797
3915473679
3915479722
3915484849
3915491807
3915497971
3915503465
3915509629
3915514085
3915520371
3915524766
3915531358
3915536118
3915544480
3915555833
3915562730
3915570237
3915575791
3915579636
3915588486
3915594224
3915600266
3915605759
3915610093
3915616257
3915620774
3915625474
3915631943
3915636826
3915643845
3915647324
3915655442
3915661057
3915667649
3915676682
3915686020
3915694199
3915702988
3915710312
3915717575
3915722336
3915728256
3915733017
3915738877
3915743393
3915750229
3915754990
3915759934
3915765976
3915770432
3915776718
3915781723
3915787155
3915794785
3915798935
3915803818
3915809921
3915814804
3915820724
3915827316
3915833237
3915839340
3915844284
3915850510
3915855392
3915861313
3915867050
3915871811
3915877975
3915882675
3915888901
3915894272
3915900131
3915903671
3915909591
3915914474
3915920822
3915926010
3915932724
3915938095
3915943588
3915948959
3915954452
3915959030
3915964828
3915969589
3915976974
3915981735
3915987716
3915994064
3915998825
3916004257
3916007797
3916014816
3916023788
3916028610
3916034286
3916038742
3916042098
3916049667
3916054611
3916061263
3916067489
3916073226
3916079269
3916083419
3916088546
3916093917
3916097457
3916104781
3916112289
3916116805
3916123641
3916128402
3916134505
3916139938
3916143722
3916152450
3916158614
3916165877
3916171554
3916180587
3916185103
3916190841
3916195296
3916201461
3916208907
3916215499
3916221724
3916227340
3916232345
3916238143
3916243880
3916249068
3916258773
3916264449
3916269881
3916273970
3916280379
3916285811
3916289168
3916296309
3916303511
3916309188
3916313826
3916317977
3916323775
3916329817
3916333113
3916340376
3916347640
3916354048
3916360518
3916364790
3916370528
3916376204
3916379622
3916386336
3916391036
3916399825
3916403426
3916409834
3916414656
3916421248
3916426192
3916430891
3916436507
3916444319
3916449568
3916454268
3916459822
3916464949
3916470503
3916475630
3916481611
3916487349
3916493696
3916499495
3916503828
3916509932
3916515547
3916518965
3916525313
3916532332
3916538435
3916542097
3916549238
3916552534
3916559370
3916564192
3916569685
3916574812
3916582380
3916587629
3916594526
3916599714
3916605940
3916610639
3916615766
3916620283
3916629072
3916633467
3916639387
3916644209
3916650800
3916656355
3916660627
3916667158
3916673689
3916680463
3916685529
3916691877
3916697370
3916702314
3916705915
3916712934
3916720380
3916726362
3916735090
3916741437
3916747480
3916754743
3916760358
3916766767
3916772870
3916777692
3916782758
3916789228
3916795148
3916800092
3916805768
3916810712
3916817243
3916822736
3916829267
3916835187
3916841901
3916846174
3916851850
3916856672
3916863568
3916871442
3916875043
3916881269
3916886823
3916890973
3916896466
3916902509
3916908551
3916913129
3916918622
3916924176
3916928693
3916934552
3916937909
3916945966
3916952741
3916957257
3916963178
3916969525
3916973065
3916979840
3916985333
3916989850
3916995160
3917002545
3917009381
3917016522
3917020062
3917028119
3917035077
3917041058
3917045636
3917051190
3917056378
3917063031
3917069440
3917075177
3917080609
3917085065
3917089886
3917098248
3917103314
3917108990
3917112286
3917119366
3917124493
3917130597
3917136395
3917143780
3917147808
3917155377
3917160748
3917166241
3917170880
3917177777
3917183331
3917189373
3917196148
3917201397
3917206646
3917210491
3917219342
3917223248
3917230206
3917236065
3917241924
3917247784
3917255291
3917261334
3917269940
3917276470
3917284100
3917292645
3917299236
3917306744
3917315472
3917322674
3917327862
3917338482
3917347088
3917352337
3917364544
3917374676
3917382915
3917389202
3917396160
3917404155
3917413433
3917419536
3917426311
3917432415
3917438457
3917449504
3917455425
3917464092
3917470989
3917477947
3917484233
3917491558
3917498882
3917505352
3917515361
3917522380
3917530864
3917536907
3917542339
3917549114
3917555889
3917560954
3917566387
3917575053
3917580364
3917586284
3917588176
3917596172
3917600749
3917609355
3917613750
3917622539
3917627910
3917632121
3917637736
3917643474
3917647136
3917653850
3917659587
3917669414
3917675517
3917679973
3917686076
3917690593
3917696757
3917701579
3917709208
3917714885
3917721660
3917725871
3917732097
3917738078
3917743876
3917748454
3917755595
3917760234
3917765361
3917771098
3917777201
3917781657
3917788127
3917792704
3917798930
3917804911
3917810771
3917815470
3917822123
3917826396
3917831095
3917837199
3917845011
3917849955
3917855876
3917860758
3917866129
3917871989
3917876749
3917882609
3917888712
3917894572
3917900248
3917908121
3917911662
3917919108
3917922953
3917929911
3917934794
3917940836
3917947001
3917951639
3917955424
3917963053
3917966471
3917974100
3917982401
3917988871
3917994608
3918000467
3918008097
3918013773
3918020914
3918028360
3918034891
3918039164
3918044901
3918051065
3918056376
3918060648
3918066080
3918072306
3918078287
3918083292
3918088907
3918094889
3918100016
3918105753
3918111673
3918117838
3918124002
3918128824
3918135172
3918141336
3918146951
3918151163
3918157327
3918161783
3918170938
3918175943
3918179300
3918187601
3918190958
3918197488
3918202432
3918208047
3918214578
3918221048
3918225931
3918232889
3918236795
3918244668
3918248392
3918257181
3918261941
3918269327
3918275613
3918281839
3918286233
3918292337
3918297586
3918303811
3918309244
3918316018
3918320901
3918327188
3918332071
3918336892
3918343606
3918349038
3918354593
3918360452
3918367349
3918372842
3918378945
3918381082
3918389627
3918393594
3918401773
3918405496
3918412820
3918417947
3918424966
3918430215
3918435586
3918440530
3918447732
3918453042
3918460305
3918465310
3918470803
3918477761
3918481728
3918489602
3918495889
3918500466
3918507058
3918514870
3918520242
3918525246
3918530617
3918537392
3918543740
3918548684
3918555398
3918563149
3918569680
3918574685
3918581338
3918585427
3918591469
3918596779
3918603127
3918609108
3918619545
3918624855
3918630776
3918635415
3918642800
3918648537
3918654030
3918660317
3918667031
3918671608
3918677651
3918682106
3918688271
3918692665
3918696205
3918705544
3918712319
3918723671
3918731117
3918734780
3918743813
3918751625
3918757240
3918761818
3918767006
3918771767
3918777199
3918781288
3918787087
3918795021
3918799843
3918803078
3918809975
3918814857
3918821022
3918825722
3918832130
3918837929
3918844459
3918849769
3918856361
3918861488
3918869179
3918873146
3918881386
3918885719
3918892067
3918897011
3918904823
3918908668
3918916420
3918921486
3918928627
3918932289
3918939674
3918945594
3918950660
3918955909
3918963417
3918967079
3918974037
3918979591
3918987648
3918993202
3918999366
3919002784
3919010230
3919013587
3919020423
3919026466
3919032752
3919039588
3919044471
3919050514
3919054908
3919063636
3919073463
3919082679
3919089088
3919095130
3919099769
3919106055
3919111915
3919117530
3919122901
3919129188
3919136573
3919141334
3919148353
3919154151
3919158912
3919164222
3919173133
3919179053
3919187781
3919194861
3919201819
3919207190
3919215308
3919220435
3919229346
3919234534
3919237708
3919244788
3919248023
3919254493
3919259192
3919264563
3919269995
3919277564
3919281470
3919289160
3919293128
3919302649
3919306189
3919312781
3919316321
3919324256
3919330603
3919337378
3919342993
3919349219
3919354651
3919359595
3919366980
3919371741
3919377783
3919383521
3919387488
3919393835
3919397498
3919403845
3919410315
3919417639
3919423743
3919429907
3919433813
3919441443
3919445166
3919454748
3919460364
3919465857
3919471045
3919476843
3919481665
3919487341
3919490515
3919498022
3919504675
3919510717
3919514685
3919521521
3919525122
3919533300
3919536963
3919544226
3919549231
3919554235
3919559729
3919565588
3919571264
3919576513
3919582006
3919587500
3919591833
3919600073
3919605139
3919611181
3919616735
3919620642
3919626379
3919629553
3919636266
3919642553
3919648901
3919652502
3919659033
3919663549
3919668737
3919673071
3919679357
3919684362
3919689855
3919696325
3919701330
3919705541
3919711034
3919716833
3919722265
3919726415
3919734228
3919739721
3919741613
3919749486
3919752782
3919760168
3919763280
3919773717
3919781347
3919788305
3919796056
3919801610
3919805639
3919810216
3919817479
3919822728
3919827367
3919833471
3919836400
3919842626
3919845617
3919852636
3919859533
3919864110
3919870153
3919875768
3919880345
3919884435
3919890477
3919895909
3919902135
3919904759
3919913121
3919918248
3919924413
3919928929
3919933812
3919940343
3919946813
3919950902
3919957433
3919961095
3919966527
3919973241
3919979588
3919984593
3919989842
3919996190
3920001805
3920005955
3920014073
3920019078
3920025365
3920030369
3920036046
3920040684
3920047948
3920053563
3920058568
3920062779
3920069493
3920075902
3920081212
3920085789
3920092503
3920097996
3920105076
3920111912
3920117527
3920122227
3920127232
3920132603
3920137974
3920142369
3920146214
3920154881
3920158787
3920165806
3920169468
3920175144
3920178501
3920184361
3920190403
3920196812
3920202061
3920208714
3920213474
3920218968
3920223240
3920228916
3920234837
3920240086
3920246616
3920252232
3920256504
3920262425
3920266514
3920271397
3920277073
3920284580
3920289890
3920295139
3920302219
3920307774
3920317905
3920327000
3920333958
3920342441
3920346958
3920353428
3920359104
3920364475
3920370029
3920374790
3920381870
3920386204
3920391514
3920397861
3920405002
3920410190
3920415073
3920422092
3920428257
3920433384
3920438572
3920444919
3920449436
3920454624
3920461032
3920465915
3920471958
3920476413
3920483737
3920489475
3920494480
3920499362
3920504245
3920509372
3920516940
3920521823
3920526767
3920533725
3920539401
3920545566
3920550082
3920556613
3920561862
3920568576
3920572421
3920579562
3920582858
3920590610
3920596347
3920603061
3920608554
3920614352
3920620883
3920626071
3920631930
3920637363
3920644137
3920648105
3920656100
3920663547
3920670138
3920675326
3920681613
3920690402
3920694125
3920701205
3920708407
3920714633
3920720675
3920727877
3920733371
3920740268
3920746066
3920750155
3920757296
3920763888
3920768344
3920774813
3920780429
3920786776
3920793673
3920799105
3920803927
3920809542
3920814852
3920821932
3920827670
3920833407
3920838839
3920843173
3920849093
3920854525
3920865023
3920873629
3920877901
3920884737
3920889620
3920895785
3920899996
3920907381
3920913668
3920919222
3920923373
3920929842
3920934420
3920940401
3920945711
3920954012
3920959383
3920965182
3920969759
3920975619
3920980013
3920985262
3920990694
3920999910
3921004854
3921010531
3921016512
3921019808
3921027254
3921032137
3921038546
3921044466
3921048799
3921052034
3921059725
3921063082
3921070345
3921077974
3921083589
3921086885
3921093843
3921098665
3921104097
3921108736
3921115511
3921121797
3921128267
3921133638
3921138460
3921143282
3921150179
3921156404
3921158479
3921167268
3921172456
3921181551
3921186128
3921191988
3921197664
3921204134
3921209322
3921215974
3921222322
3921229158
3921234285
3921240327
3921245149
3921251497
3921256257
3921260042
3921268525
3921274690
3921281099
3921286592
3921292695
3921298433
3921304475
3921309114
3921313508
3921321138
3921325715
3921329255
3921336702
3921339997
3921347932
3921352266
3921357637
3921363862
3921369355
3921373872
3921378388
3921384797
3921388948
3921395356
3921399995
3921409455
3921415742
3921423005
3921428925
3921436494
3921442353
3921449006
3921457002
3921465974
3921470429
3921476350
3921480866
3921484101
3921492036
3921495515
3921503083
3921509492
3921515717
3921520966
3921525361
3921531769
3921536835
3921543000
3921550385
3921555329
3921560395
3921565644
3921572114
3921577302
3921585602
3921589020
3921595856
3921601471
3921608124
3921612946
3921619904
3921623627
3921630707
3921634064
3921642182
3921650299
3921654450
3921660248
3921666596
3921672394
3921678131
3921680084
3921688629
3921694428
3921698761
3921705048
3921710663
3921714325
3921721039
3921726166
3921733307
3921740326
3921746674
3921751923
3921757843
3921763336
3921769989
3921774750
3921779511
3921784821
3921792999
3921797943
3921803925
3921808685
3921815155
3921820953
3921827118
3921832062
3921838409
3921844208
3921850189
3921854828
3921861847
3921866363
3921873504
3921878570
3921886078
3921891082
3921897552
3921902252
3921905853
3921913910
3921917694
3921925995
3921929962
3921937347
3921943206
3921948883
3921955535
3921960113
3921966888
3921972503
3921977386
3921986358
3921991729
3921996734
3922003204
3922009551
3922014373
3922020355
3922024993
3922031219
3922040130
3922047027
3922056060
3922065582
3922072051
3922079009
3922083892
3922091155
3922096831
3922102996
3922107574
3922115508
3922121490
3922127349
3922133819
3922139495
3922147674
3922152312
3922156768
3922163360
3922167693
3922174590
3922179168
3922185393
3922191985
3922197783
3922202239
3922208220
3922212737
3922218291
3922224089
3922227813
3922235625
3922238921
3922246917
3922250273
3922256560
3922261382
3922266631
3922272490
3922280669
3922284392
3922292205
3922296050
3922304839
3922308928
3922316313
3922324126
3922332121
3922336089
3922343352
3922348662
3922354765
3922360014
3922365202
3922370024
3922377531
3922383208
3922390166
3922394865
3922401701
3922406523
3922410063
3922418486
3922422758
3922430937
3922435087
3922444670
3922448942
3922457731
3922463103
3922470549
3922477202
3922485258
3922492399
3922500395
3922510222
3922513701
3922524443
3922530790
3922540434
3922550077
3922559538
3922564543
3922573820
3922581449
3922588102
3922594877
3922605070
3922612394
3922619901
3922628690
3922635832
3922641996
3922649686
3922657682
3922660612
3922671293
3922680814
3922693021
3922700529
3922707853
3922715055
3922723966
3922729703
3922738309
3922748197
3922759977
3922766752
3922769498
3922778776
3922783902
3922792142
3922798307
3922805570
3922812162
3922821195
3922828031
3922835416
3922842313
3922847379
3922858670
3922867154
3922873380
3922879422
3922886930
3922895047
3922901151
3922905728
3922911466
3922919400
3922924771
3922930875
3922936429
3922943387
3922948331
3922953214
3922957669
3922964444
3922968777
3922974393
3922980557
3922989651
3922994595
3923000699
3923005582
3923012723
3923017789
3923024136
3923029385
3923035306
3923040555
3923047635
3923051602
3923059353
3923065396
3923071805
3923077725
3923085049
3923091458
3923098416
3923104214
3923110745
3923116299
3923122342
3923127896
3923133877
3923139004
3923146878
3923152798
3923157742
3923162136
3923168728
3923175442
3923181423
3923186489
3923191494
3923197781
3923202297
3923209011
3923214565
3923219082
3923226833
3923233181
3923239407
3923244106
3923251247
3923255886
3923259548
3923268215
3923273830
3923283596
3923288479
3923295376
3923301296
3923305569
3923309109
3923316494
3923323513
3923330654
3923335415
3923340175
3923346401
3923350918
3923356777
3923363613
3923371059
3923377773
3923387661
3923394375
3923400112
3923403591
3923411464
3923415920
3923423793
3923429103
3923435390
3923438869
3923446559
3923452114
3923457790
3923464321
3923471645
3923476894
3923481655
3923488124
3923492946
3923498805
3923504543
3923511257
3923516811
3923522365
3923528774
3923534023
3923539027
3923544154
3923548732
3923555629
3923560207
3923566249
3923570522
3923577541
3923581874
3923587550
3923591884
3923600734
3923605311
3923608729
3923616603
3923620265
3923627284
3923632045
3923637599
3923643947
3923652064
3923657802
3923663539
3923668727
3923675746
3923681483
3923686976
3923693263
3923701503
3923707667
3923711268
3923719691
3923723475
3923730555
3923735438
3923741236
3923747096
3923754176
3923757838
3923765284
3923768824
3923775599
3923781947
3923787623
3923793482
3923799342
3923804713
3923810206
3923816371
3923821681
3923827906
3923832972
3923837306
3923845118
3923852015
3923855738
3923863306
3923867274
3923875697
3923879725
3923889551
3923895960
3923903467
3923909205
3923915613
3923921839
3923926722
3923930506
3923938807
3923943628
3923952418
3923957789
3923964686
3923972254
3923978846
3923988550
3923994898
3924001612
3924006739
3924012537
3924018213
3924023279
3924029505
3924034265
3924040125
3924047388
3924052271
3924055811
3924063196
3924068933
3924075830
3924081568
3924087183
3924093042
3924099390
3924104212
3924109827
3924114710
3924120569
3924123987
3924130823
3924137415
3924142236
3924147119
3924153955
3924159387
3924164941
3924170251
3924175684
3924180444
3924188745
3924194055
3924198877
3924204980
3924209070
3924214807
3924220727
3924225244
3924232873
3924237390
3924243493
3924248010
3924253076
3924258874
3924264245
3924268823
3924276696
3924282922
3924288232
3924292993
3924298242
3924305200
3924310571
3924316491
3924322107
3924328942
3924334741
3924339563
3924346521
3924352380
3924356896
3924363305
3924368005
3924372094
3924381249
3924384973
3924393334
3924397363
3924405847
3924409814
3924419457
3924422143
3924431542
3924436974
3924443505
3924450219
3924454675
3924460229
3924465112
3924474877
3924480798
3924487206
3924492272
3924498315
3924504784
3924510216
3924514733
3924522179
3924527245
3924534325
3924539696
3924545678
3924550072
3924556420
3924559716
3924570336
3924577660
3924583580
3924590172
3924596276
3924601708
3924605126
3924612816
3924618676
3924627098
3924630883
3924638268
3924641503
3924648278
3924653832
3924658776
3924664086
3924670006
3924678612
3924684288
3924686119
3924694237
3924698754
3924706383
3924713524
3924718285
3924721886
3924730003
3924733666
3924741600
3924745384
3924753746
3924757713
3924766563
3924771812
3924776207
3924779686
3924787254
3924790550
3924797203
3924803062
3924810142
3924815513
3924822044
3924826927
3924831444
3924837669
3924842430
3924847191
3924855308
3924862083
3924868065
3924872764
3924876426
3924885093
3924888817
3924895347
3924901878
3924909568
3924915428
3924920677
3924925682
3924932395
3924938560
3924944419
3924949363
3924956260
3924962791
3924967430
3924974327
3924980796
3924985862
3924991599
3924998313
3925004173
3925012046
3925017783
3925022544
3925028709
3925034141
3925038963
3925044273
3925050498
3925058250
3925063132
3925066734
3925074302
3925081809
3925086753
3925093101
3925097983
3925105430
3925110374
3925114341
3925123374
3925127219
3925134727
3925140159
3925145591
3925150535
3925159568
3925164695
3925171409
