3621614507
3621620794
3621625433
3621630926
3621635198
3621640814
3621645635
3621651617
3621656988
3621661565
3621666814
3621671941
3621677984
3621682806
3621688848
3621694097
3621701055
3621706121
3621712224
3621718084
3621724248
3621730169
3621736089
3621742010
3621746465
3621753423
3621761175
3621768255
3621774724
3621780279
3621787847
3621792974
3621801091
3621808477
3621815252
3621823308
3621828862
3621836248
3621843938
3621851445
3621858953
3621864995
3621872014
3621878118
3621885381
3621893071
3621898381
3621906194
3621913579
3621920354
3621926274
3621933293
3621942082
3621949712
3621958684
3621966740
3621973759
3621981938
3621989812
3621998845
3622007756
3622015019
3622022954
3622030156
3622037358
3622045476
3622050725
3622057133
3622065739
3622072880
3622080754
3622088017
3622094182
3622103703
3622110661
3622117192
3622125737
3622131535
3622137455
3622146672
3622153691
3622161442
3622168217
3622175236
3622181950
3622188542
3622195500
3622203190
3622210026
3622218449
3622225163
3622231510
3622238224
3622245243
3622253483
3622259525
3622266605
3622274235
3622280827
3622288517
3622295414
3622303165
3622310184
3622317570
3622324528
3622332706
3622340519
3622346439
3622355228
3622360599
3622369755
3622375309
3622384586
3622389896
3622398685
3622404789
3622412967
3622420902
3622425479
3622435245
3622442630
3622448795
3622456913
3622463199
3622470462
3622478397
3622486087
3622492313
3622501834
3622508548
3622515628
3622522037
3622529117
3622535587
3622542117
3622548770
3622558231
3622564639
3622570865
3622577212
3622583987
3622590579
3622597842
3622605044
3622611819
3622619083
3622627383
3622635440
3622644473
3622653811
3622662600
3622672122
3622679934
3622687747
3622695681
3622706546
3622713076
3622722842
3622729983
3622737002
3622745669
3622752749
3622759524
3622766055
3622773074
3622781375
3622788394
3622796633
3622803713
3622809756
3622816714
3622824221
3622831301
3622839846
3622847475
3622852969
3622859927
3622869448
3622876894
3622885134
3622892824
3622901430
3622907961
3622916750
3622923647
3622930544
3622938967
3622946352
3622953615
3622960451
3622966372
3622973208
3622981325
3622988222
3622995546
3623002687
3623008974
3623015749
3623024416
3623031130
3623038881
3623045534
3623051027
3623060915
3623067018
3623074343
3623082216
3623089357
3623095522
3623103273
3623109560
3623118959
3623125795
3623134584
3623141298
3623148927
3623156374
3623164796
3623172365
3623180910
3623185609
3623195253
3623202333
3623209230
3623217348
3623226503
3623234682
3623241945
3623249818
3623256959
3623264833
3623271974
3623277589
3623285402
3623295472
3623302491
3623308900
3623317750
3623325868
3623333436
3623340882
3623349305
3623357728
3623367189
3623375245
3623384217
3623391847
3623398316
3623409303
3623422364
3623430360
3623438050
3623444520
3623451478
3623459351
3623466553
3623475159
3623482484
3623491639
3623499085
3623506287
3623512757
3623519532
3623526856
3623535462
3623540833
3623549378
3623554993
3623563050
3623569642
3623576233
3623582581
3623590149
3623597779
3623604676
3623611267
3623618775
3623625367
3623633972
3623642273
3623649720
3623656678
3623663574
3623670593
3623678223
3623685364
3623694153
3623701050
3623707398
3623713928
3623721008
3623727478
3623733826
3623742188
3623748962
3623757385
3623764160
3623772217
3623778931
3623785950
3623798157
3623805054
3623814026
3623820923
3623828918
3623836731
3623841919
3623850708
3623858154
3623865417
3623874328
3623881958
3623888794
3623896301
3623903137
3623912902
3623921203
3623928833
3623933471
3623941833
3623950500
3623956665
3623965637
3623972351
3623980041
3623987731
3623995422
3624000488
3624007140
3624013244
3624020324
3624026000
3624031860
3624037658
3624044433
3624051208
3624058166
3624065185
3624072143
3624079833
3624085815
3624092162
3624097777
3624102965
3624109191
3624115539
3624121642
3624128051
3624133605
3624140929
3624146483
3624152892
3624158263
3624164672
3624169860
3624177245
3624184264
3624189818
3624195311
3624201964
3624205993
3624213439
3624219298
3624223876
3624229186
3624234191
3624239745
3624245299
3624251464
3624257628
3624262511
3624269286
3624272887
3624278502
3624284850
3624289794
3624296019
3624301573
3624306639
3624312193
3624317687
3624322203
3624329894
3624335692
3624339537
3624344664
3624351195
3624356932
3624363402
3624368712
3624373534
3624378966
3624383910
3624389708
3624395323
3624401305
3624406859
3624411192
3624417296
3624421812
3624429320
3624434630
3624440184
3624445494
3624450926
3624455687
3624460447
3624465208
3624470884
3624477415
3624483275
3624489439
3624494261
3624499449
3624504820
3624510496
3624515623
3624520933
3624528074
3624534788
3624539976
3624546934
3624552793
3624560240
3624565855
3624572386
3624580198
3624585691
3624592100
3624596678
3624601682
3624607420
3624612852
3624618589
3624622984
3624629636
3624636472
3624642576
3624647520
3624652219
3624658018
3624664121
3624668882
3624675718
3624681089
3624686399
3624692686
3624697202
3624702451
3624708250
3624714719
3624720090
3624725400
3624730710
3624735349
3624742795
3624748838
3624755552
3624759824
3624765378
3624771177
3624780576
3624784055
3624791379
3624797727
3624803525
3624809262
3624814084
3624820127
3624827207
3624833005
3624836728
3624840818
3624847226
3624854550
3624860715
3624870053
3624875180
3624881650
3624888852
3624894834
3624902097
3624906430
3624912595
3624917966
3624922971
3624930478
3624936459
3624941586
3624947385
3624953732
3624957822
3624964658
3624971555
3624977048
3624982114
3624988278
3624995358
3625000851
3625007748
3625014096
3625021847
3625028500
3625033993
3625039914
3625045590
3625051449
3625057065
3625061947
3625067318
3625073178
3625078854
3625084164
3625088253
3625093380
3625098812
3625104184
3625110287
3625115475
3625120541
3625127011
3625131344
3625136410
3625141049
3625147946
3625153561
3625158749
3625164181
3625169857
3625175228
3625180782
3625186520
3625191158
3625196591
3625202023
3625206417
3625212582
3625219540
3625225643
3625229916
3625234249
3625239193
3625246151
3625250118
3625257015
3625261654
3625266231
3625271847
3625278011
3625283504
3625288143
3625292293
3625299496
3625303951
3625309505
3625315243
3625321102
3625324764
3625329769
3625336178
3625339962
3625344967
3625351192
3625356319
3625361446
3625366817
3625371822
3625379329
3625383541
3625389522
3625394893
3625401180
3625406246
3625412288
3625417232
3625424251
3625431148
3625436641
3625443233
3625451656
3625457759
3625466609
3625471858
3625478572
3625483272
3625489375
3625494869
3625499873
3625505306
3625511653
3625516719
3625524898
3625529903
3625535335
3625540584
3625544978
3625550288
3625555293
3625562190
3625568599
3625573604
3625579768
3625584102
3625589656
3625595759
3625601680
3625607417
3625611079
3625617549
3625621699
3625627376
3625632808
3625637568
3625642634
3625648311
3625653743
3625660090
3625665278
3625671870
3625677302
3625681392
3625686213
3625693110
3625698298
3625703242
3625709773
3625713862
3625719172
3625725459
3625731806
3625737055
3625742060
3625749324
3625754328
3625761469
3625767756
3625772639
3625777278
3625783625
3625789362
3625794001
3625799983
3625805354
3625810236
3625816340
3625821467
3625827326
3625832209
3625839106
3625843684
3625848627
3625853266
3625859370
3625867182
3625872919
3625879755
3625885493
3625891718
3625897822
3625903254
3625911127
3625915339
3625921076
3625925959
3625931391
3625937555
3625941523
3625949091
3625955256
3625960322
3625965265
3625970758
3625975763
3625981806
3625986750
3625992548
3625998285
3626003901
3626008600
3626013910
3626019037
3626023371
3626030146
3626034479
3626042353
3626047418
3626054132
3626059686
3626064203
3626071344
3626076593
3626082392
3626088922
3626094660
3626099664
3626104913
3626110529
3626117181
3626122553
3626126947
3626132562
3626138544
3626143121
3626147272
3626154108
3626159357
3626165338
3626170160
3626175409
3626180170
3626185663
3626191705
3626197442
3626202325
3626206537
3626212945
3626218988
3626223627
3626228387
3626234857
3626239984
3626245660
3626250543
3626256524
3626260858
3626266229
3626272516
3626279229
3626283929
3626288629
3626294183
3626298944
3626304193
3626309014
3626316095
3626321344
3626327325
3626332086
3626338250
3626343377
3626347894
3626354486
3626360833
3626367242
3626373101
3626379449
3626385552
3626390740
3626397576
3626403069
3626408929
3626415948
3626420709
3626425652
3626431512
3626436333
3626443047
3626447137
3626452630
3626457146
3626463128
3626469292
3626475152
3626481316
3626485833
3626490472
3626494500
3626500298
3626506890
3626512383
3626517571
3626523858
3626529900
3626534234
3626539300
3626545342
3626550469
3626555901
3626560784
3626566338
3626571526
3626577446
3626583367
3626587944
3626593621
3626598748
3626603386
3626609734
3626614800
3626620049
3626625481
3626630669
3626636467
3626642266
3626647270
3626653252
3626658501
3626664360
3626668450
3626675713
3626680229
3626686211
3626691338
3626696953
3626701103
3626706535
3626714348
3626719475
3626725029
3626730278
3626736015
3626740105
3626747734
3626752495
3626757866
3626764885
3626769951
3626775017
3626782707
3626788322
3626794304
3626798576
3626804497
3626810722
3626815727
3626822990
3626831352
3626836662
3626842766
3626849296
3626855339
3626861931
3626867363
3626872551
3626878532
3626883842
3626889030
3626893608
3626900077
3626904472
3626910514
3626918083
3626923637
3626928215
3626934074
3626940422
3626945487
3626949638
3626955924
3626960441
3626967948
3626975089
3626979728
3626985221
3626990409
3626994376
3626999748
3627006095
3627011222
3627017448
3627022575
3627027457
3627033195
3627038871
3627043571
3627048331
3627054252
3627059257
3627064506
3627070975
3627074882
3627080985
3627084952
3627090751
3627095145
3627101066
3627105887
3627112296
3627117850
3627122855
3627127555
3627133597
3627139152
3627144828
3627150931
3627156913
3627161490
3627167228
3627173026
3627178946
3627183524
3627189261
3627193595
3627199332
3627204581
3627210318
3627214774
3627219901
3627226554
3627230094
3627237296
3627243827
3627250113
3627257376
3627262442
3627267447
3627275382
3627281546
3627288382
3627296011
3627301138
3627306509
3627311392
3627317374
3627322684
3627328055
3627333304
3627338004
3627344168
3627349478
3627355460
3627360586
3627364737
3627370657
3627375723
3627380423
3627385611
3627391470
3627396414
3627400931
3627405203
3627411978
3627418204
3627422415
3627429129
3627433645
3627439077
3627443960
3627450186
3627455313
3627460928
3627465323
3627470694
3627477957
3627484610
3627489004
3627495535
3627502676
3627507803
3627514883
3627520986
3627525686
3627532339
3627538137
3627543753
3627548818
3627555227
3627564077
3627569814
3627574880
3627581350
3627587270
3627593740
3627598684
3627604177
3627611929
3627617666
3627621633
3627628164
3627634512
3627640737
3627644826
3627651662
3627656850
3627662832
3627668386
3627674245
3627680776
3627684988
3627691701
3627698354
3627707326
3627714223
3627721181
3627726919
3627733022
3627738820
3627745473
3627752736
3627758474
3627763051
3627769155
3627775075
3627779897
3627787282
3627793813
3627798330
3627804067
3627809987
3627815297
3627821523
3627827016
3627831349
3627836843
3627842580
3627846913
3627852651
3627858571
3627863881
3627869008
3627874379
3627880788
3627884816
3627890065
3627896169
3627902882
3627907033
3627914235
3627918874
3627924550
3627931081
3627936391
3627941457
3627947865
3627952870
3627958546
3627965077
3627970326
3627975636
3627981312
3627986684
3627991749
3627998891
3628003041
3628009938
3628014638
3628020375
3628026661
3628032765
3628038014
3628043812
3628049244
3628054738
3628059315
3628065052
3628071522
3628076527
3628082386
3628087269
3628093129
3628098317
3628104115
3628110035
3628116505
3628121815
3628128224
3628132008
3628137074
3628143604
3628149708
3628154591
3628160267
3628165272
3628170765
3628176319
3628181263
3628187733
3628194141
3628199940
3628205189
3628210926
3628218067
3628223988
3628229847
3628240040
3628245655
3628253040
3628259144
3628264088
3628269459
3628275013
3628281055
3628285877
3628291859
3628296131
3628302723
3628306690
3628311451
3628318043
3628323597
3628329639
3628335682
3628340503
3628345813
3628351001
3628356922
3628362354
3628366871
3628373279
3628379627
3628384571
3628391040
3628395923
3628401050
3628407276
3628412525
3628418140
3628423267
3628428943
3628436389
3628440906
3628446460
3628452991
3628458545
3628463550
3628468555
3628473560
3628481067
3628486377
3628490772
3628497424
3628502490
3628508106
3628513293
3628519458
3628524524
3628531421
3628536365
3628542712
3628547473
3628552539
3628558276
3628564929
3628568774
3628575854
3628581531
3628587207
3628592090
3628598926
3628603992
3628610278
3628615161
3628620776
3628625720
3628632129
3628637866
3628644397
3628648730
3628653735
3628660266
3628664782
3628670459
3628676684
3628681750
3628687243
3628693896
3628697863
3628703723
3628710376
3628716479
3628721118
3628728076
3628735034
3628739916
3628747546
3628752917
3628758959
3628768237
3628774523
3628779772
3628785754
3628790820
3628796557
3628801684
3628808215
3628813586
3628819567
3628824755
3628829638
3628834765
3628841540
3628846789
3628852953
3628859301
3628864367
3628869189
3628875780
3628880541
3628887133
3628893053
3628898363
3628904772
3628910021
3628914782
3628920092
3628927294
3628932299
3628938280
3628943285
3628949083
3628955248
3628959887
3628965990
3628970507
3628978624
3628983690
3628989489
3628994677
3629000780
3629005846
3629010851
3629017748
3629021959
3629027208
3629033678
3629040087
3629044603
3629050340
3629054979
3629062059
3629067552
3629073534
3629078661
3629083605
3629089952
3629095018
3629100328
3629106554
3629111803
3629117174
3629122362
3629128587
3629133531
3629139329
3629144517
3629150499
3629156541
3629161058
3629167284
3629172288
3629178270
3629183336
3629189622
3629195848
3629201585
3629206712
3629211168
3629218431
3629223253
3629230089
3629233873
3629240342
3629247911
3629252733
3629258653
3629263597
3629270982
3629281602
3629286668
3629293077
3629298387
3629305955
3629311265
3629317002
3629322129
3629327928
3629333177
3629339036
3629344346
3629350205
3629355332
3629360887
3629366013
3629373033
3629378404
3629383042
3629389573
3629394151
3629400193
3629406541
3629412339
3629417527
3629423020
3629429612
3629433640
3629442124
3629446824
3629453599
3629458787
3629464585
3629469834
3629475632
3629480820
3629487473
3629492722
3629497788
3629504136
3629508835
3629513962
3629519822
3629526474
3629530686
3629535813
3629542283
3629548386
3629552781
3629558823
3629563401
3629570298
3629576767
3629581284
3629586289
3629592270
3629598313
3629602646
3629609665
3629616013
3629620713
3629625717
3629632187
3629637070
3629642807
3629649521
3629654404
3629660141
3629665146
3629671250
3629676804
3629682541
3629687424
3629693710
3629699387
3629704453
3629709702
3629716049
3629720200
3629728073
3629734482
3629739426
3629744430
3629750534
3629755722
3629761032
3629769089
3629774032
3629782821
3629788376
3629794845
3629800400
3629806442
3629812546
3629822616
3629827804
3629833053
3629839950
3629845993
3629850509
3629856247
3629862838
3629868332
3629873703
3629878585
3629885238
3629890670
3629895797
3629902084
3629907333
3629912399
3629917709
3629923507
3629928817
3629934677
3629942367
3629947006
3629953597
3629958053
3629964340
3629968978
3629975387
3629980575
3629986312
3629992660
3629998641
3630004012
3630009628
3630014754
3630021041
3630026656
3630032760
3630038619
3630043258
3630049483
3630054183
3630059920
3630066451
3630072677
3630077926
3630083114
3630089583
3630095138
3630100509
3630105697
3630113753
3630118575
3630126143
3630131270
3630136641
3630141524
3630146651
3630153548
3630158004
3630165023
3630170150
3630176070
3630181563
3630188765
3630193770
3630198348
3630205184
3630211226
3630216231
3630222273
3630227767
3630233443
3630237715
3630245040
3630249800
3630254561
3630260542
3630266036
3630271407
3630277571
3630282637
3630288252
3630294966
3630301436
3630307661
3630313338
3630322127
3630328963
3630335005
3630341719
3630348433
3630353560
3630359968
3630366499
3630372053
3630377241
3630383711
3630388655
3630394087
3630399153
3630405317
3630410261
3630416182
3630422590
3630427168
3630433088
3630439863
3630445417
3630450422
3630456099
3630461226
3630467695
3630472883
3630478315
3630483503
3630489851
3630494734
3630500715
3630506880
3630511457
3630517561
3630522138
3630528974
3630533491
3630539350
3630546186
3630550703
3630557295
3630562238
3630568891
3630573469
3630578596
3630585004
3630591047
3630595380
3630601301
3630607526
3630613874
3630620344
3630624677
3630631269
3630635786
3630642316
3630647382
3630653913
3630658918
3630665571
3630670453
3630677289
3630682111
3630687116
3630694074
3630699140
3630705427
3630711347
3630715680
3630721967
3630727033
3630732709
3630739423
3630743818
3630750165
3630755719
3630761335
3630765729
3630771833
3630778180
3630783612
3630788495
3630794232
3630801984
3630806867
3630815961
3630822492
3630827130
3630834088
3630840497
3630845807
3630853070
3630860150
3630867902
3630873639
3630880109
3630884686
3630891217
3630895673
3630902203
3630908795
3630913312
3630919904
3630925030
3630930157
3630936688
3630942181
3630947430
3630952679
3630957928
3630963177
3630970135
3630975140
3630981000
3630987408
3630991986
3630999371
3631004498
3631009930
3631015362
3631021771
3631027081
3631033001
3631038067
3631044232
3631049481
3631054608
3631059735
3631064801
3631072186
3631076825
3631083294
3631087750
3631093121
3631099591
3631104656
3631109234
3631116741
3631121929
3631127178
3631134381
3631138836
3631145062
3631149944
3631157940
3631163311
3631168377
3631175091
3631179485
3631185650
3631190716
3631196819
3631202007
3631207928
3631212872
3631218853
3631225201
3631230267
3631237286
3631242412
3631247967
3631252849
3631258892
3631263714
3631269451
3631276409
3631281536
3631286907
3631292949
3631297893
3631304119
3631308574
3631315166
3631321758
3631326580
3631333355
3631339092
3631344463
3631349773
3631355327
3631362346
3631372905
3631376934
3631384685
3631390789
3631397502
3631402507
3631408184
3631414836
3631420085
3631425334
3631431865
3631436443
3631442973
3631448772
3631455303
3631459819
3631466045
3631472453
3631477397
3631482585
3631489726
3631494731
3631500407
3631505534
3631512431
3631517131
3631522990
3631528361
3631534587
3631541057
3631546184
3631551189
3631556315
3631563090
3631568461
3631574931
3631580119
3631586955
3631591777
3631597575
3631603862
3631608378
3631614848
3631620036
3631626262
3631631511
3631636454
3631643046
3631647807
3631654460
3631660807
3631664286
3631673198
3631678935
3631683451
3631690226
3631694865
3631701579
3631708232
3631713908
3631719218
3631724162
3631729472
3631736247
3631742045
3631748148
3631753520
3631758097
3631764384
3631770976
3631775736
3631782511
3631788065
3631793314
3631798869
3631804179
3631810404
3631816630
3631821024
3631826762
3631833597
3631839274
3631844340
3631848978
3631853922
3631860514
3631865763
3631872416
3631879984
3631885660
3631891886
3631897623
3631908976
3631914225
3631920145
3631927897
3631934305
3631938761
3631945475
3631950663
3631956461
3631961710
3631967447
3631973917
3631978128
3631983194
3631989298
3631995829
3632001688
3632006876
3632012735
3632019327
3632023844
3632030557
3632035867
3632041849
3632048319
3632053446
3632058573
3632064310
3632069437
3632075174
3632080545
3632087076
3632092935
3632099466
3632104044
3632110635
3632116129
3632121255
3632126627
3632133157
3632137308
3632144144
3632150247
3632155374
3632161539
3632168008
3632172464
3632179178
3632184366
3632188943
3632195535
3632200113
3632206643
3632211709
3632218118
3632223306
3632228677
3632233621
3632240457
3632244485
3632249856
3632256265
3632262429
3632268960
3632273599
3632280130
3632285073
3632290383
3632297525
3632301248
3632308877
3632313943
3632320474
3632325540
3632330605
3632337686
3632341653
3632348000
3632352944
3632358682
3632364358
3632369241
3632377114
3632383035
3632389138
3632394387
3632401284
3632406777
3632412331
3632420998
3632430032
3632435036
3632441323
3632448586
3632454995
3632460244
3632467629
3632472817
3632478493
3632483620
3632489785
3632495461
3632501259
3632506447
3632512002
3632517251
3632523049
3632529274
3632535378
3632540810
3632545327
3632551064
3632557534
3632563271
3632568520
3632574501
3632579750
3632585244
3632590248
3632595558
3632602028
3632608071
3632613625
3632618324
3632624306
3632630348
3632636147
3632640846
3632647255
3632651894
3632658302
3632664101
3632670143
3632675575
3632682350
3632687050
3632692482
3632699257
3632705116
3632710365
3632714882
3632721718
3632728065
3632733986
3632739662
3632744484
3632751076
3632756264
3632761513
3632767250
3632772438
3632778236
3632783363
3632788612
3632793739
3632800514
3632806068
3632811928
3632817543
3632822059
3632827797
3632834388
3632840065
3632845253
3632851783
3632857032
3632863258
3632868568
3632874733
3632880104
3632884620
3632891334
3632896949
3632902687
3632907264
3632914161
3632918678
3632924720
3632929969
3632937721
3632944801
3632950660
3632956153
3632961524
3632968238
3632975379
3632983192
3632989295
3632994788
3633002235
3633009254
3633017982
3633024696
3633031104
3633038367
3633042945
3633049232
3633053992
3633061194
3633066443
3633072486
3633077552
3633084144
3633089393
3633095374
3633101172
3633106299
3633111915
3633119361
3633122535
3633130896
3633135657
3633142310
3633147559
3633152747
3633159217
3633164466
3633169471
3633174659
3633181494
3633186743
3633192786
3633198767
3633202796
3633209509
3633214087
3633220862
3633226172
3633232398
3633237708
3633244055
3633249182
3633254920
3633260046
3633265112
3633270361
3633276953
3633282324
3633287817
3633293066
3633299475
3633305884
3633310278
3633317358
3633323035
3633328284
3633333411
3633340002
3633345923
3633351660
3633358069
3633362707
3633369482
3633374548
3633380407
3633385351
3633391638
3633396826
3633402319
3633407507
3633414770
3633420202
3633423986
3633430273
3633434546
3633439856
3633445410
3633450842
3633457128
3633461889
3633466711
3633473364
3633479284
3633488195
3633494726
3633502477
3633511328
3633519445
3633527014
3633533300
3633539098
3633543920
3633549474
3633554479
3633559606
3633564184
3633570898
3633576513
3633582616
3633587133
3633592809
3633598486
3633603246
3633609655
3633614965
3633620153
3633625036
3633629613
3633634984
3633642126
3633646337
3633653173
3633658239
3633663061
3633667638
3633673681
3633679906
3633685888
3633690587
3633695226
3633700292
3633704931
3633712316
3633717199
3633723180
3633728917
3633733617
3633738134
3633742772
3633750524
3633757116
3633763951
3633770055
3633775304
3633780370
3633785619
3633791539
3633797704
3633802709
3633809239
3633813817
3633818273
3633825231
3633830968
3633837377
3633841832
3633847875
3633851720
3633857457
3633862889
3633868260
3633874181
3633880284
3633884923
3633891270
3633896580
3633900853
3633907872
3633913365
3633918980
3633923985
3633929722
3633935521
3633941502
3633949559
3633955601
3633962498
3633968114
3633974766
3633981053
3633988865
3633996251
3634002903
3634008091
3634014317
3634019932
3634026707
3634032200
3634038548
3634043675
3634048558
3634055027
3634060521
3634065525
3634071385
3634078099
3634084141
3634087925
3634095066
3634100987
3634105870
3634111729
3634117893
3634122837
3634127903
3634137547
3634144932
3634150608
3634155369
3634160496
3634165379
3634172581
3634178501
3634185215
3634189671
3634195652
3634200413
3634206699
3634212803
3634218052
3634225071
3634229771
3634235569
3634242283
3634246982
3634253330
3634259495
3634264377
3634270237
3634275364
3634281406
3634287754
3634294101
3634298801
3634304172
3634311618
3634317722
3634323154
3634328647
3634334629
3634340366
3634346592
3634353061
3634358738
3634364170
3634370334
3634376316
3634380710
3634386814
3634393222
3634400546
3634406162
3634412509
3634421420
3634428928
3634436252
3634444492
3634450473
3634457004
3634462253
3634468295
3634476169
3634480808
3634486301
3634491367
3634496249
3634501681
3634505710
3634512241
3634518222
3634524509
3634529819
3634534946
3634541049
3634546786
3634552157
3634557284
3634563022
3634569430
3634573886
3634579806
3634587008
3634591647
3634597690
3634603061
3634608554
3634612765
3634617770
3634623874
3634629733
3634634921
3634639560
3634645297
3634650058
3634655856
3634662814
3634667514
3634672824
3634677584
3634683566
3634688327
3634694430
3634700656
3634706637
3634710909
3634718417
3634723422
3634729586
3634736361
3634743929
3634749423
3634754183
3634761446
3634769015
3634774325
3634780734
3634785433
3634791964
3634799410
3634804659
3634809847
3634815340
3634820345
3634827791
3634833529
3634838595
3634844820
3634850863
3634857210
3634862887
3634868258
3634873018
3634879854
3634884859
3634894014
3634898653
3634906588
3634911226
3634918001
3634923800
3634931246
3634939547
3634946199
3634952791
3634957979
3634965120
3634971590
3634976534
3634982210
3634987215
3634994173
3635000582
3635004976
3635011934
3635017061
3635023226
3635029451
3635036104
3635040315
3635045564
3635052217
3635058992
3635064973
3635069734
3635076631
3635081148
3635088960
3635094331
3635100008
3635105684
3635112154
3635117403
3635122774
3635128938
3635134126
3635138826
3635144746
3635150850
3635156892
3635162629
3635168245
3635174104
3635179963
3635184663
3635191621
3635198762
3635203767
3635208955
3635214936
3635221284
3635226533
3635231965
3635237397
3635243379
3635249360
3635254060
3635259065
3635266450
3635272676
3635277680
3635284089
3635290071
3635294709
3635300202
3635306306
3635311372
3635318025
3635324128
3635329133
3635334443
3635340730
3635347077
3635353486
3635358369
3635363740
3635369721
3635376313
3635381745
3635389313
3635395478
3635402741
3635409211
3635415253
3635420502
3635426301
3635432587
3635437653
3635443635
3635450226
3635454682
3635459992
3635465912
3635472992
3635478241
3635484284
3635489838
3635494355
3635500336
3635506440
3635513215
3635519684
3635526032
3635530426
3635536835
3635541230
3635549286
3635555939
3635560334
3635565644
3635571564
3635577118
3635582001
3635589447
3635595185
3635601654
3635605866
3635611969
3635616852
3635623627
3635628876
3635634369
3635641571
3635646637
3635652252
3635658783
3635663910
3635670013
3635674957
3635684906
3635689606
3635696625
3635703461
3635709747
3635714813
3635719818
3635725555
3635731476
3635737152
3635742035
3635753265
3635759735
3635764374
3635770538
3635776153
3635782928
3635788849
3635794952
3635800628
3635805511
3635811187
3635816925
3635822113
3635828399
3635833526
3635837555
3635844696
3635849395
3635855499
3635863433
3635870513
3635877288
3635883392
3635891204
3635899322
3635905731
3635912444
3635918792
3635924163
3635930145
3635935211
3635940276
3635947234
3635951324
3635958587
3635963226
3635970184
3635974639
3635981841
3635986663
3635992095
3635998138
3636002410
3636008330
3636012664
3636019744
3636024200
3636030669
3636035247
3636041717
3636046233
3636052215
3636058684
3636063506
3636070098
3636075896
3636081084
3636086699
3636091948
3636097747
3636103850
3636110686
3636117217
3636121917
3636128081
3636132598
3636138701
3636145659
3636151702
3636156768
3636162749
3636167998
3636173979
3636178984
3636184905
3636191008
3636195586
3636202178
3636206877
3636213530
3636218596
3636223235
3636229765
3636235320
3636240569
3636246123
3636251189
3636256865
3636262053
3636267851
3636272917
3636280180
3636285551
3636291838
3636297026
3636303374
3636309050
3636314665
3636321196
3636326384
3636331938
3636337797
3636343840
3636350249
3636355070
3636361296
3636367888
3636372282
3636378752
3636384550
3636391081
3636398283
3636403471
3636412138
3636417997
3636425871
3636431974
3636437651
3636443632
3636451261
3636457426
3636463407
3636468046
3636474638
3636479093
3636485502
3636490934
3636497099
3636513273
3636522123
3636529386
3636536222
3636544340
3636552641
3636560270
3636567167
3636575040
3636582426
3636590177
3636598722
3636606290
3636613492
3636620267
3636626859
3636632047
3636637418
3636643583
3636649442
3636655240
3636660489
3636666166
3636671354
3636676542
3636683011
3636688504
3636694242
3636699918
3636705594
3636710782
3636716459
3636722989
3636728299
3636733915
3636739225
3636743985
3636751248
3636755887
3636761991
3636768460
3636773221
3636778165
3636784390
3636789884
3636795560
3636801602
3636806241
3636816007
3636821011
3636826627
3636831815
3636838101
3636843167
3636849820
3636855252
3636860257
3636865567
3636872098
3636876126
3636882657
3636888943
3636895352
3636900601
3636906094
3636910794
3636916165
3636922696
3636928372
3636935025
3636940030
3636946499
3636954068
3636958767
3636966214
3636972439
3636980984
3636988003
3636994351
3637000088
3637005398
3637010830
3637016690
3637021756
3637027371
3637034024
3637039944
3637045132
3637051113
3637057461
3637062527
3637068325
3637073635
3637079556
3637084744
3637090969
3637096279
3637102200
3637107388
3637113125
3637118252
3637123257
3637130398
3637134670
3637139919
3637146877
3637151821
3637157925
3637163845
3637168484
3637175320
3637180630
3637187893
3637193020
3637201260
3637207241
3637215969
3637220913
3637226955
3637233120
3637237758
3637243923
3637250454
3637255153
3637261684
3637266079
3637272487
3637278835
3637283901
3637289333
3637294704
3637302089
3637307094
3637313686
3637318813
3637325344
3637331264
3637336025
3637340725
3637345729
3637351100
3637355983
3637362819
3637368373
3637373928
3637379665
3637384120
3637389186
3637395290
3637400905
3637405910
3637412502
3637417507
3637422206
3637427028
3637433131
3637439601
3637445277
3637450588
3637455348
3637461696
3637466151
3637472865
3637478236
3637484889
3637490321
3637495692
3637503017
3637509425
3637514674
3637521693
3637527492
3637534266
3637539516
3637544826
3637551295
3637556972
3637564906
3637570826
3637577235
3637582911
3637587855
3637592677
3637598780
3637603541
3637608363
3637614772
3637621302
3637626735
3637631495
3637635829
3637642421
3637646632
3637653712
3637659999
3637664454
3637669398
3637675624
3637680445
3637684840
3637690943
3637696436
3637702479
3637708033
3637712794
3637718226
3637722926
3637729029
3637734217
3637740687
3637746180
3637751124
3637756678
3637761622
3637767176
3637771937
3637777369
3637782862
3637789088
3637794215
3637799830
3637804407
3637809840
3637815760
3637822779
3637827296
3637833399
3637837916
3637844141
3637848963
3637853907
3637859949
3637866358
3637870142
3637875025
3637881250
3637886988
3637891321
3637896753
3637903284
3637909021
3637913904
3637919092
3637924036
3637929590
3637934534
3637941370
3637945398
3637952051
3637957483
3637961573
3637967798
3637972010
3637978479
3637983484
3637990564
3637996118
3638001673
3638006860
3638012964
3638019800
3638024744
3638031824
3638038294
3638043115
3638049219
3638053918
3638058801
3638065149
3638070947
3638075220
3638081934
3638086267
3638091516
3638097070
3638103479
3638108179
3638114160
3638120386
3638125024
3638131250
3638135400
3638141504
3638146753
3638152063
3638156823
3638161645
3638168176
3638173242
3638178674
3638184167
3638190942
3638196130
3638201074
3638206689
3638211755
3638217736
3638222680
3638228479
3638233911
3638239709
3638245202
3638251428
3638257226
3638262048
3638269616
3638274194
3638280602
3638285363
3638291650
3638295922
3638301965
3638306664
3638312585
3638318017
3638323937
3638330346
3638334618
3638340966
3638345849
3638352502
3638358056
3638363610
3638369653
3638374779
3638379540
3638386498
3638391686
3638397179
3638401940
3638408105
3638412804
3638418175
3638423852
3638430138
3638435692
3638443749
3638447899
3638454003
3638458886
3638464257
3638470971
3638476281
3638481713
3638484887
3638491234
3638496849
3638501671
3638508690
3638515160
3638520104
3638525475
3638532128
3638537987
3638542992
3638548546
3638555687
3638562035
3638567772
3638574486
3638580467
3638585716
3638590721
3638596703
3638601952
3638608177
3638613426
3638618919
3638624046
3638628258
3638634361
3638640892
3638645348
3638651451
3638655540
3638661583
3638665794
3638671898
3638678368
3638682396
3638689232
3638694969
3638699364
3638705772
3638710472
3638716575
3638721336
3638727012
3638731773
3638737327
3638743797
3638748192
3638754905
3638759727
3638765281
3638771324
3638776512
3638781395
3638786949
3638791893
3638797325
3638804954
3638811485
3638817588
3638823631
3638828208
3638834495
3638839317
3638846153
3638851524
3638856346
3638862510
3638867210
3638871604
3638878868
3638883567
3638888999
3638893821
3638899436
3638904319
3638910240
3638916099
3638922385
3638927329
3638932822
3638937827
3638942039
3638948264
3638952720
3638959800
3638966087
3638972068
3638977866
3638981650
3638988120
3638993735
3638998984
3639005698
3639011619
3639016868
3639022849
3639028098
3639033713
3639038901
3639046775
3639050437
3639057578
3639063010
3639068869
3639073752
3639079978
3639085471
3639090476
3639096396
3639101401
3639106894
3639111594
3639117697
3639122702
3639129782
3639135031
3639139243
3639145529
3639149802
3639155966
3639160788
3639166464
3639172873
3639177756
3639183310
3639190207
3639197287
3639202414
3639209372
3639214682
3639220236
3639230246
3639234641
3639241049
3639245688
3639253134
3639258444
3639264120
3639269247
3639274680
3639280722
3639285178
3639289999
3639296713
3639303366
3639307577
3639313254
3639317587
3639323324
3639327719
3639336508
3639341574
3639347555
3639352804
3639358847
3639365622
3639370443
3639377401
3639382406
3639388205
3639394613
3639400045
3639404928
3639409384
3639414389
3639422445
3639427450
3639431601
3639436727
3639442221
3639447470
3639451803
3639458273
3639464498
3639470236
3639475179
3639480734
3639485494
3639491171
3639496420
3639502523
3639509420
3639513632
3639519613
3639523885
3639530843
3639536337
3639542074
3639548605
3639553243
3639558492
3639565633
3639571676
3639576070
3639582845
3639589681
3639594503
3639600484
3639605550
3639610372
3639615743
3639620443
3639628194
3639633748
3639638204
3639644735
3639649007
3639655172
3639660116
3639664571
3639670858
3639675863
3639682088
3639687459
3639692281
3639697408
3639702535
3639708944
3639714070
3639718465
3639724446
3639728658
3639734700
3639739034
3639746541
3639751607
3639757222
3639762105
3639767476
3639772359
3639777730
3639782552
3639789876
3639796346
3639801351
3639806477
3639811482
3639817037
3639821797
3639827535
3639834370
3639839864
3639845296
3639851399
3639856282
3639862386
3639869221
3639875203
3639879781
3639886067
3639890828
3639894795
3639898457
3639904378
3639910054
3639913533
3639917744
3639920857
3639925007
3639929463
3639933064
3639936604
3639941731
3639946858
3639951130
3639955891
3639960225
3639964558
3639969807
3639973896
3639978047
3639981953
3639986165
3639990925
3639995869
3640000203
3640004780
3640009114
3640013813
3640019001
3640023213
3640029499
3640034993
3640039570
3640045552
3640050434
3640055500
3640060322
3640063984
3640069966
3640074177
3640078388
3640082050
3640086628
3640090229
3640095783
3640101521
3640105732
3640109821
3640113728
3640118794
3640122578
3640126545
3640131733
3640136066
3640140156
3640144367
3640148945
3640153034
3640157734
3640161823
3640167377
3640171955
3640176166
3640180805
3640185017
3640189960
3640194233
3640198139
3640203632
3640206867
3640211994
3640215046
3640219257
3640224994
3640229877
3640233539
3640239460
3640243732
3640248371
3640252521
3640256977
3640261188
3640266498
3640270710
3640275531
3640279560
3640283344
3640287433
3640292438
3640296405
3640302143
3640306537
3640310260
3640315265
3640318866
3640326862
3640331073
3640336566
3640340717
3640346637
3640351276
3640354816
3640360187
3640363605
3640369037
3640374164
3640378314
3640381854
3640387164
3640391254
3640397113
3640401569
3640407611
3640412616
3640419025
3640424152
3640428424
3640432941
3640438556
3640443011
3640450153
3640454486
3640461078
3640467425
3640470721
3640478351
3640481952
3640487567
3640494708
3640498920
3640504901
3640508807
3640513934
3640518268
3640523334
3640527911
3640532672
3640539142
3640542926
3640547320
3640552936
3640557513
3640561236
3640566913
3640573504
3640578875
3640583331
3640588336
3640593402
3640598407
3640603595
3640608599
3640613971
3640618670
3640623797
3640629962
3640634234
3640638568
3640644061
3640648272
3640655291
3640660052
3640665240
3640670184
3640675128
3640680193
3640685137
3640689776
3640695147
3640700701
3640707049
3640711199
3640717364
3640721758
3640727190
3640733233
3640737139
3640744402
3640750018
3640754412
3640760210
3640766558
3640772662
3640779070
3640785113
3640791460
3640797076
3640806170
3640810076
3640815630
3640821123
3640826311
3640831865
3640837420
3640842974
3640847979
3640853228
3640858294
3640863787
3640869158
3640873735
3640877214
3640886309
3640893084
3640898149
3640902239
3640908281
3640914080
3640919756
3640925554
3640933123
3640938860
3640945085
3640951067
3640956316
3640962847
3640968035
3640971575
3640975420
3640984453
3640992143
3640998491
3641005327
3641013078
3641020036
3641026506
3641033037
3641038530
3641046403
3641053667
3641058549
3641063676
3641069536
3641074419
3641079118
3641084062
3641089677
3641095048
3641099016
3641103898
3641109453
3641114458
3641122331
3641125749
3641130998
3641136369
3641141618
3641147111
3641152726
3641156938
3641162126
3641169206
3641173112
3641178422
3641184587
3641188066
3641194902
3641199907
3641205522
3641212480
3641219072
3641223954
3641230180
3641234819
3641240068
3641244950
3641249955
3641257401
3641261430
3641268266
3641271745
3641278581
3641282609
3641288163
3641293412
3641300126
3641306718
3641313249
3641316789
3641323197
3641328629
3641334550
3641339249
3641345048
3641353593
3641357865
3641363663
3641369706
3641375443
3641381486
3641385758
3641390885
3641398392
3641404008
3641410050
3641415177
3641421403
3641426346
3641432206
3641438248
3641444352
3641449845
3641455887
3641461869
3641467972
3641475113
3641482377
3641490128
3641497635
3641504532
3641512650
3641519425
3641528092
3641533890
3641541519
3641546768
3641555557
3641565384
3641574356
3641581253
3641590775
3641595963
3641601578
3641610794
3641617691
3641626297
3641631790
3641638443
3641649307
3641660232
3641666397
3641674515
3641683121
3641691055
3641698135
3641707290
3641713394
3641724563
3641735611
3641742080
3641751663
3641757705
3641764724
3641769302
3641780594
3641789199
3641794876
3641805984
3641814102
3641823623
3641833450
3641842849
3641851272
3641860244
3641866104
3641875015
3641882034
3641887344
3641894546
3641901992
3641908523
3641916091
3641922500
3641926345
3641934219
3641942153
3641948257
3641954665
3641962295
3641969131
3641975906
3641980971
3641987075
3641994338
3642000381
3642007949
3642015578
3642019546
3642027541
3642035109
3642041396
3642048110
3642055800
3642061904
3642072158
3642081435
3642088576
3642093947
3642102492
3642110305
3642118422
3642125258
3642131789
3642138014
3642146315
3642155898
3642164382
3642169875
3642180312
3642186781
3642192946
3642200453
3642206068
3642220473
3642226881
3642236159
3642247572
3642255080
3642260023
3642265333
3642274489
3642282545
3642289686
3642297743
3642306105
3642313490
3642319838
3642330824
3642337233
3642347365
3642356825
3642366652
3642373610
3642381910
3642388075
3642394056
3642405165
3642412489
3642420729
3642426893
3642433302
3642443067
3642452406
3642459730
3642465345
3642471388
3642479872
3642488600
3642494825
3642502332
3642507948
3642516493
3642526441
3642534071
3642539930
3642551282
3642556165
3642567640
3642579175
3642586561
3642593275
3642601819
3642612928
3642621045
3642629041
3642637525
3642644544
3642651807
3642658704
3642667005
3642674390
3642680433
3642685010
3642691053
3642697034
3642702405
3642707105
3642714307
3642719739
3642726697
3642734082
3642740064
3642744763
3642749524
3642755689
3642759229
3642768201
3642774060
3642779065
3642785352
3642790845
3642798047
3642803418
3642810620
3642816052
3642820569
3642824963
3642831189
3642836377
3642842297
3642847546
3642852002
3642858960
3642864453
3642867688
3642874829
3642879712
3642885266
3642889966
3642893384
3642902051
3642906384
3642912427
3642918347
3642924084
3642930066
3642935864
3642940381
3642946911
3642953137
3642958752
3642963879
3642969677
3642974987
3642981091
3642985913
3642991711
3642997692
3643005871
3643010937
3643019299
3643025585
3643031445
3643037121
3643042858
3643050244
3643056591
3643062573
3643066418
3643072765
3643077953
3643084240
3643089367
3643095104
3643101208
3643108044
3643113415
3643119152
3643127209
3643133678
3643138317
3643143139
3643151989
3643156017
3643162365
3643168651
3643173717
3643179699
3643185497
3643191784
3643199413
3643205700
3643213878
3643220287
3643225048
3643230724
3643237377
3643243786
3643250683
3643259105
3643265026
3643270275
3643274730
3643279735
3643284191
3643289257
3643294323
3643299449
3643305492
3643310558
3643315135
3643320018
3643323436
3643331066
3643334606
3643342601
3643346691
3643351879
3643357677
3643363597
3643368907
3643374584
3643380077
3643386180
3643392101
3643397167
3643402721
3643406993
3643412486
3643418529
3643421947
3643428966
3643435252
3643440623
3643445323
3643451305
3643456187
3643463023
3643467113
3643472606
3643479808
3643485972
3643490306
3643496532
3643502147
3643507518
3643512340
3643517711
3643522105
3643529368
3643533824
3643539927
3643545482
3643550914
3643556163
3643561107
3643567576
3643572886
3643579600
3643584666
3643588694
3643595286
3643601145
3643606333
3643612193
3643617930
3643623606
3643629954
3643633860
3643639720
3643644847
3643652049
3643657298
3643662913
3643668223
3643674387
3643680003
3643686106
3643690562
3643696543
3643702342
3643708262
3643712412
3643720164
3643726389
3643731760
3643735667
3643742136
3643748118
3643753916
3643758433
3643766001
3643778025
3643783945
3643791086
3643796274
3643802866
3643808481
3643816172
3643822519
3643831186
3643836985
3643841990
3643848032
3643852854
3643858286
3643864939
3643869822
3643875132
3643879221
3643883677
3643889414
3643893747
3643900827
3643906443
3643912180
3643916696
3643921640
3643927194
3643930796
3643938181
3643941538
3643949228
3643952951
3643959238
3643964365
3643968271
3643973154
3643977670
3643982797
3643989023
3643994455
3643999277
3644005136
3644012033
3644018625
3644022958
3644028818
3644035471
3644040109
3644044138
3644049387
3644058054
3644063791
3644070871
3644074411
3644083017
3644088510
3644092904
3644100046
3644104440
3644110544
3644115121
3644119027
3644125436
3644130868
3644137338
3644142526
3644147653
3644151559
3644157907
3644163156
3644167978
3644174325
3644180062
3644185067
3644188729
3644194223
3644199411
3644204538
3644209787
3644217111
3644222665
3644228707
3644233407
3644239694
3644245126
3644249825
3644255197
3644261422
3644267587
3644273690
3644277474
3644283944
3644288583
3644292184
3644298898
3644302255
3644308663
3644314523
3644320687
3644325936
3644331124
3644336434
3644341317
3644345834
3644354012
3644360604
3644368905
3644373788
3644379586
3644385934
3644392342
3644397469
3644406563
3644412972
3644417733
3644422860
3644427559
3644433175
3644438790
3644443490
3644449288
3644453682
3644458870
3644464241
3644469246
3644474251
3644479683
3644485176
3644490792
3644494759
3644500496
3644505684
3644511788
3644515206
3644521614
3644526619
3644530892
3644537789
3644543160
3644548470
3644553902
3644558357
3644563790
3644568794
3644574959
3644580940
3644586495
3644590828
3644597359
3644602974
3644609016
3644615181
3644621162
3644627144
3644631233
3644636482
3644644661
3644651924
3644657417
3644662544
3644669258
3644674934
3644680244
3644684456
3644689705
3644697761
3644701484
3644706856
3644712654
3644718635
3644724128
3644730476
3644734749
3644742683
3644748726
3644754158
3644760383
3644766487
3644770454
3644774360
3644782234
3644788887
3644795112
3644801277
3644805976
3644812019
3644817146
3644823127
3644828132
3644834175
3644839546
3644844978
3644853034
3644856574
3644862800
3644867439
3644873542
3644878974
3644884834
3644890388
3644896613
3644903144
3644909309
3644914802
3644922858
3644929450
3644935615
3644939887
3644948676
3644958686
3644963996
3644970161
3644974921
3644980598
3644986091
3644993049
3644998359
3645003425
3645008552
3645013373
3645018683
3645023932
3645028815
3645036322
3645043036
3645049323
3645053840
3645057319
3645064948
3645068427
3645073798
3645079291
3645085089
3645090766
3645096259
3645101691
3645107123
3645112372
3645117804
3645123236
3645129645
3645135382
3645142218
3645147650
3645153205
3645158942
3645163886
3645169501
3645173956
3645179816
3645186041
3645189459
3645196417
3645201239
3645204901
3645210272
3645215887
3645223212
3645227362
3645234198
3645237677
3645243964
3645249396
3645254034
3645259650
3645264838
3645270819
3645276312
3645281927
3645288092
3645291632
3645298590
3645303839
3645307501
3645315802
3645319891
3645325384
3645331427
3645338018
3645343206
3645349920
3645356451
3645363958
3645369635
3645375067
3645380438
3645384710
3645389654
3645396246
3645401617
3645405706
3645414434
3645419012
3645424505
3645430487
3645435919
3645442022
3645446722
3645451910
3645458685
3645466009
3645472601
3645477850
3645484747
3645489813
3645495672
3645500250
3645506048
3645511480
3645518377
3645526372
3645533819
3645537969
3645543706
3645548650
3645554937
3645560674
3645566900
3645574407
3645577947
3645585760
3645591924
3645597173
3645602849
3645607732
3645612188
3645618108
3645622869
3645627752
3645633306
3645638311
3645644841
3645650579
3645655217
3645660588
3645666692
3645670171
3645675847
3645680547
3645686834
3645693059
3645697209
3645703191
3645707158
3645715032
3645718572
3645725163
3645730596
3645735356
3645740972
3645746953
3645752446
3645758183
3645763616
3645768010
3645773320
3645779424
3645785771
3645792363
3645796269
3645803410
3645808537
3645812566
3645818364
3645824345
3645829594
3645837285
3645842656
3645848515
3645854008
3645857670
3645865178
3645870488
3645874272
3645882207
3645890751
3645895756
3645899540
3645905949
3645911870
3645916996
3645924199
3645931401
3645937504
3645941899
3645947758
3645953556
3645959904
3645964726
3645970097
3645977482
3645984074
3645991398
3645997135
3646002507
3646007023
3646013005
3646019474
3646023930
3646030400
3646036564
3646042118
3646047306
3646053898
3646059147
3646062992
3646069218
3646075382
3646081547
3646087772
3646094608
3646099857
3646106754
3646114140
3646123051
3646130558
3646139469
3646146488
3646154056
3646163395
3646169071
3646176151
3646183353
3646189823
3646195011
3646200199
3646206058
3646211246
3646215519
3646220890
3646226139
3646231632
3646236515
3646241947
3646248111
3646253788
3646258792
3646263553
3646268619
3646273014
3646278324
3646284366
3646288700
3646295902
3646299625
3646306522
3646310489
3646317325
3646321414
3646328311
3646334110
3646339664
3646345218
3646349124
3646354007
3646360660
3646365604
3646369144
3646376102
3646381412
3646385562
3646391422
3646398380
3646402957
3646409000
3646414920
3646420169
3646427188
3646433902
3646437747
3646443545
3646450198
3646454227
3646460208
3646466067
3646473269
3646479922
3646487002
3646491885
3646499270
3646503909
3646510623
3646517642
3646524234
3646531863
3646538333
3646544803
3646549807
3646558047
3646564029
3646572512
3646578128
3646583499
3646593020
3646602236
3646609439
3646615847
3646624636
3646629214
3646637942
3646646182
3646652895
3646659670
3646668643
3646678225
3646685061
3646691653
3646699709
3646705019
3646714480
3646721072
3646727541
3646736513
3646746096
3646752444
3646760012
3646766054
3646773257
3646782107
3646788637
3646796511
3646802553
3646811709
3646821840
3646831423
3646842165
3646847780
3646856752
3646866030
3646871462
3646877687
3646890810
3646897341
3646907656
3646912599
3646918581
3646926149
3646933595
3646941591
3646948854
3646953676
3646961611
3646968385
3646975282
3646981325
3646988710
3646994020
3646999574
3647008058
3647015138
3647022523
3647028505
3647035890
3647042421
3647046937
3647054323
3647060792
3647065614
3647076234
3647081911
3647088930
3647096254
3647101564
3647108156
3647113038
3647120485
3647128480
3647133729
3647142579
3647151796
3647156861
3647162660
3647171144
3647177247
3647184571
3647192079
3647197633
3647207582
3647214173
3647222596
3647228639
3647237000
3647242188
3647251283
3647258180
3647264222
3647271912
3647277223
3647285401
3647291810
3647299989
3647305360
3647313660
3647319581
3647326783
3647332398
3647343079
3647351624
3647358216
3647363099
3647372071
3647376343
3647384400
3647392396
3647398377
3647405518
3647413147
3647419068
3647427063
3647435364
3647441468
3647448548
3647457215
3647461853
3647470703
3647477478
3647485901
3647493897
3647499268
3647505554
3647514160
3647520569
3647529907
3647535340
3647541138
3647551697
3647559204
3647565979
3647573670
3647580200
3647587647
3647596313
3647602539
3647608276
3647617187
3647625488
3647632507
3647640869
3647649780
3647656250
3647664734
3647671387
3647681762
3647689087
3647697937
3647703857
3647712768
3647724609
3647730835
3647736267
3647746093
3647754394
3647759765
3647766235
3647773681
3647781494
3647786804
3647794616
3647799316
3647808776
3647815551
3647820373
3647830444
3647836425
3647843627
3647848266
3647856933
3647864135
3647869140
3647878051
3647883910
3647892272
3647898193
3647905090
3647911864
3647916991
3647926147
3647932250
3647939941
3647944884
3647950011
3647963683
3647969909
3647977477
3647983642
3647990478
3647998290
3648003783
3648011779
3648017882
3648025939
3648034606
3648042113
3648049132
3648054442
3648062621
3648068663
3648076293
3648081664
3648090392
3648099059
3648104796
3648112486
3648120665
3648126158
3648133177
3648138426
3648146605
3648154784
3648162352
3648170958
3648177977
3648185362
3648190672
3648198973
3648204832
3648212523
3648217589
3648226256
3648236082
3648242247
3648248900
3648257139
3648262755
3648270140
3648278074
3648284666
3648290526
3648299376
3648308470
3648314695
3648321165
3648329527
3648335447
3648343748
3648349424
3648357359
3648364256
3648372007
3648382261
3648389341
3648396788
3648403562
3648410093
3648418455
3648425474
3648431211
3648440611
3648451353
3648459654
3648466123
3648472410
3648479002
3648487058
3648492673
3648502195
3648508970
3648516294
3648526304
3648534116
3648541929
3648548337
3648556211
3648562314
3648571103
3648578977
3648584348
3648595517
3648604795
3648613706
3648620725
3648626889
3648631284
3648637937
3648644284
3648650022
3648656430
3648662656
3648668088
3648672971
3648679257
3648684934
3648690549
3648696714
3648703671
3648710629
3648715085
3648720517
3648726010
3648731137
3648736142
3648742185
3648748349
3648755612
3648759091
3648765195
3648769528
3648775143
3648780881
3648786618
3648793698
3648797910
3648804501
3648810239
3648816464
3648820920
3648828976
3648833615
3648841183
3648847104
3648853024
3648859433
3648866208
3648873105
3648880734
3648886166
3648893612
3648901059
3648907162
3648913754
3648918759
3648923031
3648929501
3648934201
3648940060
3648945980
3648952633
3648959469
3648964352
3648971249
3648977475
3648984494
3648988644
3648995785
3649002011
3649007321
3649013241
3649019406
3649025753
3649030819
3649036923
3649042477
3649049801
3649056332
3649061520
3649067135
3649071774
3649077938
3649083920
3649089657
3649095821
3649102047
3649107418
3649113460
3649118771
3649124325
3649130672
3649135555
3649141353
3649148739
3649155453
3649160702
3649166683
3649172603
3649176632
3649185360
3649189510
3649196956
3649206417
3649213741
3649219478
3649226009
3649231685
3649237423
3649243892
3649250179
3649255550
3649260311
3649265499
3649270259
3649276180
3649283870
3649289241
3649294368
3649301448
3649306697
3649312129
3649316646
3649321407
3649327999
3649331294
3649338313
3649343501
3649349178
3649354060
3649359798
3649364131
3649369685
3649374507
3649379817
3649387630
3649393611
3649398616
3649404170
3649410518
3649416194
3649422359
3649428340
3649435420
3649439509
3649445918
3649452083
3649458186
3649464656
3649471675
3649478877
3649486751
3649494319
3649499690
3649507136
3649513423
3649520503
3649525630
3649534907
3649541133
3649548152
3649556330
3649562434
3649572077
3649578730
3649586360
3649591975
3649597712
3649607356
3649614070
3649622309
3649632258
3649641169
3649645808
3649654902
3649661921
3649667414
3649673335
3649682734
3649691950
3649698603
3649704951
3649714960
3649722895
3649728876
3649735773
3649744807
3649749628
3649756342
3649764399
3649771479
3649780085
3649787897
3649792841
3649798212
3649807184
3649814203
3649820978
3649828241
3649833796
3649846003
3649851679
3649860895
3649867731
3649874933
3649882318
3649890436
3649894953
3649903009
3649909418
3649918817
3649926142
3649934015
3649940424
3649949274
3649957819
3649964288
3649974481
3649983759
3649992731
3650002557
3650010736
3650018976
3650024103
3650032281
3650039178
3650044122
3650052179
3650060480
3650069696
3650075311
3650081659
3650088312
3650093194
3650100274
3650107904
3650114862
3650122918
3650129937
3650134637
3650142938
3650149041
3650154779
3650161920
3650166741
3650175958
3650183099
3650187860
3650193475
3650200433
3650206353
3650213006
3650218133
3650224236
3650229546
3650250054
3650255486
3650260918
3650265679
3650270867
3650276421
3650282403
3650288750
3650293389
3650296807
3650304925
3650310601
3650314873
3650320428
3650326531
3650332879
3650337884
3650343560
3650350579
3650354912
3650361260
3650367730
3650376214
3650383172
3650389641
3650394768
3650400811
3650406609
3650413750
3650419060
3650422966
3650430352
3650436516
3650443169
3650446953
3650454094
3650460015
3650464897
3650470757
3650475640
3650483452
3650489861
3650495842
3650500542
3650505913
3650509697
3650516411
3650523003
3650529106
3650535149
3650542107
3650548088
3650552605
3650559319
3650565605
3650569206
3650572990
3650581352
3650588310
3650593620
3650599907
3650605095
3650611626
3650617241
3650623955
3650630791
3650637504
3650644096
3650649406
3650656730
3650662285
3650667473
3650673637
3650681877
3650685295
3650691154
3650697014
3650702690
3650707817
3650711784
3650717094
3650725273
3650729362
3650736381
3650741996
3650746208
3650751823
3650757072
3650762565
3650768913
3650774650
3650779899
3650785392
3650791007
3650796501
3650800590
3650806022
3650811210
3650817436
3650823478
3650828178
3650834403
3650839347
3650842826
3650850333
3650853874
3650860770
3650866508
3650871879
3650877311
3650883353
3650889030
3650893851
3650899955
3650905570
3650912223
3650917899
3650923942
3650929191
3650934562
3650940665
3650945182
3650951285
3650956290
3650962211
3650968436
3650974418
3650980094
3650986380
3650992301
3650998343
3651003165
3651009574
3651013846
3651022391
3651026358
3651031607
3651037589
3651043021
3651049002
3651055960
3651062369
3651067618
3651073661
3651079154
3651084403
3651088492
3651095999
3651099845
3651106619
3651112845
3651118582
3651124564
3651129385
3651135367
3651140799
3651146048
3651152701
3651159110
3651166006
3651171256
3651177725
3651183157
3651188650
3651193411
3651199515
3651205252
3651211783
3651218924
3651225577
3651232413
3651239248
3651243826
3651249380
3651255911
3651263296
3651273428
3651279348
3651283743
3651288992
3651294241
3651299795
3651305410
3651311270
3651316885
3651322378
3651326284
3651331045
3651336904
3651341604
3651348318
3651353994
3651360037
3651364736
3651370230
3651374502
3651379873
3651385916
3651391348
3651396414
3651403616
3651408743
3651414297
3651418386
3651423879
3651429311
3651434927
3651440237
3651446340
3651453115
3651458242
3651462087
3651468313
3651474355
3651481435
3651485952
3651491811
3651498403
3651504812
3651508474
3651515615
3651521474
3651525381
3651532155
3651537588
3651542715
3651547475
3651554555
3651560720
3651566396
3651572927
3651579885
3651588186
3651598439
