3745443963
3745449884
3745455865
3745460260
3745465753
3745470453
3745475885
3745481317
3745487542
3745492608
3745498956
3745504266
3745510736
3745517633
3745523675
3745529168
3745534661
3745540582
3745547479
3745553887
3745558831
3745567193
3745573358
3745579949
3745592645
3745601067
3745607110
3745612420
3745619561
3745623895
3745631219
3745639031
3745645623
3745653008
3745659661
3745667351
3745672478
3745684197
3745691827
3745698479
3745706231
3745711114
3745719597
3745724785
3745734368
3745740838
3745751275
3745759331
3745768242
3745775689
3745780877
3745790398
3745795220
3745802666
3745809502
3745816155
3745823418
3745830132
3745837761
3745842827
3745851677
3745856682
3745864556
3745872368
3745878288
3745886284
3745893913
3745898674
3745906120
3745912224
3745920219
3745927666
3745934929
3745940605
3745951469
3745957085
3745964592
3745972038
3745979240
3745987480
3745994682
3746000481
3746007866
3746015434
3746022636
3746030632
3746037956
3746045036
3746052238
3746058586
3746066459
3746075187
3746080436
3746089470
3746096428
3746104179
3746111808
3746119438
3746127067
3746134269
3746142387
3746149284
3746155693
3746162712
3746172904
3746180229
3746187248
3746194145
3746201347
3746209892
3746214958
3746223380
3746235404
3746240836
3746250053
3746258048
3746266349
3746271964
3746280082
3746287284
3746294669
3746303153
3746309379
3746314872
3746324698
3746331717
3746338553
3746344047
3746353934
3746360587
3746368705
3746372306
3746382499
3746386283
3746397086
3746404898
3746411307
3746418875
3746427176
3746435294
3746440848
3746449454
3746459647
3746469718
3746473868
3746484915
3746488272
3746499075
3746506217
3746512625
3746519766
3746527945
3746536246
3746543448
3746549246
3746557547
3746565237
3746572745
3746581045
3746588309
3746595511
3746602530
3746608633
3746615957
3746624014
3746631460
3746638601
3746646048
3746653067
3746661306
3746667654
3746676138
3746682547
3746688101
3746696463
3746704946
3746711294
3746716726
3746725820
3746731314
3746740957
3746748892
3746757070
3746762564
3746770803
3746774526
3746785635
3746793874
3746799429
3746806997
3746814565
3746821829
3746826955
3746834219
3746840994
3746848318
3746856313
3746863637
3746870290
3746877798
3746882802
3746889944
3746896718
3746904226
3746911977
3746919790
3746926076
3746932546
3746943899
3746955800
3746963674
3746974111
3746978505
3746989431
3746997731
3747004689
3747013234
3747018727
3747026967
3747032460
3747042958
3747049611
3747055837
3747063405
3747071462
3747077626
3747085561
3747091054
3747099049
3747107106
3747114308
3747120473
3747129018
3747134999
3747143300
3747152028
3747159657
3747165883
3747173634
3747181935
3747189198
3747197804
3747204457
3747212697
3747219411
3747226491
3747234181
3747241749
3747247120
3747255055
3747263661
3747269276
3747277333
3747284291
3747290760
3747298268
3747306202
3747313526
3747320240
3747327809
3747336476
3747342091
3747350819
3747358082
3747366627
3747371937
3747379933
3747385059
3747392628
3747397755
3747407154
3747414295
3747421253
3747428272
3747435352
3747442615
3747449757
3747458057
3747466114
3747473194
3747479847
3747486988
3747494556
3747501453
3747507557
3747515919
3747523365
3747530262
3747536670
3747543995
3747550770
3747558094
3747565235
3747574634
3747582142
3747589466
3747598377
3747605701
3747612110
3747619495
3747627796
3747637134
3747644153
3747653613
3747661060
3747669299
3747676257
3747684802
3747691516
3747698840
3747705982
3747713855
3747721606
3747728626
3747737720
3747744800
3747752795
3747759692
3747766955
3747774219
3747781360
3747786487
3747797107
3747805652
3747811999
3747820239
3747825732
3747833056
3747838000
3747846667
3747874987
3747881945
3747890185
3747895861
3747903491
3747910998
3747917956
3747924060
3747932788
3747938647
3747945056
3747948413
3747955737
3747960375
3747967883
3747972827
3747979174
3747984484
3747988635
3747994494
3748001757
3748009264
3748014269
3748019579
3748024279
3748031115
3748034960
3748041186
3748047778
3748052782
3748059862
3748065050
3748070788
3748076647
3748081164
3748088183
3748093676
3748099596
3748104174
3748110888
3748116564
3748122179
3748127916
3748133471
3748138292
3748145067
3748150805
3748156359
3748161730
3748167589
3748172716
3748179125
3748184130
3748193956
3748203234
3748207994
3748213976
3748218492
3748225878
3748231981
3748240038
3748245287
3748251879
3748256883
3748264574
3748270128
3748274523
3748281603
3748288011
3748292955
3748298998
3748304674
3748310472
3748316393
3748324449
3748331224
3748336168
3748344957
3748351060
3748356554
3748362474
3748368700
3748374620
3748379747
3748384447
3748389024
3748397691
3748403551
3748408922
3748414293
3748419725
3748425279
3748430650
3748436204
3748441881
3748447252
3748452684
3748458299
3748462510
3748469529
3748473741
3748480943
3748492234
3748497728
3748503709
3748508714
3748514878
3748519273
3748526780
3748532334
3748536302
3748542893
3748548814
3748553514
3748558640
3748564683
3748571336
3748576463
3748581468
3748587815
3748592637
3748598985
3748603501
3748610886
3748616074
3748620652
3748627427
3748631882
3748637131
3748644456
3748649155
3748655259
3748661851
3748667100
3748672654
3748678330
3748684678
3748692551
3748698105
3748704209
3748710007
3748716050
3748722336
3748728867
3748732712
3748739182
3748743577
3748749253
3748754136
3748760300
3748766953
3748772751
3748778794
3748784226
3748789719
3748795273
3748800766
3748806321
3748812241
3748816513
3748823166
3748827256
3748834458
3748840378
3748845139
3748851242
3748858261
3748862351
3748871384
3748877609
3748883957
3748889877
3748893723
3748900314
3748906906
3748913010
3748919052
3748924850
3748930344
3748935471
3748942368
3748947189
3748952866
3748958542
3748963547
3748969406
3748975876
3748981247
3748986618
3748991684
3748996994
3749002060
3749006882
3749011825
3749018966
3749023300
3749028793
3749033737
3749039535
3749045395
3749050583
3749056442
3749062362
3749067794
3749073227
3749079025
3749084396
3749090011
3749096237
3749100997
3749107284
3749113632
3749119247
3749124862
3749130355
3749135665
3749141097
3749146408
3749151901
3749157333
3749162765
3749168197
3749173812
3749179488
3749185043
3749191207
3749197372
3749202743
3749207931
3749213607
3749219650
3749225448
3749233993
3749240340
3749245650
3749251205
3749255599
3749261336
3749267989
3749273238
3749278121
3749283248
3749288375
3749293380
3749299788
3749304122
3749310531
3749315658
3749321090
3749327132
3749333175
3749339827
3749344771
3749349776
3749356673
3749361312
3749366500
3749372847
3749379134
3749385115
3749389998
3749397017
3749402327
3749406295
3749413069
3749416854
3749423201
3749428939
3749434798
3749440108
3749444991
3749450301
3749455550
3749462203
3749467024
3749472701
3749477400
3749483077
3749488387
3749494429
3749499800
3749505110
3749511946
3749518843
3749528059
3749533430
3749542891
3749549239
3749554671
3749559859
3749566389
3749571760
3749576887
3749581892
3749586836
3749593245
3749598616
3749604658
3749609602
3749615156
3749619246
3749626204
3749631819
3749636763
3749643232
3749648542
3749653059
3749658735
3749664839
3749668806
3749674543
3749679792
3749684919
3749690596
3749696394
3749702070
3749706343
3749713117
3749718916
3749723799
3749730879
3749735700
3749741987
3749747480
3749752668
3749757978
3749765119
3749769697
3749774763
3749780073
3749785017
3749791303
3749795149
3749802351
3749807233
3749812788
3749817548
3749823225
3749828230
3749833784
3749840375
3749845563
3749851057
3749854780
3749861066
3749867536
3749872236
3749877607
3749884382
3749893720
3749900373
3749905622
3749911298
3749916242
3749922345
3749926191
3749932782
3749937421
3749944318
3749948041
3749954999
3749960309
3749965619
3749970502
3749975507
3749981305
3749986676
3749992170
3749997968
3750002607
3750008283
3750013715
3750018903
3750023908
3750029401
3750034406
3750042462
3750047345
3750052960
3750058392
3750064435
3750070050
3750075177
3750081159
3750086408
3750091473
3750097211
3750101666
3750107465
3750113141
3750117413
3750124005
3750129864
3750135052
3750141034
3750146283
3750151410
3750155804
3750162823
3750168194
3750173382
3750178937
3750183453
3750187787
3750195111
3750200055
3750205121
3750210614
3750216290
3750222760
3750227520
3750233929
3750241375
3750247296
3750252057
3750258282
3750263348
3750268719
3750273968
3750278118
3750282208
3750288372
3750293743
3750299969
3750307904
3750313153
3750317364
3750322247
3750327313
3750333233
3750339642
3750345379
3750351849
3750357098
3750362652
3750369488
3750375530
3750380535
3750385967
3750390911
3750396648
3750402752
3750408062
3750414715
3750419659
3750422710
3750429668
3750434551
3750439495
3750446392
3750451519
3750456524
3750461773
3750466106
3750470562
3750477154
3750482403
3750487102
3750493511
3750498699
3750504253
3750510235
3750514263
3750520366
3750525554
3750530925
3750537151
3750541668
3750546123
3750551860
3750557293
3750561199
3750568218
3750574382
3750582683
3750587749
3750592815
3750598308
3750603740
3750609905
3750612957
3750623332
3750628398
3750632793
3750639079
3750643596
3750651042
3750659343
3750669170
3750674541
3750680339
3750684612
3750690593
3750696330
3750701152
3750705913
3750712077
3750717754
3750722087
3750727153
3750731853
3750737346
3750742412
3750747661
3750752666
3750757548
3750763713
3750767985
3750773845
3750780376
3750787211
3750794230
3750800273
3750803996
3750811137
3750816020
3750821940
3750827922
3750832438
3750838359
3750843608
3750849040
3750855204
3750861491
3750866313
3750873210
3750877787
3750884196
3750888835
3750894816
3750899943
3750905436
3750910807
3750916178
3750924418
3750929667
3750935465
3750940531
3750946024
3750950480
3750956461
3750961466
3750966166
3750973002
3750979533
3750984416
3750991068
3750995463
3751003031
3751007487
3751012309
3751018534
3751023783
3751030863
3751040507
3751047037
3751051737
3751058634
3751063761
3751068522
3751075114
3751080301
3751086710
3751091471
3751097635
3751104715
3751110392
3751116129
3751121622
3751124979
3751131754
3751136332
3751142679
3751147806
3751153666
3751158304
3751164713
3751168558
3751173746
3751180155
3751184000
3751189798
3751196146
3751199442
3751207132
3751211710
3751218302
3751223673
3751228311
3751234415
3751239786
3751245950
3751251688
3751257059
3751262125
3751266702
3751271219
3751277506
3751283365
3751288492
3751293253
3751300455
3751303812
3751310342
3751316263
3751321878
3751327371
3751332132
3751335672
3751344766
3751350381
3751355142
3751361246
3751366922
3751370889
3751375955
3751381875
3751386392
3751392373
3751397867
3751403055
3751407632
3751413858
3751418191
3751423929
3751428689
3751433084
3751438333
3751445352
3751449563
3751455972
3751460427
3751464578
3751472207
3751479043
3751486001
3751494729
3751501199
3751508828
3751515603
3751523965
3751531045
3751537698
3751544351
3751551125
3751558328
3751565713
3751573831
3751581155
3751588479
3751594704
3751601296
3751608010
3751614480
3751620827
3751626015
3751631264
3751636330
3751642251
3751647866
3751652932
3751658547
3751664223
3751670083
3751675637
3751681679
3751686867
3751692727
3751699318
3751703957
3751711037
3751717080
3751722085
3751728188
3751733620
3751738381
3751743874
3751750222
3751755410
3751761513
3751766030
3751771462
3751776100
3751780800
3751786293
3751792092
3751797585
3751803139
3751807900
3751812599
3751818093
3751824196
3751830849
3751836586
3751841347
3751845864
3751850563
3751857704
3751863075
3751868263
3751876320
3751881386
3751885597
3751891029
3751897316
3751901588
3751906471
3751912697
3751916969
3751923195
3751929115
3751934486
3751939247
3751943947
3751949806
3751954811
3751960060
3751965004
3751969704
3751975136
3751978493
3751985390
3751991859
3751998085
3752003395
3752007118
3752013710
3752018104
3752025673
3752031898
3752038429
3752042396
3752049171
3752053688
3752059852
3752068397
3752073280
3752078590
3752084022
3752089698
3752094764
3752100990
3752106178
3752112953
3752119178
3752126075
3752131385
3752137184
3752144081
3752147987
3752153358
3752158424
3752163123
3752170570
3752176124
3752180518
3752185706
3752195289
3752199989
3752207252
3752212623
3752216956
3752223487
3752229896
3752234717
3752241675
3752246131
3752252967
3752258460
3752264747
3752269691
3752274207
3752279761
3752287147
3752291968
3752297339
3752302710
3752307715
3752314856
3752321814
3752325843
3752333655
3752338721
3752343970
3752350135
3752355079
3752361792
3752367286
3752372229
3752378699
3752383521
3752389746
3752398108
3752402442
3752408362
3752413123
3752419043
3752424903
3752430579
3752438880
3752444434
3752450537
3752456275
3752464880
3752471045
3752475623
3752481604
3752486670
3752491797
3752499365
3752504919
3752510474
3752516272
3752522620
3752527136
3752532690
3752538061
3752545569
3752552710
3752557043
3752561743
3752569311
3752576697
3752581152
3752588965
3752595801
3752599646
3752606848
3752611670
3752617834
3752623999
3752629614
3752634497
3752641089
3752644262
3752651342
3752656958
3752661657
3752669104
3752674841
3752679968
3752685766
3752690893
3752696020
3752702001
3752706762
3752713842
3752718420
3752725439
3752731603
3752736242
3752741308
3752746984
3752753027
3752757665
3752763769
3752769628
3752775549
3752780065
3752785680
3752791418
3752797704
3752803014
3752807714
3752814977
3752820470
3752825964
3752832922
3752838781
3752843359
3752848546
3752853002
3752859106
3752864599
3752871252
3752876806
3752880529
3752888341
3752893224
3752897741
3752903173
3752908727
3752915502
3752921544
3752925756
3752932714
3752937536
3752942968
3752949865
3752956517
3752961827
3752967687
3752972814
3752978673
3752985631
3752992528
3752997411
3753004003
3753011998
3753017552
3753024327
3753030126
3753036351
3753040502
3753049352
3753055333
3753062169
3753068456
3753071996
3753078587
3753085545
3753088841
3753095860
3753101781
3753107884
3753112462
3753117345
3753122960
3753128880
3753134679
3753140050
3753144810
3753151402
3753156956
3753160191
3753167393
3753171361
3753178074
3753183384
3753186802
3753194432
3753199070
3753204258
3753211827
3753216160
3753222447
3753227208
3753232518
3753239293
3753244542
3753249913
3753255894
3753263218
3753268467
3753275425
3753280125
3753286228
3753291966
3753296910
3753304661
3753309483
3753316685
3753321873
3753325840
3753331577
3753337315
3753342320
3753347630
3753353367
3753360874
3753366306
3753371983
3753377049
3753380833
3753388401
3753394444
3753409092
3753413547
3753420505
3753425144
3753431614
3753437473
3753442966
3753449924
3753455356
3753462559
3753467747
3753473728
3753480503
3753485386
3753491672
3753498386
3753504123
3753511936
3753515964
3753522373
3753527439
3753532505
3753538669
3753543613
3753548496
3753554538
3753558750
3753564060
3753571201
3753575412
3753579563
3753586399
3753590976
3753595920
3753602146
3753606845
3753611911
3753616794
3753621799
3753627414
3753633151
3753640476
3753646274
3753651157
3753656223
3753661166
3753666782
3753674533
3753678745
3753685336
3753690402
3753695651
3753701022
3753707126
3753713657
3753719943
3753723849
3753730197
3753734775
3753740817
3753748263
3753752719
3753757297
3753763888
3753768893
3753774081
3753780551
3753786899
3753792026
3753796542
3753802707
3753808688
3753815707
3753821017
3753826144
3753832187
3753838351
3753844149
3753850009
3753857943
3753863497
3753869662
3753876620
3753881198
3753888400
3753894320
3753899813
3753905245
3753910617
3753915194
3753921725
3753926913
3753933810
3753939547
3753943636
3753951449
3753957736
3753965304
3753970736
3753975985
3753982455
3753987643
3753992037
3753998995
3754004916
3754009981
3754015475
3754021090
3754026217
3754031344
3754037264
3754044222
3754049105
3754053988
3754059725
3754065584
3754070955
3754077730
3754083468
3754089144
3754093233
3754099642
3754103731
3754108797
3754116488
3754120394
3754125704
3754132479
3754136385
3754143831
3754149996
3754155733
3754160738
3754165377
3754170931
3754177767
3754182650
3754187532
3754193514
3754199800
3754204561
3754210054
3754217439
3754223177
3754228670
3754233736
3754239839
3754244112
3754250032
3754255708
3754261263
3754269014
3754274812
3754280122
3754286775
3754292757
3754299287
3754305269
3754311006
3754317964
3754324068
3754330415
3754336030
3754340791
3754347078
3754353670
3754359712
3754365510
3754370881
3754376741
3754382112
3754387849
3754393464
3754398774
3754405244
3754414033
3754420625
3754425630
3754431855
3754437349
3754441865
3754447175
3754453279
3754459443
3754464448
3754469880
3754475556
3754481599
3754488557
3754493562
3754499177
3754504853
3754509919
3754516938
3754522126
3754528291
3754533235
3754537141
3754543977
3754550691
3754560639
3754566804
3754572541
3754576569
3754583161
3754588471
3754593537
3754601472
3754607270
3754611970
3754617890
3754622224
3754627839
3754633088
3754638886
3754645295
3754652070
3754657136
3754662995
3754668610
3754674347
3754679596
3754685212
3754690827
3754696442
3754702546
3754709015
3754714142
3754719696
3754724640
3754731720
3754737763
3754745026
3754748993
3754756134
3754761505
3754766388
3754771271
3754780060
3754786164
3754790680
3754797089
3754804108
3754810761
3754815888
3754820343
3754827484
3754831757
3754839081
3754844086
3754850800
3754856720
3754862518
3754868012
3754873688
3754879425
3754886566
3754892548
3754899139
3754906036
3754910736
3754916290
3754920929
3754927582
3754932892
3754938934
3754944610
3754951324
3754956207
3754963104
3754968475
3754973846
3754979217
3754984466
3754989593
3754994293
3754999542
3755008636
3755014068
3755018524
3755024505
3755030914
3755036163
3755041778
3755047821
3755052276
3755057281
3755062957
3755068023
3755073638
3755079193
3755086151
3755091217
3755096160
3755101776
3755106597
3755113189
3755119048
3755123260
3755128692
3755133636
3755139190
3755146331
3755151092
3755157012
3755163055
3755168426
3755173675
3755179473
3755185821
3755191680
3755198638
3755205169
3755209563
3755218352
3755223662
3755227752
3755234405
3755240081
3755244597
3755253081
3755258880
3755264617
3755270171
3755276092
3755280364
3755286712
3755291350
3755297393
3755303130
3755308196
3755313445
3755319182
3755324614
3755332244
3755338958
3755343657
3755350920
3755356963
3755363372
3755367339
3755373320
3755379729
3755384795
3755390105
3755395903
3755401824
3755407744
3755412444
3755419280
3755425200
3755429595
3755436308
3755442534
3755447844
3755453032
3755460173
3755466582
3755471770
3755476897
3755481779
3755488737
3755493559
3755497771
3755504668
3755509672
3755514250
3755520476
3755524748
3755531096
3755536162
3755542937
3755548186
3755553313
3755558317
3755563261
3755570952
3755575712
3755581389
3755585783
3755592070
3755596769
3755602507
3755607695
3755613798
3755619047
3755623930
3755629911
3755635710
3755642851
3755647856
3755653532
3755658781
3755664396
3755669523
3755676054
3755681364
3755687284
3755691191
3755697599
3755703398
3755709196
3755715849
3755721098
3755726347
3755731474
3755736418
3755741422
3755747953
3755752775
3755758390
3755763151
3755768827
3755774442
3755780485
3755786283
3755793790
3755799528
3755804655
3755811002
3755815824
3755820829
3755826444
3755831571
3755837369
3755841154
3755848600
3755851346
3755858671
3755864164
3755870145
3755874662
3755880155
3755885770
3755890897
3755896146
3755901334
3755907621
3755913480
3755917936
3755924161
3755929349
3755934842
3755939786
3755944852
3755950101
3755955533
3755960416
3755966397
3755970792
3755976102
3755982205
3755988309
3755993924
3755999845
3756005399
3756010159
3756015592
3756021085
3756026883
3756032803
3756038968
3756043179
3756048184
3756054471
3756060147
3756065579
3756072354
3756076993
3756082486
3756088773
3756093411
3756099149
3756103238
3756110501
3756115018
3756121548
3756127652
3756132657
3756139859
3756146084
3756152005
3756155789
3756161709
3756168484
3756174038
3756179104
3756185818
3756192471
3756195218
3756203152
3756209134
3756217801
3756232632
3756241116
3756249722
3756257962
3756266384
3756273770
3756281094
3756288906
3756299954
3756306179
3756313198
3756320522
3756326443
3756332241
3756338040
3756343716
3756350185
3756355923
3756362331
3756367886
3756374416
3756379848
3756385769
3756391689
3756397182
3756403164
3756408718
3756415249
3756419460
3756426662
3756431911
3756438259
3756443569
3756448391
3756454372
3756461025
3756467922
3756472133
3756478786
3756482753
3756489467
3756493862
3756500820
3756506191
3756511684
3756518032
3756523342
3756528225
3756534023
3756540859
3756545925
3756552211
3756557521
3756562831
3756568691
3756573940
3756580104
3756584865
3756591640
3756597011
3756603053
3756608364
3756613551
3756619960
3756626552
3756631496
3756636989
3756642848
3756647975
3756653224
3756659572
3756665370
3756672023
3756674953
3756684413
3756690089
3756696376
3756702296
3756708644
3756715297
3756721278
3756728053
3756734645
3756739772
3756745936
3756752589
3756756984
3756762660
3756768153
3756772792
3756778590
3756783473
3756789699
3756796412
3756801844
3756807277
3756812831
3756818568
3756824488
3756830958
3756836329
3756842982
3756846888
3756854090
3756859462
3756865565
3756870509
3756876612
3756881983
3756887477
3756893702
3756899134
3756903773
3756909998
3756916651
3756922022
3756927516
3756933863
3756938746
3756943018
3756950953
3756956324
3756962489
3756968043
3756974329
3756978541
3756984705
3756990198
3756995814
3757001429
3757008082
3757013270
3757018824
3757024927
3757029139
3757035792
3757040064
3757048304
3757053248
3757059351
3757064295
3757070704
3757076197
3757082178
3757087305
3757094202
3757099756
3757104151
3757111475
3757117640
3757122644
3757128016
3757134546
3757140161
3757146326
3757152063
3757157556
3757163111
3757168482
3757176050
3757179773
3757187158
3757192346
3757198633
3757204675
3757211267
3757216821
3757222559
3757227442
3757235376
3757244409
3757251672
3757257715
3757263574
3757269739
3757276758
3757282556
3757287134
3757293237
3757298852
3757304651
3757310449
3757316308
3757322717
3757327112
3757333642
3757337671
3757345178
3757349939
3757358301
3757364770
3757375451
3757381860
3757388452
3757393701
3757398217
3757405114
3757412378
3757419458
3757423425
3757430322
3757433129
3757441552
3757447839
3757452844
3757458154
3757463281
3757469445
3757473413
3757479943
3757483666
3757490380
3757494775
3757500695
3757507409
3757512414
3757518212
3757523461
3757530785
3757535119
3757540429
3757544824
3757551171
3757554833
3757561181
3757567101
3757572655
3757577904
3757582055
3757587426
3757592004
3757598839
3757605675
3757611230
3757616479
3757621239
3757626671
3757631798
3757637475
3757644311
3757649376
3757653710
3757660668
3757664452
3757670128
3757676598
3757682763
3757688622
3757692833
3757698510
3757703515
3757710106
3757713707
3757721337
3757728295
3757735070
3757741417
3757746849
3757752587
3757758324
3757764305
3757771019
3757777855
3757784203
3757790489
3757795006
3757800804
3757805992
3757812767
3757817833
3757822899
3757827965
3757832787
3757837364
3757842735
3757849815
3757853844
3757859703
3757864098
3757872154
3757878563
3757885826
3757889793
3757895836
3757902611
3757909508
3757915550
3757919517
3757926170
3757930931
3757936180
3757940697
3757945823
3757951195
3757956810
3757963890
3757968590
3757973778
3757977928
3757983055
3757987449
3757993004
3757999595
3758003746
3758010215
3758013633
3758020042
3758024253
3758031150
3758035789
3758040916
3758046653
3758051780
3758056968
3758060813
3758066307
3758072654
3758077842
3758082969
3758088035
3758093040
3758098777
3758103599
3758109153
3758115501
3758121116
3758125388
3758131065
3758135520
3758140464
3758147422
3758152793
3758158714
3758162498
3758169761
3758175803
3758181297
3758187705
3758192344
3758198753
3758204673
3758210593
3758216880
3758222678
3758229148
3758235557
3758241111
3758246909
3758253135
3758261130
3758267661
3758273337
3758279502
3758282981
3758289878
3758296470
3758302390
3758307212
3758311484
3758318015
3758323935
3758329062
3758334861
3758342002
3758347983
3758353415
3758359275
3758366965
3758373007
3758379355
3758384543
3758389548
3758396445
3758402548
3758408103
3758412924
3758419089
3758423972
3758431540
3758437216
3758442282
3758447897
3758451621
3758458273
3758462241
3758469138
3758473776
3758480002
3758484946
3758491171
3758497824
3758503378
3758507590
3758514120
3758519736
3758525290
3758529867
3758535238
3758541708
3758547751
3758552450
3758556540
3758563986
3758569540
3758575705
3758580404
3758586630
3758591452
3758597494
3758603720
3758609396
3758614889
3758620565
3758626364
3758630331
3758638143
3758642843
3758648825
3758654257
3758659628
3758666220
3758670004
3758676168
3758682699
3758688619
3758694662
3758699850
3758705038
3758710165
3758715658
3758725424
3758731588
3758736837
3758741537
3758748678
3758753011
3758760275
3758765340
3758774618
3758780233
3758785726
3758792562
3758796712
3758804891
3758810018
3758815816
3758821737
3758827169
3758832906
3758839132
3758844991
3758850423
3758856099
3758862264
3758867574
3758872396
3758879293
3758884176
3758891866
3758900167
3758905965
3758911275
3758915548
3758920613
3758927938
3758932698
3758941671
3758947713
3758955892
3758966329
3758974080
3758981099
3758985005
3758992024
3758998250
3759004292
3759010335
3759016499
3759023213
3759029744
3759034932
3759041646
3759048177
3759054158
3759059773
3759065877
3759071309
3759077595
3759083516
3759089009
3759094746
3759099446
3759105794
3759112263
3759119282
3759125142
3759129658
3759135945
3759141621
3759148762
3759154378
3759159688
3759165425
3759170430
3759176106
3759182576
3759187764
3759193379
3759199665
3759205525
3759211201
3759216450
3759222615
3759226338
3759233479
3759239033
3759245137
3759250874
3759256916
3759263569
3759267964
3759275837
3759281452
3759286946
3759292500
3759299091
3759306965
3759312397
3759317280
3759323200
3759328510
3759334431
3759340473
3759346027
3759351887
3759356098
3759366230
3759372272
3759379414
3759384357
3759392353
3759399006
3759404865
3759411579
3759416645
3759423298
3759427936
3759432941
3759440265
3759445575
3759451069
3759457905
3759462299
3759469074
3759474018
3759478717
3759485309
3759491474
3759496418
3759500751
3759507038
3759513263
3759520343
3759525104
3759531818
3759537494
3759543964
3759549213
3759554889
3759560443
3759565875
3759572223
3759577655
3759583698
3759587787
3759593952
3759599384
3759606403
3759609332
3759617328
3759623309
3759629413
3759634906
3759640643
3759646259
3759651813
3759657245
3759663898
3759668597
3759674152
3759679706
3759685321
3759691852
3759697894
3759702716
3759709003
3759713702
3759720233
3759724994
3759730670
3759736957
3759745135
3759749347
3759756305
3759761004
3759768451
3759773028
3759779559
3759788043
3759793719
3759799151
3759805072
3759811175
3759815631
3759824847
3759830889
3759836199
3759840655
3759846026
3759852313
3759857867
3759863604
3759869280
3759875079
3759879351
3759886614
3759890887
3759897540
3759901629
3759911639
3759916338
3759924578
3759929949
3759935198
3759941058
3759946978
3759952715
3759955218
3759963763
3759967730
3759975237
3759980486
3759985918
3759991595
3759997088
3760002825
3760006914
3760014422
3760019121
3760025225
3760030291
3760037798
3760041948
3760047808
3760054339
3760060015
3760065874
3760071734
3760077837
3760082476
3760089678
3760093889
3760100908
3760105120
3760111101
3760115129
3760123491
3760129167
3760135271
3760139604
3760145769
3760151384
3760157488
3760162004
3760168230
3760175737
3760180132
3760186540
3760190691
3760198320
3760203813
3760209001
3760215715
3760221025
3760225420
3760231523
3760238054
3760242082
3760249406
3760255388
3760260271
3760266069
3760271379
3760276933
3760282854
3760289751
3760296220
3760302934
3760308427
3760313859
3760319108
3760326005
3760332841
3760342485
3760348039
3760354570
3760358842
3760365068
3760369706
3760379350
3760384050
3760390275
3760395219
3760400956
3760406205
3760412797
3760418107
3760422502
3760430314
3760435075
3760441362
3760445756
3760453752
3760462235
3760470414
3760476762
3760482194
3760487809
3760492082
3760499162
3760503312
3760509904
3760516435
3760522660
3760525468
3760533341
3760538224
3760544389
3760550309
3760555009
3760560807
3760566422
3760572709
3760578202
3760584122
3760589554
3760595170
3760601029
3760605851
3760610001
3760617386
3760621354
3760628678
3760631486
3760639420
3760645585
3760651444
3760655900
3760663346
3760668229
3760672379
3760679276
3760686478
3760692032
3760696183
3760701981
3760707718
3760712906
3760721207
3760726944
3760733048
3760738480
3760744767
3760749405
3760754837
3760762161
3760767044
3760774307
3760780289
3760787491
3760791947
3760798721
3760803848
3760808304
3760816849
3760825028
3760831070
3760835709
3760840103
3760845779
3760853226
3760859451
3760866104
3760873062
3760878738
3760883621
3760888443
3760894119
3760900650
3760906448
3760910599
3760917129
3760922073
3760928787
3760934036
3760939163
3760944290
3760949356
3760957168
3760963333
3760969253
3760975418
3760980240
3760985916
3760991165
3760997085
3761002456
3761008010
3761012527
3761018264
3761023269
3761029617
3761034256
3761039505
3761046218
3761049880
3761056533
3761061660
3761067336
3761073318
3761078567
3761086624
3761091323
3761097610
3761102493
3761108352
3761115005
3761120254
3761127639
3761133315
3761138015
3761143813
3761150527
3761156387
3761160598
3761167739
3761173171
3761179031
3761184646
3761189895
3761195449
3761199660
3761206985
3761213332
3761218337
3761223220
3761230361
3761234633
3761240920
3761247451
3761251601
3761259658
3761262465
3761271315
3761275649
3761283583
3761289626
3761294936
3761300490
3761304518
3761312697
3761317397
3761324904
3761332106
3761336379
3761342482
3761347853
3761352980
3761358962
3761366957
3761374709
3761380568
3761385146
3761392287
3761396559
3761401503
3761408095
3761414259
3761418959
3761423476
3761431044
3761436171
3761441847
3761447707
3761452773
3761458632
3761464308
3761470167
3761476088
3761481886
3761487685
3761494704
3761499953
3761505690
3761511488
3761517470
3761521864
3761527479
3761532728
3761538588
3761544813
3761548475
3761556349
3761561171
3761567030
3761572706
3761579725
3761585707
3761589735
3761596327
3761600355
3761606886
3761610975
3761620192
3761625074
3761630995
3761636000
3761642103
3761648512
3761652662
3761659742
3761663893
3761670790
3761674940
3761681288
3761687696
3761692396
3761696546
3761704237
3761709486
3761715528
3761720777
3761726942
3761732984
3761738721
3761744398
3761750013
3761755201
3761760328
3761767225
3761773450
3761779615
3761784803
3761791761
3761796949
3761803541
3761808729
3761814283
3761820386
3761824415
3761831922
3761837415
3761844434
3761848768
3761855481
3761861341
3761866834
3761872449
3761878247
3761883802
3761888562
3761896619
3761902478
3761908704
3761914136
3761921643
3761927625
3761932141
3761938916
3761943067
3761950330
3761955884
3761962415
3761965467
3761973035
3761979688
3761985242
3761990674
3761996350
3762002393
3762008862
3762015881
3762019055
3762027295
3762033337
3762037976
3762043896
3762049939
3762054700
3762060864
3762065503
3762071851
3762077954
3762084241
3762089368
3762095166
3762101208
3762106701
3762112378
3762116650
3762123730
3762127881
3762135083
3762141858
3762146740
3762151684
3762157727
3762162915
3762169018
3762173657
3762181530
3762186840
3762192334
3762198376
3762203869
3762208813
3762214367
3762220593
3762226574
3762232800
3762235485
3762243725
3762246594
3762254040
3762259533
3762265820
3762272717
3762278271
3762283947
3762289684
3762295056
3762301037
3762307446
3762313732
3762318676
3762325207
3762330273
3762334545
3762341808
3762347301
3762353527
3762358166
3762364330
3762370312
3762375805
3762380566
3762387462
3762392040
3762399608
3762407116
3762411388
3762418102
3762422130
3762430004
3762435802
3762441234
3762449413
3762455578
3762461071
3762466564
3762473095
3762477306
3762484020
3762490917
3762495739
3762501903
3762506908
3762511913
3762520092
3762523693
3762531261
3762535228
3762541149
3762547801
3762553844
3762559825
3762566722
3762573253
3762578319
3762584300
3762590343
3762595897
3762601146
3762606639
3762612987
3762619884
3762624400
3762629771
3762635692
3762641185
3762647227
3762651317
3762658824
3762664867
3762669566
3762674754
3762680797
3762685741
3762691905
3762697520
3762703990
3762708385
3762714366
3762720408
3762726085
3762732371
3762737742
3762742503
3762748118
3762755504
3762759654
3762766734
3762771373
3762777476
3762783152
3762789683
3762795115
3762800669
3762806956
3762812388
3762817820
3762823313
3762829417
3762833567
3762840098
3762844004
3762850230
3762856028
3762860484
3762864390
3762871775
3762877268
3762883250
3762887644
3762893260
3762897044
3762903880
3762908946
3762914072
3762919627
3762925547
3762932078
3762941599
3762947398
3762958079
3762963999
3762970164
3762976877
3762982798
3762990244
3762996042
3763002573
3763008066
3763013254
3763018198
3763024485
3763029978
3763034250
3763042246
3763047434
3763053476
3763056284
3763064402
3763070200
3763076487
3763081980
3763088205
3763092844
3763100473
3763107614
3763113108
3763118784
3763124338
3763129648
3763135080
3763140695
3763144968
3763152475
3763156748
3763163828
3763169504
3763176279
3763181955
3763187631
3763191599
3763198984
3763203500
3763208872
3763213510
3763219736
3763225717
3763231027
3763237680
3763241830
3763248788
3763254892
3763261240
3763265878
3763271921
3763276559
3763283029
3763289194
3763294626
3763300058
3763306344
3763313363
3763319284
3763324106
3763329294
3763336740
3763341562
3763347238
3763353647
3763359079
3763365060
3763369088
3763376352
3763381906
3763386239
3763392953
3763396920
3763403817
3763408395
3763415536
3763420541
3763426034
3763433114
3763437387
3763443551
3763447885
3763454171
3763459847
3763466500
3763473275
3763478829
3763483712
3763489755
3763494637
3763501534
3763506661
3763515511
3763521310
3763526864
3763532540
3763537362
3763542794
3763549813
3763554940
3763562386
3763567696
3763572579
3763577279
3763584054
3763589669
3763596200
3763601510
3763605965
3763610299
3763613534
3763619271
3763622811
3763628548
3763634469
3763638131
3763641976
3763646615
3763650948
3763654854
3763657906
3763662911
3763667672
3763671700
3763676705
3763680123
3763686104
3763690743
3763695015
3763699471
3763703621
3763707650
3763710701
3763716255
3763719368
3763724556
3763729805
3763733406
3763737618
3763742317
3763745980
3763750435
3763754769
3763759407
3763764839
3763768257
3763773811
3763778084
3763782906
3763785042
3763791756
3763796700
3763802010
3763806648
3763810432
3763812935
3763818855
3763824287
3763828072
3763834358
3763838631
3763842781
3763847053
3763851082
3763855354
3763858833
3763863899
3763869575
3763871895
3763878242
3763882759
3763886360
3763890755
3763894600
3763899422
3763905647
3763910835
3763914497
3763919197
3763923530
3763927070
3763932380
3763936470
3763942878
3763947456
3763952705
3763956794
3763961860
3763967048
3763971504
3763975776
3763980232
3763985603
3763989021
3763997566
3764003059
3764007453
3764009590
3764016609
3764020271
3764025825
3764029304
3764035407
3764041450
3764047920
3764052680
3764056526
3764061469
3764063850
3764069770
3764075263
3764080329
3764083686
3764088630
3764091987
3764096870
3764101447
3764107185
3764111884
3764116462
3764121040
3764125739
3764130622
3764134895
3764138679
3764143378
3764149116
3764155707
3764159736
3764163215
3764169379
3764173835
3764177985
3764184150
3764189094
3764192512
3764197822
3764202704
3764207770
3764211677
3764216498
3764222846
3764227790
3764232001
3764237800
3764241462
3764247443
3764250007
3764256842
3764263861
3764268683
3764273749
3764278327
3764283393
3764287726
3764292182
3764299140
3764303473
3764309943
3764314398
3764320075
3764324774
3764330817
3764334235
3764341010
3764345954
3764352057
3764357611
3764361701
3764367194
3764372687
3764378241
3764386054
3764392767
3764397101
3764403998
3764408209
3764413886
3764418280
3764425360
3764432379
3764439276
3764442084
3764450018
3764454108
3764459723
3764463629
3764469000
3764475104
3764479864
3764485419
3764489142
3764495550
3764500372
3764505560
3764511236
3764517340
3764523260
3764528021
3764533026
3764539862
3764544500
3764549810
3764557257
3764562689
3764567999
3764573858
3764576239
3764584661
3764589666
3764594671
3764600103
3764605474
3764610784
3764617254
3764621588
3764627813
3764632208
3764637945
3764643743
3764648809
3764653570
3764659673
3764665960
3764669866
3764676275
3764680242
3764686529
3764689275
3764695867
3764701727
3764708501
3764712713
3764719549
3764723943
3764728826
3764734624
3764740423
3764745184
3764751653
3764756902
3764761602
3764767827
3764771917
3764778203
3764783697
3764788885
3764794012
3764799505
3764803716
3764809698
3764815374
3764819585
3764825200
3764830633
3764836614
3764842046
3764848638
3764855108
3764860357
3764866887
3764875310
3764883123
3764889897
3764897588
3764903142
3764912603
3764918096
3764925786
3764933721
3764942266
3764947392
3764957036
3764965947
3764975163
3764981816
3764987920
3764997319
3765006780
3765015324
3765022038
3765026616
3765037846
3765045109
3765054326
3765061284
3765070256
3765078679
3765083623
3765093144
3765101567
3765110661
3765115178
3765125126
3765130314
3765136174
3765143864
3765149785
3765156620
3765163823
3765168461
3765178959
3765185002
3765195500
3765201847
3765206974
3765214604
3765218815
3765229557
3765236637
3765244389
3765251164
3765259342
3765271061
3765277897
3765286869
3765291935
3765298710
3765306400
3765313541
3765318058
3765327274
3765333439
3765340519
3765348392
3765352299
3765361515
3765367435
3765375919
3765383915
3765390018
3765398502
3765400272
3765410038
3765414982
3765422123
3765427799
3765433048
3765438297
3765444523
3765448917
3765455570
3765459781
3765465580
3765471256
3765476871
3765482059
3765487247
3765494205
3765499271
3765504886
3765509403
3765514591
3765520145
3765525516
3765528263
3765536441
3765541385
3765546268
3765550479
3765556461
3765560794
3765566959
3765571536
3765577213
3765582767
3765587100
3765593509
3765598148
3765603030
3765607547
3765613406
3765620181
3765625308
3765629703
3765635074
3765641299
3765646487
3765651187
3765656131
3765662845
3765668338
3765674686
3765679568
3765685367
3765691043
3765695376
3765703128
3765710269
3765718326
3765727908
3765736026
3765742129
3765747989
3765753726
3765757510
3765764468
3765768557
3765775454
3765782962
3765787051
3765792727
3765798648
3765803103
3765808779
3765815310
3765820315
3765826296
3765831179
3765835940
3765841067
3765846194
3765852664
3765857058
3765863223
3765869326
3765874209
3765881411
3765887392
3765895022
3765902956
3765907595
3765913515
3765918887
3765924807
3765929690
3765934512
3765939272
3765946902
3765951662
3765958498
3765963564
3765969057
3765974428
3765980654
3765985537
3765990603
3765998476
3766003725
3766006655
3766013247
3766017702
3766023867
3766028261
3766035097
3766041262
3766047365
3766053225
3766058290
3766062502
3766067141
3766073488
3766077150
3766084413
3766090212
3766094911
3766097658
3766106691
3766109682
3766116884
3766121889
3766128359
3766134889
3766142031
3766148134
3766151430
3766158571
3766163088
3766168337
3766174440
3766180238
3766185182
3766192018
3766196840
3766204408
3766209108
3766214113
3766220216
3766224672
3766230714
3766238771
3766244386
3766248781
3766255678
3766258729
3766265993
3766270875
3766276735
3766281862
3766288392
3766295045
3766299989
3766305848
3766309083
3766319642
3766322694
3766330262
3766337037
3766344362
3766349244
3766356385
3766361329
3766367006
3766374330
3766378419
3766387330
3766391847
3766398988
3766403810
3766408876
3766414064
3766418946
3766423219
3766429139
3766436280
3766441590
3766446046
3766453187
3766458436
3766465699
3766469178
3766477479
3766485352
3766491700
3766497742
3766505128
3766510743
3766516419
3766521546
3766526063
3766532532
3766538392
3766541871
3766548157
3766554078
3766558350
3766561097
3766568360
3766575806
3766581299
3766584290
3766590699
3766594910
3766600831
3766606568
3766611878
3766617737
3766623353
3766629517
3766632996
3766639466
3766644593
3766649659
3766653992
3766659485
3766666748
3766672608
3766677979
3766684815
3766687928
3766695008
3766701294
3766706238
3766713623
3766719361
3766724304
3766730774
3766740112
3766747254
3766751831
3766757691
3766763428
3766767029
3766774475
3766779419
3766785523
3766791443
3766796631
3766801331
3766809998
3766815979
3766821838
3766827759
3766833069
3766839050
3766844421
3766848999
3766856323
3766861450
3766867859
3766872558
3766878723
3766884949
3766890014
3766894653
3766900024
3766906860
3766914123
3766921692
3766926758
3766931640
3766937439
3766943603
3766948547
3766954834
3766959472
3766967712
3766973022
3766978454
3766984008
3766988952
3766993164
3766999145
3767005004
3767011291
3767015747
3767022766
3767026977
3767032287
3767038391
3767043090
3767049072
3767053649
3767060241
3767064880
3767070739
3767075622
3767081970
3767087280
3767092956
3767098754
3767106322
3767109496
3767116149
3767122008
3767126891
3767132568
3767138061
3767142516
3767149413
3767154418
3767158446
3767164916
3767169189
3767175536
3767180358
3767185485
3767192016
3767197143
3767202514
3767207641
3767211974
3767218139
3767222350
3767227416
3767233519
3767239928
3767245604
3767250121
3767255797
3767261412
3767265746
3767270018
3767276671
3767282347
3767289183
3767292662
3767299681
3767305052
3767310485
3767316222
3767321715
3767328795
3767335753
3767340392
3767347228
3767351744
3767358092
3767363036
3767368163
3767373778
3767380736
3767385924
3767388670
3767397582
3767403014
3767408324
3767412962
3767418700
3767425719
3767432188
3767436583
3767443358
3767448118
3767453795
3767458433
3767464720
3767469847
3767476561
3767481810
3767484617
3767495665
3767500242
3767507933
3767512083
3767520750
3767524168
3767532713
3767539976
3767545530
3767550230
3767556761
3767561216
3767567259
3767570921
3767578672
3767583250
3767589781
3767595091
3767601499
3767605711
3767613157
3767618040
3767625059
3767629392
3767635740
3767640379
3767645323
3767648313
3767655454
3767661924
3767669859
3767679075
3767684690
3767691099
3767695310
3767701048
3767706480
3767713621
3767718381
3767723569
3767730833
3767737730
3767742673
3767748777
3767754758
3767760801
3767765562
3767771848
3767777402
3767782285
3767786680
3767792844
3767797300
3767800962
3767809568
3767814267
3767819150
3767822019
3767831052
3767836789
3767842405
3767846555
3767854734
3767859555
3767865842
3767870908
3767875302
3767882383
3767887387
3767893125
3767899350
3767905149
3767908444
3767916318
3767920896
3767927060
3767931638
3767937924
3767945676
3767951230
3767958127
3767963559
3767968686
3767975461
3767980832
3767984128
3767992123
3767998776
3768004025
3768008481
3768015073
3768022397
3768027890
3768032468
3768038449
3768044797
3768052853
3768057370
3768062985
3768069028
3768074643
3768080868
3768086850
3768093197
3768098935
3768106259
3768111447
3768117795
3768122982
3768129574
3768134152
3768142819
3768148434
3768156735
3768162106
3768167111
3768173092
3768177426
3768182003
3768188900
3768193173
3768199887
3768203854
3768210324
3768213253
3768221249
3768224850
3768231014
3768237423
3768243954
3768248409
3768256283
3768262020
3768269589
3768274288
3768279415
3768287533
3768293392
3768298885
3768305477
3768312496
3768316158
3768322445
3768326473
3768333309
3768339840
3768344784
3768350948
3768355343
3768360897
3768366024
3768369076
3768375973
3768380977
3768387386
3768391903
3768399044
3768403499
3768408809
3768414608
3768418209
3768424862
3768429989
3768436031
3768440670
3768445552
3768449886
3768456356
3768459224
3768465694
3768472408
3768478023
3768481441
3768489254
3768494075
3768501399
3768506099
3768512874
3768517940
3768524166
3768530147
3768533809
3768540645
3768545101
3768552242
3768557857
3768563289
3768569759
3768575069
3768577876
3768585689
3768590694
3768595638
3768601863
3768607600
3768614680
3768620418
3768625301
3768630000
3768635249
3768641658
3768647090
3768650203
3768657466
3768662105
3768669002
3768673152
3768679927
3768685969
3768691462
3768698481
3768703486
3768711299
3768718745
3768724299
3768731746
3768736262
3768742427
3768748408
3768753657
3768760310
3768765315
3768769648
3768776728
3768781306
3768787837
3768792048
3768797785
3768802973
3768808100
3768815058
3768818354
3768825556
3768829524
3768835627
3768839839
3768846674
3768851618
3768860407
3768864863
3768872675
3768878352
3768883173
3768888483
3768895075
3768901850
3768907587
3768912592
3768917536
3768923701
3768928583
3768933039
3768938532
3768945734
3768951838
3768957453
3768963373
3768967829
3768975153
3768979792
3768986262
3768991266
3768998041
3769005671
3769010798
3769017206
3769022760
3769028132
3769033442
3769039118
3769046747
3769052423
3769055658
3769063044
3769067865
3769075006
3769079767
3769085321
3769091547
3769096308
3769103998
3769108515
3769114008
3769118707
3769125177
3769131647
3769135370
3769143915
3769149591
3769156000
3769162775
3769167963
3769174005
3769181390
3769186517
3769194452
3769196222
3769203851
3769209833
3769217767
3769224786
3769230707
3769234003
3769242547
3769248407
3769255914
3769260431
3769266107
3769272394
3769277398
3769282770
3769289239
3769295648
3769302728
3769309442
3769315301
3769320855
3769325616
3769331659
3769338311
3769343133
3769349115
3769357598
3769364007
3769368768
3769375848
3769380426
3769386651
3769389459
3769395867
3769400445
3769408135
3769413507
3769418939
3769423699
3769429803
3769434747
3769441216
3769446465
3769452813
3769458001
3769462151
3769467522
3769474297
3769481500
3769486382
3769493890
3769499444
3769506768
3769512627
3769518914
3769523003
3769529595
3769533868
3769540520
3769545098
3769551263
3769556939
3769561516
3769567803
3769572869
3769575615
3769582940
3769588433
3769594964
3769599358
3769604424
3769610161
3769615349
3769621087
3769625847
3769633721
3769639824
3769644158
3769649773
3769655388
3769658928
3769665276
3769670769
3769675591
3769680352
3769686150
3769690544
3769696282
3769702080
3769707573
3769712090
3769717888
3769722588
3769728264
3769732659
3769735527
3769744133
3769749199
3769754265
3769758965
3769764336
3769769096
3769775688
3769781364
3769787224
3769791557
3769797478
3769801689
3769806267
3769813469
3769820854
3769825798
3769830437
3769837456
3769841850
3769847282
3769851860
3769858513
3769864067
3769869133
3769873344
3769879936
3769885612
3769892814
3769898124
3769903495
3769911308
3769917839
3769923149
3769929802
3769935356
3769939201
3769946098
3769950370
3769958122
3769963005
3769969963
3769974601
3769979850
3769986076
3769991203
3769996635
3770001701
3770008293
3770014884
3770018363
3770024040
3770028434
3770034660
3770039359
3770046684
3770051750
3770059623
3770065604
3770070731
3770077811
3770082877
3770088737
3770093497
3770099662
3770103873
3770110831
3770116080
3770121146
3770125785
3770130912
3770136893
3770142142
3770148673
3770153983
3770156791
3770164786
3770170035
3770175101
3770181083
3770186515
3770193778
3770199393
3770205314
3770208609
3770214896
3770220450
3770225333
3770230338
3770235526
3770242972
3770248526
3770254386
3770259269
3770262076
3770270255
3770275504
3770280936
3770286307
3770292960
3770298697
3770304495
3770308951
3770313895
3770320792
3770325614
3770330863
3770336722
3770342276
3770348135
3770354056
3770359915
3770367239
3770370840
3770378104
3770382681
3770388846
3770393118
3770400015
3770404471
3770409964
3770415701
3770420279
3770426138
3770431021
3770437125
3770441336
3770447623
3770452200
3770457022
3770461477
3770468741
3770475760
3770482229
3770485342
3770492849
3770498770
3770503958
3770508719
3770515860
3770522696
3770530813
3770533560
3770541128
3770545828
3770551138
3770556875
3770561941
3770569387
3770575796
3770580679
3770585501
3770591970
3770596121
3770601492
3770608450
3770614126
3770619985
3770625234
3770628164
3770636526
3770639700
3770646719
3770654043
3770659597
3770666494
3770675283
3770679372
3770683767
3770690054
3770694570
3770699636
3770704946
3770710012
3770717275
3770722768
3770727895
3770733022
3770737295
3770742910
3770748525
3770753530
3770760976
3770767141
3770771779
3770776296
3770782522
3770786794
3770793081
3770797048
3770802175
3770810537
3770815542
3770818349
3770825734
3770831044
3770838185
3770844350
3770847890
3770855580
3770861013
3770867421
3770872121
3770878347
3770882375
3770889028
3770894521
3770899648
3770905934
3770912892
3770915883
3770922719
3770928639
3770933766
3770940114
3770946278
3770951222
3770957265
3770962148
3770966603
3770973378
3770977773
3770984731
3770988332
3770997487
3771002309
3771008534
3771011403
3771019032
3771023915
3771029530
3771035634
3771041554
3771045766
3771052418
3771056935
3771060963
3771067433
3771072377
3771078724
3771082753
3771089589
3771096608
3771103322
3771107594
3771115040
3771119923
3771125355
3771132374
3771137684
3771144337
3771149769
3771153981
3771160206
3771165211
3771171498
3771177113
3771181385
3771188404
3771194813
3771199696
3771205921
3771210560
3771215260
3771221729
3771227772
3771232533
3771238148
3771245533
3771249683
3771256580
3771262257
3771267750
3771270557
3771278858
3771284473
3771289844
3771295826
3771300953
3771305164
3771310230
3771316090
3771321949
3771326404
3771332630
3771337269
3771342213
3771349354
3771355152
3771360401
3771364857
3771371509
3771375599
3771382435
3771385792
3771392261
3771397083
3771403858
3771407032
3771413746
3771420826
3771426319
3771431934
3771437061
3771443164
3771449329
3771454395
3771461963
3771469348
3771473438
3771481250
3771485828
3771491199
3771494434
3771502612
3771505603
3771513355
3771519824
3771527820
3771532459
3771538135
3771544971
3771550281
3771555042
3771558032
3771565967
3771573230
3771579089
3771584827
3771590442
3771595081
3771600513
3771606799
3771610156
3771617541
3771624499
3771629809
3771634936
3771640185
3771645068
3771651355
3771656054
3771663379
3771668872
3771675464
3771681811
3771688403
3771693652
3771700793
3771705493
3771712634
3771718249
3771723864
3771732714
3771736804
3771744921
3771749438
3771754748
3771759448
3771766772
3771773852
3771779956
3771785449
3771790759
3771795580
3771801867
3771806445
3771813647
3771819628
3771827319
3771831530
3771836596
3771843310
3771849413
3771855029
3771860888
3771868029
3771875780
3771881396
3771885302
3771891466
3771895617
3771902331
3771907458
3771912463
3771919665
3771924853
3771929919
3771935045
3771940539
3771945299
3771949633
3771955309
3771960070
3771967699
3771972765
3771978747
3771985521
3771990709
3771995226
3771998278
3772005785
3772013720
3772019640
3772022753
3772029711
3772034594
3772040697
3772046984
3772050707
3772058641
3772064012
3772071520
3772075975
3772081285
3772087511
3772092943
3772097521
3772104479
3772110460
3772115892
3772121629
3772127428
3772132311
3772138658
3772143297
3772148119
3772155321
3772162096
3772167406
3772173021
3772178392
3772181505
3772189867
3772194322
3772199754
3772205858
3772212450
3772217149
3772223802
3772228990
3772235277
3772239793
3772246324
3772251146
3772257676
3772264634
3772269090
3772274339
3772280565
3772286851
3772291673
3772299241
3772304429
3772310838
3772314988
3772321702
3772326707
3772334703
3772341355
3772344712
3772352464
3772359788
3772364610
3772370652
3772374925
3772380662
3772385606
3772391221
3772396348
3772404283
3772409471
3772412217
3772419358
3772424119
3772446458
3772450669
3772458237
3772465257
3772470261
3772476670
3772481919
3772488145
3772493455
3772498276
3772504197
3772510239
3772514268
3772520798
3772524705
3772530991
3772536484
3772541672
3772548081
3772555039
3772557908
3772564866
3772569260
3772575058
3772579453
3772585495
3772591660
3772596604
3772602890
3772606369
3772613083
3772617783
3772624680
3772629502
3772635849
3772640122
3772647873
3772652451
3772658921
3772664292
3772669480
3772672226
3772679489
3772685959
3772691391
3772694321
3772701340
3772706040
3772712692
3772718857
3772724655
3772730209
3772736862
3772741806
3772746018
3772752670
3772758286
3772763474
3772769577
3772775253
3772782639
3772789719
3772797287
3772803757
3772810593
3772819870
3772827194
3772834396
3772844589
3772851730
3772860458
3772867050
3772874069
3772881881
3772888168
3772895431
3772903610
3772910507
3772916854
3772922897
3772929672
3772935653
3772939987
3772945358
3772951705
3772956527
3772961471
3772966476
3772970931
3772975509
3772979965
3772984847
3772988632
3772993881
3772998702
3773003097
3773007552
3773012679
3773017623
3773022323
3773026351
3773030746
3773035873
3773040694
3773048141
3773053817
3773059432
3773062972
3773068832
3773073043
3773077682
3773081466
3773087020
3773090804
3773093673
3773100021
3773104659
3773109603
3773114425
3773118575
3773125350
3773128768
3773132552
3773137557
3773142379
3773147017
3773151229
3773156783
3773162642
3773168319
3773172591
3773178389
3773183700
3773188887
3773193526
3773197738
3773204512
3773208724
3773213973
3773219405
3773222884
3773228621
3773234114
3773238082
3773244979
3773249434
3773252425
3773260726
3773263899
3773270491
3773274947
3773281356
3773286910
3773293013
3773297286
3773304732
3773309615
3773317122
3773323470
3773328841
3773334517
3773340559
3773346724
3773351607
3773355818
3773361433
3773367049
3773371748
3773377913
3773383528
3773389143
3773392439
3773400679
3773404951
3773412642
3773415877
3773423628
3773429426
3773435896
3773440230
3773447493
3773452009
3773457930
3773464155
3773469160
3773474775
3773482100
3773487532
3773492659
3773497847
3773500715
3773509321
3773512068
3773518782
3773523542
3773530622
3773533613
3773540388
3773544844
3773550337
3773556013
3773560896
3773566816
3773571577
3773576887
3773584211
3773592512
3773600019
3773605268
3773609846
3773617292
3773623213
3773628889
3773633833
3773638960
3773645612
3773650312
3773654585
3773661115
3773669416
3773674299
3773678815
3773685468
3773690534
3773697004
3773701948
3773707136
3773713544
3773718793
3773724836
3773729841
3773735090
3773740095
3773743207
3773749616
3773755170
3773763044
3773767560
3773774213
3773779523
3773785444
3773790265
3773795697
3773803083
3773809125
3773813825
3773820295
3773826276
3773829450
3773837201
3773842084
3773847577
3773853009
3773859357
3773864850
3773870954
3773875775
3773882123
3773887494
3773892011
3773899274
3773904279
3773909406
3773915692
3773920819
3773927045
3773932416
3773937909
3773940961
3773948102
3773954511
3773961346
3773967572
3773973065
3773977948
3773984723
3773989423
3773995587
3774001263
3774009015
3774015729
3774018719
3774027081
3774036053
3774047528
3774055829
3774064923
3774073407
3774079876
3774086590
3774092083
3774098736
3774104412
3774110028
3774115155
3774121685
3774128277
3774133953
3774139996
3774146099
3774151226
3774154888
3774164715
3774170025
3774176190
3774181011
3774186199
3774189068
3774197369
3774203716
3774208233
3774215801
3774223797
3774228680
3774233135
3774238079
3774242779
3774249981
3774254864
3774261517
3774266094
3774272015
3774276775
3774282207
3774287701
3774292461
3774297161
3774304302
3774310100
3774313946
3774320354
3774324444
3774330852
3774334636
3774342144
3774348430
3774352825
3774358623
3774364361
3774368938
3774373577
3774378399
3774387798
3774393596
3774398662
3774402752
3774409160
3774413372
3774418071
3774424785
3774430400
3774435466
3774442241
3774447673
3774453166
3774457622
3774462566
3774469951
3774473674
3774482829
3774487834
3774494975
3774502178
3774508342
3774515605
3774521831
3774528850
3774533672
3774541789
3774547710
3774556804
3774563213
3774570232
3774577190
3774585246
3774591716
3774601237
3774606303
3774613872
3774623088
3774629497
3774635722
3774641459
3774651042
3774659648
3774668437
3774671306
