3835493721
3835499336
3835504219
3835509040
3835513435
3835518440
3835523323
3835527839
3835533088
3835537605
3835543037
3835548042
3835552986
3835558479
3835562873
3835567634
3835572517
3835577705
3835582099
3835586433
3835591682
3835597663
3835602912
3835607246
3835614387
3835619209
3835625373
3835632758
3835638801
3835645515
3835652412
3835658576
3835664924
3835671333
3835677375
3835684516
3835692878
3835699409
3835705939
3835715278
3835721381
3835729011
3835736152
3835742011
3835749824
3835756904
3835764411
3835772406
3835778205
3835785285
3835792548
3835799262
3835806098
3835813788
3835820319
3835828376
3835835761
3835841742
3835849250
3835855353
3835861518
3835869696
3835877020
3835885199
3835892584
3835899970
3835906867
3835915656
3835921210
3835929694
3835937750
3835944952
3835951849
3835959113
3835966009
3835974799
3835982550
3835990485
3835995672
3836002936
3836011297
3836019415
3836025580
3836033880
3836042120
3836047308
3836055914
3836061590
3836070990
3836077581
3836085638
3836092840
3836099859
3836108465
3836115850
3836124090
3836133001
3836139227
3836147100
3836154363
3836161077
3836168524
3836176519
3836184454
3836190374
3836198248
3836206121
3836212469
3836219488
3836227056
3836234808
3836243658
3836250249
3836257024
3836265691
3836272161
3836280340
3836289007
3836295232
3836303228
3836310125
3836317754
3836322759
3836332586
3836340825
3836348089
3836355840
3836362005
3836369573
3836375188
3836383794
3836392095
3836399236
3836406926
3836414189
3836420964
3836428044
3836437078
3836445867
3836451787
3836459966
3836467290
3836475591
3836485967
3836492497
3836500066
3836507756
3836515386
3836523686
3836531804
3836539494
3836546086
3836552800
3836561406
3836569279
3836576726
3836583073
3836590825
3836598637
3836606022
3836612370
3836620488
3836627446
3836634587
3836641545
3836649418
3836655705
3836664128
3836671208
3836678593
3836685856
3836695134
3836704228
3836710392
3836719670
3836726750
3836734745
3836743046
3836751652
3836760258
3836766728
3836774296
3836781254
3836789066
3836796208
3836805119
3836813114
3836820927
3836827885
3836835819
3836842533
3836848637
3836857975
3836865116
3836873478
3836880741
3836888492
3836895878
3836902225
3836911197
3836917972
3836925663
3836933475
3836941044
3836948490
3836956119
3836963566
3836972538
3836979374
3836985782
3836994388
3837001407
3837010013
3837017093
3837025577
3837034183
3837041385
3837048648
3837052982
3837063907
3837070621
3837079593
3837086917
3837092838
3837101688
3837108402
3837115665
3837128726
3837137759
3837145023
3837151920
3837160648
3837168277
3837175479
3837182437
3837190555
3837199222
3837204959
3837212893
3837218692
3837228763
3837236148
3837243350
3837251712
3837259463
3837267154
3837273501
3837281009
3837287356
3837298342
3837306094
3837314090
3837321414
3837330569
3837337405
3837344546
3837353396
3837361209
3837369021
3837376650
3837383486
3837390994
3837398257
3837406497
3837413577
3837421328
3837428103
3837435183
3837442873
3837451174
3837459231
3837465762
3837473452
3837479800
3837488405
3837495852
3837503237
3837511233
3837517702
3837525515
3837530886
3837540529
3837547915
3837556337
3837564272
3837571779
3837580812
3837585939
3837595461
3837604189
3837610720
3837621767
3837630434
3837640871
3837648928
3837656435
3837664858
3837671633
3837679811
3837685854
3837693971
3837701906
3837709169
3837718691
3837725710
3837734254
3837742128
3837749452
3837758241
3837764955
3837773012
3837781557
3837788759
3837795228
3837801149
3837808168
3837814393
3837821596
3837828431
3837834596
3837840272
3837844484
3837851136
3837858583
3837864259
3837873353
3837880311
3837885255
3837893678
3837899293
3837905580
3837910279
3837917054
3837924012
3837928529
3837936402
3837942933
3837947084
3837953919
3837959718
3837965150
3837971253
3837985719
3837993348
3837998841
3838004395
3838010804
3838017030
3838022706
3838028748
3838034303
3838040162
3838046387
3838051698
3838057984
3838063721
3838070069
3838075562
3838080689
3838086854
3838092103
3838097962
3838103882
3838110779
3838117371
3838124146
3838129090
3838134888
3838138794
3838145508
3838151734
3838157776
3838164124
3838169678
3838176270
3838181763
3838185364
3838192078
3838199036
3838205933
3838210877
3838216980
3838222718
3838227845
3838234192
3838239746
3838245178
3838250794
3838257080
3838262207
3838266907
3838275025
3838281738
3838287232
3838292908
3838298950
3838304871
3838309265
3838316650
3838322876
3838328491
3838333740
3838338074
3838345398
3838351196
3838357605
3838363708
3838367248
3838373901
3838380127
3838387146
3838392639
3838398559
3838404114
3838410461
3838416626
3838423157
3838428100
3838433716
3838441467
3838447632
3838454284
3838461425
3838467834
3838473449
3838478637
3838485290
3838490722
3838496704
3838502014
3838508483
3838515075
3838522277
3838526794
3838533142
3838538085
3838544372
3838552307
3838557434
3838563415
3838570251
3838575683
3838580932
3838587524
3838594726
3838603942
3838609374
3838612548
3838619994
3838625304
3838629577
3838635009
3838641174
3838645446
3838650939
3838656493
3838661925
3838667785
3838672912
3838677367
3838683532
3838687377
3838694030
3838699584
3838705504
3838711852
3838715148
3838720580
3838728454
3838733458
3838738891
3838745116
3838749999
3838754821
3838761779
3838768187
3838773986
3838779967
3838786803
3838791930
3838796752
3838802733
3838808409
3838816039
3838821288
3838827086
3838833495
3838840514
3838845946
3838851439
3838857115
3838862303
3838868712
3838873961
3838879820
3838884825
3838889830
3838896788
3838902953
3838919432
3838924620
3838930479
3838936705
3838942747
3838947447
3838955443
3838960020
3838966246
3838970152
3838976561
3838982725
3838989134
3838994810
3838999693
3839006285
3839010374
3839016783
3839022337
3839029234
3839035338
3839040953
3839048399
3839054991
3839059813
3839065306
3839071592
3839076475
3839082579
3839088072
3839093870
3839098265
3839104429
3839109129
3839114439
3839119322
3839125975
3839131956
3839137388
3839141844
3839148130
3839153257
3839157957
3839164610
3839170469
3839176267
3839181944
3839188047
3839193601
3839197874
3839203855
3839208799
3839215330
3839220884
3839224851
3839230650
3839235654
3839242063
3839246702
3839253049
3839257383
3839263303
3839268125
3839274656
3839279600
3839285276
3839291074
3839296506
3839301816
3839306272
3839312864
3839317136
3839323789
3839330015
3839335019
3839340513
3839345701
3839349912
3839355893
3839361448
3839368772
3839374936
3839380368
3839384580
3839391904
3839397946
3839404721
3839411496
3839415219
3839421079
3839426633
3839432736
3839436948
3839443906
3839448728
3839454160
3839459653
3839465512
3839471372
3839476499
3839482663
3839488889
3839493588
3839497983
3839505002
3839509885
3839514890
3839520016
3839525754
3839531857
3839538144
3839544003
3839548337
3839554379
3839558713
3839564877
3839569089
3839575802
3839580929
3839586056
3839591916
3839597043
3839602658
3839608090
3839614071
3839618466
3839624997
3839629818
3839635190
3839640316
3839645565
3839651669
3839657101
3839662350
3839667965
3839673886
3839678402
3839684262
3839691220
3839696530
3839702145
3839707333
3839714657
3839722225
3839729916
3839740597
3839748532
3839753353
3839761410
3839766171
3839771603
3839777157
3839782833
3839789669
3839794369
3839799801
3839805965
3839811337
3839817745
3839823666
3839829037
3839835323
3839840633
3839846004
3839851376
3839856380
3839862179
3839868221
3839873104
3839878597
3839883907
3839888302
3839894100
3839898311
3839904781
3839910396
3839917476
3839925289
3839929134
3839935543
3839941158
3839946529
3839950802
3839957576
3839962642
3839969173
3839974666
3839980465
3839986690
3839990902
3839998348
3840003414
3840008602
3840015316
3840020442
3840026241
3840032283
3840036800
3840042415
3840048091
3840052486
3840058223
3840062862
3840070979
3840077327
3840082576
3840087093
3840092342
3840098201
3840102046
3840109126
3840114558
3840121211
3840127742
3840132503
3840137324
3840143062
3840147945
3840153438
3840159907
3840163753
3840170589
3840174922
3840181148
3840185298
3840191524
3840196651
3840202571
3840208613
3840213862
3840220271
3840224544
3840230281
3840235957
3840242976
3840247249
3840253657
3840257808
3840263850
3840268550
3840274836
3840281184
3840286982
3840292292
3840296015
3840302119
3840307490
3840312434
3840318537
3840324214
3840328425
3840335078
3840339778
3840345271
3840350215
3840356684
3840362910
3840367426
3840372981
3840380854
3840386775
3840391535
3840398432
3840404780
3840410151
3840415583
3840421076
3840427180
3840434443
3840440791
3840447443
3840454523
3840459955
3840465449
3840470148
3840475703
3840481379
3840487787
3840492243
3840498835
3840503901
3840509089
3840514399
3840519465
3840525385
3840532221
3840541987
3840548639
3840556452
3840563410
3840571161
3840578119
3840585566
3840592524
3840600214
3840607721
3840614008
3840619562
3840625238
3840630792
3840635492
3840641046
3840646845
3840652521
3840658685
3840664118
3840669611
3840675653
3840680353
3840685419
3840691705
3840696832
3840699640
3840706964
3840711969
3840716608
3840722650
3840728448
3840733331
3840739008
3840743768
3840748224
3840754388
3840759332
3840765192
3840771295
3840775384
3840780694
3840786371
3840790155
3840796319
3840801141
3840807001
3840810785
3840816583
3840821710
3840826532
3840830865
3840837823
3840842889
3840849115
3840852166
3840859674
3840864495
3840869500
3840875543
3840882379
3840891473
3840894647
3840901849
3840907891
3840913507
3840920404
3840926324
3840942864
3840948724
3840953546
3840959283
3840966729
3840971795
3840978936
3840983209
3840989983
3840999139
3841004937
3841010003
3841016045
3841022210
3841027642
3841033379
3841038628
3841043511
3841049981
3841056145
3841060723
3841067010
3841075005
3841081658
3841087639
3841092400
3841098260
3841104241
3841110039
3841115655
3841121087
3841126641
3841132195
3841138054
3841144890
3841149346
3841154961
3841159783
3841166375
3841170342
3841178948
3841184685
3841190605
3841196160
3841201470
3841206536
3841212090
3841217644
3841223015
3841229973
3841235222
3841240227
3841246453
3841253472
3841258476
3841265068
3841269707
3841274834
3841279900
3841285820
3841291130
3841296684
3841303154
3841307365
3841313286
3841319756
3841325798
3841330864
3841336296
3841341789
3841347282
3841353081
3841358330
3841364189
3841369499
3841375725
3841382683
3841389213
3841396599
3841401115
3841407524
3841412712
3841417778
3841424125
3841430473
3841435966
3841442192
3841447685
3841453178
3841458915
3841465385
3841470817
3841476371
3841480949
3841487968
3841493949
3841499137
3841504692
3841510734
3841517021
3841522819
3841528190
3841534843
3841540885
3841546440
3841550834
3841556388
3841562614
3841567008
3841573783
3841579765
3841584586
3841589408
3841594535
3841599052
3841604179
3841609184
3841615287
3841620719
3841625236
3841630302
3841635673
3841640250
3841646476
3841651298
3841659782
3841665580
3841670524
3841675651
3841679679
3841686149
3841692130
3841697257
3841702384
3841707084
3841713248
3841718436
3841722770
3841728568
3841734733
3841739554
3841744315
3841750052
3841754996
3841760184
3841765982
3841771170
3841776541
3841781180
3841786368
3841789908
3841796500
3841802359
3841806937
3841811515
3841817008
3841822013
3841826834
3841833914
3841841300
3841857047
3841861746
3841865714
3841872061
3841876639
3841882437
3841888480
3841893546
3841898428
3841903677
3841911246
3841916373
3841922110
3841927176
3841932181
3841936819
3841941946
3841947684
3841953726
3841957510
3841963919
3841966788
3841973929
3841980398
3841986258
3841993521
3841999258
3842003225
3842009024
3842013540
3842019400
3842025503
3842030752
3842035269
3842040213
3842044851
3842050528
3842056265
3842062124
3842066946
3842071890
3842076956
3842081716
3842086782
3842092886
3842098013
3842103689
3842108633
3842113272
3842119802
3842125295
3842130911
3842135855
3842141043
3842146169
3842151052
3842156973
3842161001
3842166860
3842173208
3842178213
3842183767
3842188711
3842194143
3842198232
3842204458
3842209158
3842214956
3842219717
3842224599
3842230337
3842235403
3842239858
3842245962
3842252492
3842255239
3842262502
3842267080
3842271779
3842278310
3842284353
3842289419
3842292348
3842298452
3842302907
3842309133
3842317128
3842324453
3842330068
3842335378
3842342214
3842347158
3842351735
3842358022
3842363576
3842369252
3842375844
3842380056
3842385671
3842391530
3842396291
3842401906
3842407094
3842413075
3842418141
3842423696
3842428884
3842434316
3842440175
3842445058
3842450978
3842457265
3842462880
3842468495
3842475087
3842480336
3842484609
3842490529
3842496571
3842501759
3842506703
3842512379
3842518666
3842523671
3842529896
3842533803
3842540333
3842544728
3842550648
3842556996
3842562306
3842567799
3842572987
3842578175
3842583119
3842589406
3842595265
3842600331
3842605885
3842610829
3842617116
3842622670
3842627552
3842633900
3842638905
3842643849
3842649952
3842655507
3842660267
3842665944
3842671864
3842677113
3842682606
3842688038
3842693653
3842698780
3842704823
3842712147
3842717579
3842723072
3842728382
3842734120
3842740284
3842745411
3842749195
3842756764
3842762257
3842768482
3842773426
3842779774
3842785938
3842789784
3842796436
3842803516
3842808338
3842817127
3842822987
3842829884
3842834217
3842841541
3842847217
3842852405
3842857227
3842862293
3842868885
3842873157
3842880115
3842885670
3842891651
3842896595
3842901783
3842908252
3842913135
3842918323
3842923572
3842928882
3842933826
3842940418
3842944812
3842950794
3842955005
3842962452
3842968372
3842975269
3842980640
3842986194
3842991931
3842996265
3843002979
3843012622
3843017627
3843023548
3843029834
3843035388
3843040698
3843046069
3843050952
3843057117
3843062244
3843066943
3843072131
3843078662
3843084705
3843092212
3843097217
3843103381
3843109180
3843114978
3843120227
3843125781
3843132251
3843136523
3843142505
3843148913
3843153430
3843158191
3843164599
3843170093
3843175525
3843181811
3843187427
3843193469
3843197680
3843203967
3843209033
3843214282
3843219836
3843224780
3843230883
3843236926
3843241259
3843247668
3843252856
3843258227
3843263476
3843269274
3843273791
3843279345
3843284411
3843289599
3843295397
3843301318
3843305773
3843311633
3843320544
3843327197
3843332995
3843337878
3843342089
3843348010
3843353686
3843359606
3843365527
3843369555
3843377367
3843382067
3843387011
3843392138
3843399279
3843404406
3843410448
3843415087
3843420092
3843426134
3843431444
3843436632
3843442919
3843448351
3843454577
3843459765
3843465502
3843470751
3843476671
3843481859
3843486681
3843493029
3843498583
3843503405
3843509447
3843514879
3843519945
3843525316
3843532152
3843537340
3843542589
3843547716
3843554369
3843560289
3843565233
3843570055
3843576158
3843581713
3843586840
3843590441
3843596788
3843604174
3843608446
3843615404
3843620592
3843625475
3843631090
3843637010
3843642931
3843648363
3843653551
3843660204
3843665025
3843669786
3843677171
3843683397
3843687608
3843693712
3843699327
3843705309
3843709703
3843716173
3843723131
3843728502
3843733629
3843739244
3843744554
3843748826
3843756151
3843762498
3843766832
3843772752
3843778428
3843784349
3843788988
3843795701
3843801011
3843806810
3843814500
3843821702
3843827317
3843832505
3843838670
3843844224
3843850145
3843854966
3843860765
3843866075
3843872056
3843877671
3843884385
3843890672
3843896226
3843901597
3843907517
3843913682
3843918138
3843924607
3843930039
3843936021
3843939622
3843948411
3843954331
3843958543
3843964585
3843970506
3843978989
3843984422
3843990830
3843996140
3844002000
3844005662
3844012742
3844018540
3844023850
3844030747
3844035386
3844041245
3844047532
3844053208
3844057908
3844065232
3844070908
3844077134
3844082627
3844087815
3844093125
3844100510
3844105820
3844111130
3844118577
3844122910
3844129075
3844135239
3844140854
3844145493
3844152878
3844158310
3844163498
3844168747
3844174973
3844180222
3844187546
3844193466
3844197495
3844204087
3844210129
3844215317
3844221359
3844227036
3844231857
3844238815
3844244187
3844249680
3844255112
3844260178
3844264267
3844271225
3844277206
3844281357
3844287643
3844293137
3844297897
3844303329
3844309372
3844313889
3844320724
3844323837
3844330307
3844337021
3844342636
3844346176
3844354904
3844362350
3844366684
3844372604
3844376571
3844382065
3844385971
3844393051
3844399032
3844404464
3844410141
3844414291
3844420456
3844426132
3844432174
3844438705
3844443222
3844447494
3844454879
3844458602
3844464523
3844470077
3844476364
3844482833
3844488754
3844494430
3844501449
3844507797
3844514755
3844520736
3844526412
3844531234
3844538192
3844541793
3844549300
3844555587
3844561691
3844566757
3844570907
3844577804
3844582687
3844587508
3844591903
3844598312
3844604720
3844610335
3844615523
3844620711
3844626205
3844631759
3844636642
3844643172
3844648849
3844655440
3844660201
3844665145
3844670943
3844676009
3844681991
3844687606
3844693343
3844699325
3844703292
3844709517
3844715011
3844720687
3844725814
3844732711
3844737532
3844743270
3844748336
3844753341
3844758834
3844764937
3844770003
3844775801
3844780928
3844787215
3844792708
3844796004
3844804061
3844809981
3844814253
3844820113
3844825606
3844830794
3844835188
3844841902
3844846236
3844853133
3844858382
3844866621
3844872359
3844877791
3844884444
3844888899
3844895247
3844899641
3844906172
3844911116
3844916792
3844919722
3844929060
3844934981
3844939436
3844945296
3844950789
3844955916
3844961470
3844965864
3844973128
3844978132
3844982954
3844988020
3844994490
3844999739
3845003523
3845010786
3845016768
3845023420
3845028425
3845034468
3845039289
3845044966
3845049910
3845056257
3845062178
3845067244
3845072248
3845077925
3845083052
3845088423
3845094648
3845100813
3845105268
3845111250
3845115461
3845121870
3845126142
3845132551
3845137617
3845143903
3845150129
3845155195
3845160444
3845164350
3845171430
3845175825
3845182966
3845187788
3845193525
3845199567
3845204938
3845208356
3845215986
3845223005
3845227399
3845233015
3845239301
3845244733
3845249616
3845255170
3845261091
3845265241
3845270734
3845275800
3845281354
3845286908
3845292341
3845299665
3845305402
3845310285
3845315229
3845321576
3845326581
3845331830
3845336042
3845342511
3845348432
3845354230
3845360700
3845367414
3845373944
3845380597
3845388043
3845393170
3845399091
3845404401
3845409955
3845415021
3845421430
3845426496
3845431500
3845437787
3845442304
3845449384
3845453656
3845459515
3845464520
3845470868
3845475018
3845481366
3845486127
3845491864
3845497296
3845504071
3845509808
3845515729
3845521039
3845525250
3845532452
3845537335
3845543133
3845549664
3845554852
3845559491
3845565289
3845568768
3845575238
3845580243
3845586590
3845592267
3845598065
3845605023
3845608502
3845615887
3845622784
3845628338
3845633709
3845640118
3845646405
3845649639
3845656781
3845662884
3845668194
3845674786
3845678936
3845685284
3845689556
3845695233
3845701397
3845706463
3845711041
3845717938
3845723004
3845727947
3845731609
3845737652
3845742901
3845749432
3845756207
3845762981
3845767681
3845773235
3845778484
3845784588
3845790264
3845795452
3845801922
3845807354
3845812420
3845817608
3845822674
3845829327
3845834820
3845841289
3845845501
3845851787
3845859295
3845864422
3845870647
3845876629
3845882000
3845887737
3845894024
3845901714
3845907329
3845913799
3845919170
3845925274
3845930706
3845934368
3845941753
3845946392
3845951946
3845957500
3845964763
3845969463
3845973613
3845980510
3845983623
3845989971
3845994914
3846001079
3846006999
3846011516
3846018169
3846023784
3846029155
3846033428
3846039104
3846046611
3846052837
3846056011
3846063640
3846068645
3846074931
3846080058
3846085979
3846092815
3846099345
3846105388
3846108623
3846115886
3846120341
3846126933
3846132976
3846138408
3846143291
3846149394
3846154765
3846159587
3846165202
3846171306
3846176982
3846181376
3846186625
3846193095
3846197123
3846203349
3846209452
3846216105
3846220866
3846225322
3846229533
3846236247
3846241252
3846247294
3846252970
3846258647
3846263652
3846269267
3846274516
3846280070
3846286357
3846291300
3846297404
3846300517
3846308634
3846313273
3846318339
3846323832
3846330424
3846335856
3846340128
3846347208
3846351359
3846357645
3846362467
3846367350
3846372233
3846378580
3846384074
3846389262
3846394755
3846399760
3846405741
3846413248
3846420817
3846426493
3846431559
3846436930
3846442484
3846447062
3846452799
3846458658
3846463175
3846469340
3846474772
3846480509
3846485575
3846490824
3846497355
3846501566
3846507731
3846513407
3846518290
3846523844
3846528605
3846535379
3846540201
3846544352
3846551615
3846555399
3846562906
3846568033
3846574076
3846580118
3846585672
3846593485
3846596720
3846604227
3846610697
3846616739
3846621561
3846627847
3846634744
3846640176
3846646097
3846649881
3846657083
3846663431
3846669290
3846675027
3846679239
3846686441
3846690958
3846696939
3846703409
3846709085
3846712442
3846719217
3846723978
3846730203
3846735635
3846739786
3846747293
3846753580
3846758767
3846763284
3846769632
3846773843
3846780313
3846787271
3846791787
3846798684
3846802591
3846808511
3846814004
3846818460
3846824502
3846830667
3846835672
3846841287
3846846048
3846851724
3846855386
3846862893
3846869058
3846874917
3846879251
3846884744
3846890603
3846894815
3846901345
3846907022
3846913125
3846918313
3846923806
3846931313
3846938332
3846945107
3846949868
3846956094
3846961831
3846968301
3846974221
3846980264
3846986916
3846993020
3846997842
3847003701
3847010232
3847014199
3847020669
3847024880
3847031350
3847035500
3847041054
3847045632
3847051369
3847057778
3847062539
3847069802
3847075722
3847081032
3847085244
3847091713
3847098000
3847103310
3847108803
3847113381
3847120583
3847125771
3847130532
3847135476
3847141518
3847147011
3847154641
3847159340
3847163918
3847169167
3847174233
3847180275
3847185341
3847191384
3847196633
3847202309
3847207924
3847212502
3847219093
3847224281
3847230141
3847235390
3847240456
3847245888
3847251076
3847256752
3847262367
3847268898
3847273598
3847278664
3847284279
3847289345
3847293617
3847300636
3847305641
3847311195
3847314308
3847321571
3847326820
3847332008
3847337440
3847343666
3847350807
3847355385
3847361061
3847365394
3847371681
3847376625
3847381691
3847386635
3847393348
3847397194
3847404518
3847408668
3847413795
3847419349
3847426735
3847433326
3847439796
3847445289
3847449562
3847455787
3847460121
3847467811
3847473365
3847478736
3847485084
3847491310
3847497047
3847502296
3847509254
3847514991
3847520240
3847525489
3847531654
3847536720
3847541480
3847547401
3847553565
3847557716
3847563209
3847568397
3847575355
3847581886
3847588905
3847596168
3847601295
3847606238
3847611854
3847616920
3847622108
3847626380
3847633277
3847639136
3847643958
3847649146
3847655250
3847660132
3847665564
3847670936
3847676917
3847681128
3847686805
3847692420
3847697303
3847702735
3847708533
3847714270
3847721289
3847727149
3847732032
3847737220
3847742408
3847748023
3847753943
3847758948
3847765296
3847772132
3847776038
3847782630
3847788733
3847794531
3847801001
3847807471
3847811926
3847816504
3847821997
3847827979
3847832129
3847839148
3847845129
3847849890
3847854102
3847860571
3847864905
3847871680
3847876685
3847882422
3847888769
3847893774
3847898840
3847904333
3847909460
3847915686
3847920996
3847925329
3847930823
3847938879
3847944311
3847951147
3847957068
3847962683
3847968786
3847973669
3847979406
3847984350
3847989966
3847994726
3848002295
3848007788
3848012304
3848018774
3848023718
3848029638
3848034826
3848040075
3848046362
3848050573
3848057348
3848061682
3848066809
3848072302
3848077856
3848085302
3848091406
3848097448
3848102819
3848108312
3848113806
3848119299
3848123937
3848130163
3848134313
3848140844
3848145788
3848151525
3848157140
3848162572
3848169042
3848173559
3848179479
3848183813
3848189794
3848194189
3848200292
3848205724
3848211584
3848217565
3848222753
3848228002
3848233251
3848239538
3848244604
3848251134
3848257299
3848262914
3848267431
3848273778
3848278783
3848286535
3848292516
3848296727
3848303197
3848306859
3848313268
3848317540
3848324132
3848328832
3848335179
3848339940
3848345311
3848350194
3848355687
3848360631
3848366918
3848373204
3848377599
3848381383
3848389501
3848395604
3848401341
3848410314
3848416844
3848425877
3848431859
3848439916
3848444493
3848450658
3848456822
3848462254
3848471410
3848476720
3848483433
3848489049
3848493077
3848499852
3848504979
3848511571
3848516392
3848520787
3848525548
3848531590
3848537449
3848542149
3848548924
3848554783
3848559910
3848564122
3848569798
3848573643
3848580723
3848586522
3848592869
3848597691
3848602513
3848607212
3848612950
3848618565
3848625828
3848631688
3848636753
3848641514
3848646641
3848651280
3848656529
3848662327
3848668003
3848672642
3848679722
3848683933
3848688572
3848693882
3848699375
3848705174
3848709690
3848715428
3848721531
3848724949
3848730808
3848736790
3848742649
3848747227
3848752232
3848758091
3848762852
3848767673
3848772739
3848779575
3848784153
3848790012
3848794224
3848800632
3848804783
3848810276
3848817844
3848823337
3848827061
3848833225
3848836765
3848843906
3848848179
3848855869
3848860447
3848866245
3848872410
3848879612
3848884983
3848891391
3848897617
3848903293
3848909702
3848915439
3848919223
3848925632
3848931552
3848937473
3848943332
3848949985
3848956577
3848963413
3848969211
3848975009
3848980869
3848985507
3848991367
3848997775
3849002353
3849007907
3849014743
3849020053
3849026218
3849031772
3849038486
3849044223
3849048373
3849054660
3849059909
3849065707
3849071750
3849076938
3849080661
3849086703
3849092563
3849099216
3849104404
3849110812
3849117648
3849125644
3849131625
3849136691
3849142673
3849149264
3849154574
3849160434
3849166354
3849172091
3849177157
3849184787
3849189792
3849194918
3849201571
3849205539
3849212558
3849218112
3849223849
3849230502
3849236483
3849242709
3849248873
3849254855
3849260409
3849266452
3849271456
3849277438
3849282931
3849289218
3849294345
3849299960
3849306979
3849310092
3849318270
3849323275
3849330294
3849335299
3849340731
3849345553
3849352267
3849357333
3849364046
3849370028
3849376742
3849381930
3849388155
3849394015
3849398897
3849405733
3849410799
3849417635
3849422762
3849427767
3849434664
3849439547
3849446505
3849454806
3849460177
3849466890
3849472689
3849478670
3849484407
3849489657
3849495821
3849500643
3849506624
3849512484
3849519503
3849525972
3849531649
3849537996
3849543550
3849548128
3849553987
3849559053
3849565584
3849571138
3849576387
3849581880
3849587557
3849594087
3849599642
3849604158
3849610750
3849615633
3849620882
3849624849
3849632539
3849638216
3849643221
3849648164
3849653535
3849658723
3849665498
3849670137
3849676668
3849681978
3849688264
3849693880
3849699312
3849704317
3849712129
3849719026
3849724153
3849730012
3849736177
3849740022
3849747041
3849752046
3849756929
3849763154
3849768037
3849772554
3849779451
3849784456
3849788850
3849794587
3849800142
3849806001
3849812043
3849816438
3849822541
3849826936
3849832673
3849838472
3849845124
3849851228
3849857392
3849862702
3849868440
3849873567
3849879670
3849885896
3849891511
3849896638
3849904633
3849911652
3849917268
3849921113
3849927277
3849933991
3849939484
3849945954
3849951630
3849957001
3849962922
3849968537
3849973847
3849978242
3849984345
3849987763
3849993745
3849999848
3850005402
3850009614
3850014558
3850019807
3850025544
3850030854
3850037324
3850041169
3850047394
3850051728
3850058136
3850063935
3850069245
3850074677
3850080048
3850085541
3850088959
3850095185
3850099274
3850104828
3850109833
3850117035
3850122589
3850127594
3850132294
3850137543
3850141754
3850147675
3850153473
3850157563
3850163971
3850169525
3850174103
3850179230
3850186310
3850190705
3850196076
3850203461
3850208527
3850214081
3850221222
3850225678
3850231720
3850237579
3850242218
3850247528
3850252716
3850257355
3850263397
3850270721
3850275848
3850280609
3850286102
3850291168
3850296539
3850302582
3850308319
3850312958
3850318939
3850323456
3850333465
3850340668
3850346405
3850352264
3850357391
3850363067
3850368927
3850374176
3850380279
3850385223
3850393341
3850399078
3850405914
3850411956
3850417022
3850422027
3850427581
3850434417
3850438629
3850445587
3850451141
3850457000
3850461578
3850467987
3850474945
3850479034
3850484893
3850491241
3850496490
3850502166
3850506439
3850513030
3850518707
3850523773
3850529754
3850535308
3850540923
3850546539
3850553863
3850561553
3850566009
3850571990
3850576263
3850582488
3850587188
3850594573
3850600494
3850606170
3850610747
3850614837
3850620574
3850624480
3850630889
3850636870
3850642241
3850646514
3850651519
3850657012
3850662627
3850668609
3850673980
3850681426
3850686919
3850692473
3850697783
3850703399
3850708953
3850713713
3850719756
3850724761
3850731597
3850736785
3850742034
3850748076
3850752165
3850759185
3850764983
3850770293
3850774443
3850779692
3850785857
3850791228
3850796233
3850801848
3850804900
3850812895
3850816496
3850822173
3850827544
3850832976
3850839995
3850844572
3850850188
3850854643
3850860869
3850865752
3850871428
3850876494
3850882658
3850888518
3850893828
3850899992
3850906828
3850913176
3850918120
3850924284
3850928740
3850934172
3850939360
3850944121
3850949797
3850955839
3850961943
3850966826
3850972624
3850978300
3850983427
3850989531
3850994780
3851001127
3851005949
3851010649
3851016081
3851021696
3851026762
3851033964
3851038542
3851045256
3851050077
3851054655
3851062101
3851067655
3851073088
3851078825
3851082914
3851088712
3851094267
3851099577
3851105131
3851111417
3851117521
3851123991
3851127897
3851133878
3851140531
3851144743
3851150480
3851157377
3851163175
3851168546
3851173551
3851179960
3851183683
3851189420
3851196317
3851202787
3851207548
3851212308
3851217985
3851224271
3851230924
3851237882
3851242765
3851248441
3851255277
3851261136
3851266324
3851272184
3851276578
3851283048
3851287992
3851294706
3851300138
3851305326
3851310270
3851315641
3851322965
3851328397
3851333646
3851339017
3851343961
3851349759
3851354642
3851361295
3851367459
3851372220
3851379788
3851385343
3851389798
3851396512
3851402310
3851410306
3851417142
3851422818
3851427945
3851433499
3851438016
3851444302
3851449612
3851455411
3851458890
3851465482
3851470181
3851477383
3851482632
3851487637
3851494107
3851497952
3851506741
3851512601
3851518948
3851524441
3851530484
3851535672
3851540677
3851545865
3851552212
3851558621
3851565884
3851569790
3851575772
3851582608
3851586758
3851593350
3851598477
3851604092
3851608853
3851614224
3851619839
3851625698
3851631680
3851638211
3851643093
3851647915
3851654019
3851659756
3851664334
3851669644
3851674160
3851681118
3851687161
3851698513
3851705532
3851710903
3851717251
3851722744
3851729153
3851734951
3851740688
3851747158
3851751553
3851758755
3851765896
3851771877
3851778347
3851783840
3851788540
3851794826
3851799709
3851807583
3851812893
3851818020
3851823513
3851829433
3851835109
3851840358
3851846828
3851852199
3851857387
3851863002
3851869228
3851873806
3851880520
3851887294
3851895168
3851902004
3851910183
3851917263
3851923122
3851929042
3851935939
3851941982
3851948329
3851953700
3851961818
3851968044
3851974086
3851980251
3851985072
3851991115
3851996303
3852002773
3852008205
3852014308
3852019252
3852026393
3852031886
3852039394
3852044948
3852050502
3852057887
3852063563
3852070155
3852074550
3852082179
3852088100
3852093776
3852099269
3852105800
3852111354
3852118068
3852122951
3852129725
3852137477
3852140895
3852148341
3852155238
3852160426
3852166285
3852172755
3852178553
3852186000
3852190516
3852196070
3852214320
3852219386
3852225245
3852230982
3852237696
3852242823
3852247828
3852252894
3852259364
3852264308
3852270411
3852275111
3852281519
3852287318
3852292262
3852298304
3852304286
3852309779
3852313685
3852319972
3852326807
3852332301
3852337000
3852344813
3852349757
3852355982
3852370203
3852375635
3852381434
3852386683
3852392176
3852398035
3852404322
3852410120
3852414454
3852421168
3852428003
3852433069
3852439051
3852445948
3852451197
3852456934
3852463099
3852467859
3852473658
3852478235
3852483789
3852490076
3852496607
3852514124
3852521326
3852527185
3852532617
3852539087
3852543543
3852548303
3852553491
3852558863
3852564050
3852570337
3852575037
3852580957
3852586511
3852592371
3852599695
3852605432
3852610620
3852615442
3852620996
3852624902
3852633081
3852638025
3852643884
3852649072
3852655115
3852659998
3852666040
3852670923
3852676050
3852681604
3852687341
3852691858
3852697900
3852702661
3852708398
3852714990
3852721216
3852726037
3852732019
3852737634
3852742334
3852748864
3852754541
3852760888
3852765954
3852771203
3852777734
3852784692
3852791040
3852797509
3852802697
3852808129
3852813012
3852819177
3852825646
3852829919
3852836694
3852842553
3852847924
3852854882
3852859643
3852864831
3852871057
3852875573
3852881432
3852887048
3852892175
3852895043
3852901452
3852908593
3852912621
3852918176
3852923302
3852928613
3852934899
3852941003
3852946252
3852951195
3852956322
3852961144
3852966881
3852971886
3852975915
3852982934
3852988183
3852993920
3852999169
3853004174
3853009423
3853014855
3853019005
3853026330
3853031029
3853036644
3853041100
3853046776
3853050927
3853057213
3853064110
3853069603
3853073082
3853078881
3853084496
3853089501
3853095848
3853100365
3853106713
3853111840
3853116539
3853121788
3853126854
3853131798
3853137108
3853143639
3853148400
3853153038
3853158287
3853163109
3853168785
3853173363
3853179894
3853184349
3853190575
3853195397
3853200768
3853205589
3853211083
3853217674
3853223228
3853228294
3853234154
3853239037
3853244713
3853249718
3853255211
3853262230
3853269615
3853274254
3853280846
3853285728
3853291344
3853295006
3853301414
3853307030
3853311363
3853315819
3853322410
3853327965
3853331871
3853339012
3853344932
3853350181
3853354942
3853360191
3853365257
3853368919
3853373436
3853376793
3853383140
3853387291
3853391624
3853395835
3853399803
3853404991
3853409629
3853413475
3853417686
3853421714
3853426048
3853430015
3853435752
3853439292
3853443931
3853448020
3853450950
3853455589
3853460472
3853465476
3853470359
3853474204
3853476768
3853481590
3853485679
3853489280
3853495200
3853499656
3853506370
3853509849
3853514610
3853518333
3853521873
3853526511
3853532127
3853536033
3853540000
3853545005
3853549216
3853553123
3853558066
3853563987
3853567527
3853572288
3853575767
3853580894
3853584861
3853588340
3853592185
3853598594
3853602317
3853606406
3853610496
3853614463
3853617331
3853623374
3853629355
3853633689
3853638450
3853641868
3853646506
3853649863
3853653708
3853658835
3853663474
3853667929
3853670798
3853676413
3853681601
3853687033
3853694602
3853698447
3853703391
3853707602
3853711631
3853715720
3853719687
3853726218
3853730735
3853733603
3853740378
3853744223
3853748557
3853753440
3853758200
3853762290
3853765830
3853770651
3853774680
3853779013
3853783225
3853787436
3853791586
3853796225
3853800559
3853805380
3853809531
3853814230
3853818564
3853822409
3853827780
3853831808
3853836691
3853839560
3853844138
3853847922
3853853293
3853857992
3853862753
3853867392
3853870810
3853875998
3853878927
3853882895
3853887594
3853892294
3853895956
3853901449
3853905600
3853910116
3853914694
3853919394
3853927817
3853932394
3853938192
3853942892
3853947531
3853951742
3853956381
3853960531
3853966208
3853972250
3853977316
3853981405
3853985434
3853990499
3853994589
3854000814
3854007528
3854014425
3854018454
3854024618
3854029623
3854033468
3854037741
3854043783
3854048544
3854053549
3854058615
3854065267
3854069784
3854076315
3854081930
3854087667
3854093221
3854098287
3854103719
3854109762
3854113607
3854119405
3854125570
3854130148
3854136434
3854144491
3854149801
3854157125
3854162374
3854166097
3854170003
3854174642
3854181112
3854186849
3854190755
3854196432
3854201375
3854206014
3854211568
3854215841
3854225362
3854231344
3854234762
3854239644
3854244039
3854249776
3854254049
3854259481
3854264241
3854271016
3854275838
3854281453
3854286458
3854293050
3854298238
3854305562
3854311116
3854317586
3854323262
3854328450
3854333821
3854338948
3854345357
3854349324
3854356771
3854361043
3854366597
3854372273
3854377950
3854383748
3854388326
3854394734
3854398824
3854404378
3854410115
3854415608
3854420369
3854425679
3854432942
3854437947
3854442952
3854448628
3854453084
3854458150
3854463521
3854471638
3854475728
3854481709
3854486043
3854492268
3854497334
3854502644
3854510212
3854516804
3854521321
3854527852
3854532307
3854535481
3854541523
3854548909
3854554341
3854560383
3854565327
3854570332
3854580281
3854587544
3854593159
3854599995
3854605305
3854609761
3854616413
3854620442
3854626240
3854630818
3854637532
3854644245
3854649616
3854654072
3854659382
3854666950
3854674580
3854681477
3854686909
3854690693
3854698078
3854701923
3854708698
3854714130
3854719929
3854726948
3854731464
3854738422
3854742878
3854748859
3854754414
3854759540
3854764118
3854772480
3854776874
3854781940
3854786457
3854792133
3854797748
3854802021
3854808979
3854815754
3854820942
3854827106
3854831623
3854837482
3854842426
3854848163
3854854328
3854858844
3854864826
3854871235
3854876361
3854881366
3854886982
3854893512
3854899616
3854905109
3854911273
3854915485
3854921710
3854928241
3854933856
3854938983
3854945819
3854951862
3854956561
3854961139
3854967182
3854971881
3854978351
3854986469
3854992450
3854998370
3855003680
3855008991
3855014056
3855018878
3855024860
3855032062
3855037799
3855043597
3855051959
3855058612
3855064899
3855071368
3855079059
3855085956
3855090961
3855096576
3855103778
3855108966
3855115558
3855120685
3855125506
3855132769
3855140216
3855145709
3855151507
3855156695
3855161944
3855168170
3855173480
3855179034
3855184100
3855191912
3855196551
3855200885
3855208331
3855214373
3855218646
3855224017
3855229571
3855235552
3855248004
3855255267
3855262835
3855267718
3855272051
3855278948
3855284808
3855289446
3855295062
3855300860
3855304156
3855310748
3855315569
3855321856
3855329302
3855334368
3855338641
3855345843
3855351397
3855358721
3855364092
3855370013
3855377825
3855382403
3855387530
3855394121
3855399187
3855405840
3855411028
3855417071
3855422991
3855430193
3855437456
3855441301
3855445940
3855452593
3855457476
3855463030
3855469133
3855475969
3855480669
3855485857
3855491716
3855496355
3855502092
3855505999
3855511614
3855518267
3855523699
3855529253
3855534746
3855539507
3855544084
3855550432
3855555010
3855562090
3855571550
3855579973
3855587175
3855592546
3855599626
3855604936
3855611650
3855616838
3855622270
3855627336
3855635942
3855642351
3855647295
3855652971
3855660722
3855667436
3855672990
3855680620
3855686296
3855691179
3855695390
3855703142
3855707475
3855713701
3855717363
3855725663
3855729997
3855736467
3855742509
3855748124
3855753556
3855758622
3855766130
3855773210
3855780046
3855785539
3855790116
3855796464
3855801103
3855806657
3855811662
3855817704
3855824723
3855829850
3855835160
3855842790
3855848832
3855857255
3855863419
3855871842
3855876298
3855882035
3855886247
3855892838
3855897172
3855903153
3855907548
3855913529
3855919755
3855923234
3855930436
3855935075
3855940507
3855945389
3855951920
3855957596
3855963883
3855969193
3855974686
3855979325
3855984879
3855989091
3855995560
3856000260
3856006791
3856011307
3856017045
3856023636
3856028214
3856034379
3856040909
3856046647
3856052445
3856058548
3856063858
3856070389
3856076554
3856081009
3856086624
3856092484
3856099808
3856104264
3856109696
3856114579
3856119339
3856125260
3856130020
3856135514
3856140152
3856147354
3856152725
3856158524
3856163407
3856170303
3856174454
3856178421
3856185623
3856190323
3856197342
3856201981
3856208756
3856214676
3856219131
3856223892
3856229141
3856236893
3856241714
3856246292
3856251480
3856257645
3856263138
3856267837
3856273208
3856277725
3856282120
3856290176
3856292190
3856301101
3856305679
3856311355
3856316848
3856321792
3856328079
3856334121
3856340896
3856345047
3856351455
3856355667
3856361831
3856366043
3856372512
3856378921
3856382217
3856388992
3856394302
3856398880
3856403762
3856409011
3856415969
3856421951
3856429946
3856436843
3856444412
3856449355
3856454849
3856460769
3856466262
3856472366
3856476211
3856482986
3856488357
3856492934
3856498611
3856504897
3856511367
3856517654
3856522781
3856529555
3856534866
3856540603
3856545364
3856549636
3856555801
3856562270
3856567336
3856571425
3856577651
3856583449
3856588454
3856593947
3856599380
3856606643
3856613906
3856620803
3856625197
3856630813
3856636611
3856640822
3856646132
3856652358
3856658706
3856664077
3856668593
3856673415
3856678969
3856683852
3856689406
3856694655
3856702040
3856706984
3856713393
3856718398
3856725051
3856729750
3856733534
3856742079
3856746901
3856754225
3856757704
3856764418
3856770033
3856775038
3856780043
3856785658
3856790419
3856797987
3856804152
3856809523
3856814223
3856821242
3856827650
3856833998
3856839247
3856845595
3856851942
3856858046
3856862746
3856868422
3856872755
3856877516
3856884352
3856890394
3856895094
3856900038
3856907362
3856913954
3856919203
3856923842
3856930433
3856938124
3856943373
3856948439
3856952406
3856960402
3856965040
3856970900
3856976332
3856980787
3856986769
3856992567
3856997938
3857002455
3857007398
3857013685
3857019789
3857026991
3857036695
3857043836
3857049024
3857055006
3857060072
3857065565
3857070020
3857076002
3857083692
3857088941
3857093641
3857100233
3857105054
3857110792
3857116407
3857121351
3857127393
3857131849
3857139051
3857143018
3857149732
3857154005
3857158887
3857163526
3857169630
3857174940
3857180616
3857185499
3857190748
3857197278
3857202405
3857206800
3857213025
3857219251
3857225599
3857230176
3857236219
3857240674
3857246167
3857252088
3857257459
3857261853
3857268689
3857276319
3857281446
3857287671
3857293103
3857297559
3857303662
3857308179
3857314099
3857320752
3857324842
3857330396
3857335156
3857341809
3857347058
3857352979
3857358960
3857364819
3857370191
3857375989
3857382642
3857387341
3857393445
3857398389
3857403394
3857410840
3857416211
3857421826
3857426465
3857432568
3857437024
3857443127
3857447583
3857453564
3857458874
3857464551
3857469922
3857475049
3857481579
3857486584
3857490979
3857497204
3857502759
3857507824
3857513318
3857518017
3857525403
3857529614
3857533886
3857541394
3857545971
3857551831
3857557324
3857563733
3857568615
3857573742
3857577404
3857583752
3857589794
3857600415
3857609448
3857614697
3857619396
3857625195
3857630749
3857636913
3857641918
3857647473
3857654186
3857659435
3857664684
3857671764
3857679089
3857685558
3857690197
3857697277
3857703075
3857707653
3857712841
3857719006
3857725964
3857730968
3857735729
3857742382
3857749462
3857755016
3857763683
3857769420
3857775219
3857782543
3857790233
3857798107
3857802379
3857808239
3857814159
3857819469
3857824718
3857830822
3857835582
3857841320
3857847484
3857851574
3857857738
3857862682
3857867260
3857873302
3857879833
3857885448
3857890209
3857896373
3857900890
3857907054
3857912548
3857919689
3857926402
3857929759
3857936778
3857942211
3857947826
3857953075
3857959911
3857965953
3857970958
3857976268
3857983470
3857988109
3857994884
3858001598
3858004283
3858014171
3858020274
3858029002
3858035655
3858040965
3858047069
3858051707
3858058238
3858063304
3858070567
3858074534
3858081676
3858086863
3858092662
3858097484
3858101695
3858108165
3858114879
3858121531
3858125865
3858131419
3858136485
3858142283
3858149180
3858154368
3858159983
3858165477
3858172618
3858178050
3858182688
3858186900
3858194529
3858198558
3858210215
3858216929
3858224253
3858232066
3858238169
3858244090
3858249583
3858254405
3858260630
3858266123
3858270274
3858276560
3858283091
3858289500
3858294077
3858300486
3858306467
3858311961
3858317210
3858323740
3858328501
3858334238
3858339487
3858345896
3858353342
3858361643
3858365366
3858372568
3858378855
3858384165
3858391550
3858396616
3858402292
3858408213
3858413523
3858417978
3858424875
3858430368
3858435495
3858440928
3858447336
3858451303
3858457407
3858461679
3858467600
3858472361
3858479685
3858485300
3858489756
3858492929
3858500131
3858503855
3858511789
3858515695
3858523996
3858529978
3858538095
3858542917
3858549753
3858553415
3858560861
3858564584
3858571481
3858577402
3858582895
3858589426
3858596445
3858601022
3858607614
3858612131
3858618356
3858628244
3858632394
3858638071
3858642587
3858648752
3858653390
3858660531
3858666513
3858671945
3858677072
3858682443
3858688424
3858694040
3858699838
3858705087
3858710275
3858714853
3858722116
3858727182
3858731637
3858738534
3858745248
3858755380
3858769296
3858777230
3858781930
3858786935
3858794564
3858799569
3858805184
3858809762
3858814340
3858820382
3858824899
3858831918
3858837838
3858843392
3858849435
3858855355
3858860787
3858865487
3858870248
3858877267
3858883065
3858889474
3858894234
3858899300
3858905221
3858909371
3858914376
3858922677
3858928109
3858935189
3858941537
3858945626
3858950814
3858953866
3858961495
3858968575
3858978951
3858984810
3858993477
3858999215
3859009835
3859014534
3859025032
3859034066
3859039498
3859046822
3859053597
3859062569
3859070381
3859076363
3859082039
3859086190
3859090584
3859095589
3859099922
3859103890
3859109261
3859118233
3859123482
3859127937
3859130684
3859137520
3859142769
3859146431
3859152107
3859155892
3859160652
3859163826
3859168953
3859172676
3859177132
3859183052
3859188301
3859193977
3859198250
3859205147
3859209236
3859213875
3859220833
3859224922
3859229805
3859235115
3859238716
3859243660
3859250923
3859258308
3859266975
3859271858
3859277107
3859281441
3859287056
3859291939
3859297981
3859304878
3859312019
3859317512
3859320930
3859325630
3859330085
3859333320
3859339546
3859344978
3859350715
3859355964
3859361457
3859366706
3859371284
3859376777
3859382637
3859388862
3859393562
3859399848
3859403633
3859409980
3859415351
3859419868
3859426155
3859430366
3859436347
3859440315
3859447028
3859451728
3859458381
3859462592
3859469428
3859476020
3859481025
3859485847
3859491706
3859496223
3859501167
3859505561
3859512885
3859517341
3859522956
3859526923
3859533576
3859538032
3859542060
3859548896
3859555793
3859560737
3859564643
3859571662
3859575141
3859581977
3859587409
3859592048
3859597358
3859604255
3859607673
3859613532
3859620429
3859624640
3859630744
3859636176
3859640815
3859647773
3859652594
3859657843
3859663703
3859667670
3859673835
3859679633
3859684088
3859690863
3859695807
3859700812
3859708869
3859714423
3859719184
3859723883
3859729559
3859735236
3859741217
3859746161
3859752326
3859756476
3859763068
3859768012
3859773993
3859778754
3859786383
3859792792
3859799139
3859805304
3859808661
3859815924
3859821112
3859826361
3859831976
3859841009
3859845465
3859850897
3859858343
3859864386
3859872748
3859878302
3859884833
3859890753
3859895880
3859902228
3859906622
3859910467
3859917181
3859922369
3859926947
3859934576
3859938665
3859944281
3859948553
3859954168
3859958319
3859964666
3859969061
3859973272
3859980596
3859985968
3859990179
3859996282
3860001104
3860006903
3860011541
3860020696
3860025518
3860030035
3860039129
3860043829
3860048528
3860054449
3860059271
3860066778
3860071111
3860077947
3860083318
3860088811
3860093450
3860099310
3860105779
3860111150
3860116216
3860122503
3860127569
3860133123
3860138250
3860142950
3860148015
3860153753
3860159246
3860164190
3860170476
3860174444
3860179387
3860185491
3860190740
3860195806
3860200872
3860206060
3860210454
3860216497
3860220830
3860227117
3860233098
3860237554
3860243840
3860249456
3860254460
3860259282
3860264531
3860270452
3860275212
3860280278
3860286443
3860291753
3860298162
3860305425
3860312261
3860317204
3860322759
3860329228
3860334050
3860340398
3860347112
3860351140
3860357793
3860363408
3860369145
3860376592
3860384892
3860392888
3860403203
3860410344
3860417485
3860425358
3860431767
3860440617
3860447880
3860451420
3860462163
3860466984
3860474980
3860482792
3860490727
3860498295
3860501713
3860510258
3860521122
3860528874
3860534367
3860543278
3860549992
3860553166
3860563908
3860572941
3860580143
3860585331
3860596379
3860603764
3860610356
3860618046
3860622685
3860633976
3860640873
3860648014
3860656742
3860663212
3860672123
3860679997
3860687565
3860693974
3860699039
3860708317
3860715397
3860721928
3860728702
3860737247
3860744755
3860749698
3860758488
3860765323
3860770633
3860777408
3860785587
3860792240
3860799930
3860806766
3860813297
3860821048
3860827457
3860832645
3860841312
3860848575
3860855838
3860862613
3860869998
3860878482
3860884464
3860890933
3860898990
3860906803
3860913455
3860919376
3860925845
3860933719
3860941531
3860948062
3860955203
3860961124
3860967166
3860974246
3860981631
3860989017
3860995853
3861004153
3861011172
3861015750
3861025333
3861032352
3861039981
3861046268
3861053348
3861060184
3861068973
3861075992
3861080203
3861088443
3861094851
3861099978
3861109683
3861116946
3861124148
3861131045
3861141238
3861148257
3861153445
3861160708
3861167605
3861176028
3861182681
3861190127
3861198611
3861207217
3861216921
3861223940
3861230532
3861237917
3861244021
3861253359
3861262026
3861268923
3861275881
3861282473
3861292849
3861299319
3861305117
3861312258
3861321230
3861327822
3861332888
3861342959
3861350710
3861360048
3861373110
3861382387
3861391482
3861403750
3861412417
3861420656
3861430300
3861439516
3861447267
3861453432
3861461183
3861467592
3861474611
3861481630
3861489565
3861495912
3861500856
3861505678
3861510500
3861515016
3861519594
3861524294
3861529604
3861534242
3861538942
3861543092
3861547670
3861551698
3861556154
3861561098
3861567079
3861571657
3861575502
3861579836
3861584535
3861587404
3861592226
3861598329
3861603456
3861606264
3861612489
3861617555
3861622560
3861627382
3861631105
3861637025
3861643129
3861648073
3861652833
3861658388
3861662416
3861667177
3861673951
3861679323
3861684511
3861688783
3861695192
3861701112
3861706117
3861711061
3861718019
3861723268
3861727967
3861733094
3861738771
3861744020
3861749086
3861755433
3861760987
3861766297
3861773255
3861776551
3861782838
3861787843
3861793885
3861798951
3861804994
3861810243
3861815553
3861820008
3861826295
3861830506
3861836915
3861843018
3861849427
3861859132
3861865601
3861869813
3861876160
3861880433
3861886658
3861891541
3861898255
3861902528
3861908387
3861912598
3861919373
3861926087
3861930726
3861937195
3861942444
3861947266
3861953248
3861959046
3861964417
3861969605
3861976380
3861982239
3861988465
3861992737
3861999207
3862004334
3862011902
3862015564
3862022278
3862028870
3862033814
3862039612
3862046631
3862052002
3862056336
3862062378
3862066895
3862074158
3862079590
3862085266
3862089905
3862096070
3862100830
3862106140
3862111389
3862116882
3862121765
3862126526
3862132813
3862136719
3862143555
3862149048
3862156738
3862162109
3862167053
3862172546
3862177856
3862184204
3862189697
3862193726
3862201294
3862205688
3862210998
3862217590
3862222656
3862229492
3862235962
3862242554
3862248657
3862253723
3862261963
3862267517
3862273254
3862278015
3862282654
3862290954
3862296325
3862302307
3862308838
3862313659
3862318969
3862324279
3862331604
3862337585
3862343078
3862348083
3862353942
3862359130
3862363769
3862370117
3862376831
3862382263
3862389953
3862396240
3862402099
3862408569
3862415099
3862419677
3862425720
3862431213
3862435912
3862441894
3862446960
3862451843
3862456359
3862465698
3862470092
3862475890
3862480407
3862484374
3862491943
3862496581
3862502929
3862509338
3862515502
3862519775
3862525695
3862530334
3862536620
3862541381
3862546813
3862552917
3862561095
3862566832
3862573241
3862578368
3862583861
3862588195
3862593810
3862599730
3862604918
3862611083
3862616271
3862620787
3862626281
3862633300
3862641295
3862648864
3862654357
3862666503
3862672850
3862677733
3862682860
3862690184
3862695983
3862702574
3862707091
3862715453
3862721068
3862727416
3862729430
3862739134
3862742674
3862751219
3862760008
3862764586
3862770140
3862775023
3862780577
3862786375
3862792479
3862796934
3862802855
3862809630
3862815611
3862820860
3862826048
3862834349
3862838499
3862845091
3862850584
3862857664
3862863707
3862869383
3862874754
3862880003
3862884703
3862891478
3862896605
3862905088
3862910460
3862914915
3862922056
3862925962
3862933714
3862937437
3862944761
3862950376
3862955931
3862960997
3862968443
3862973265
3862980223
3862985594
3862989195
3862998472
3863004087
3863011839
3863018247
3863025327
3863029173
3863037107
3863042539
3863047422
3863053404
3863059446
3863063047
3863070371
3863074216
3863082212
3863085691
3863092649
3863098325
3863105466
3863111204
3863115720
3863122312
3863126523
3863133542
3863139585
3863145994
3863150449
3863155820
3863161497
3863167051
3863173276
3863177671
3863183408
3863190549
3863197507
3863201658
3863206846
3863212461
3863217344
3863222348
3863228025
3863234189
3863240964
3863246335
3863251462
3863255918
3863262876
3863267392
3863272214
3863278012
3863284421
3863290341
3863295835
3863300290
3863303769
3863311887
3863317868
3863322507
3863328183
3863334897
3863341123
3863345700
3863351132
3863357419
3863361752
3863368771
3863373837
3863379086
3863384640
3863388974
3863397275
3863402341
3863409177
3863412961
3863419919
3863427121
3863433652
3863438779
3863445370
3863450802
3863455990
3863460751
3863465817
3863470578
3863476498
3863483029
3863488034
3863492550
3863498593
3863504330
3863508358
3863515194
3863522702
3863527218
3863530758
3863538021
3863543454
3863548153
3863553036
3863557797
3863563046
3863569271
3863574764
3863580868
3863586544
3863593746
3863599545
3863606930
3863612179
3863619564
3863624874
3863629635
3863635738
3863641110
3863645443
3863651608
3863656063
3863663143
3863670040
3863675350
3863679623
3863685177
3863690426
3863695980
3863701290
3863707149
3863712276
3863717647
3863723385
3863728817
3863734554
3863739071
3863744991
3863752498
3863759640
3863767330
3863771785
3863777828
3863783626
3863788509
3863793270
3863797664
3863804683
3863809627
3863815853
3863820064
3863826595
3863831111
3863836971
3863841121
3863848384
3863854854
3863860591
3863865047
3863870418
3863875789
3863881099
3863885494
3863892330
3863897151
3863902889
3863909725
3863915828
3863921565
3863925960
3863931636
3863936336
3863948177
3863954952
3863960201
3863964961
3863971370
3863976497
3863983028
3863987483
3863994014
3863998775
3864005183
3864011592
3864017268
3864021663
3864027339
3864033748
3864038569
3864044246
3864049739
3864057063
3864061336
3864067744
3864071406
3864080012
3864086665
3864095271
3864099665
3864106196
3864109858
3864116755
3864122187
3864128901
3864135005
3864140925
3864146113
3864153010
3864157527
3864161921
3864169917
3864174555
3864181513
3864190974
3864198054
3864206111
3864212702
3864217463
3864222773
3864229609
3864234370
3864240900
3864247431
3864252070
3864257929
3864263300
3864267634
3864273798
3864278559
3864285334
3864290217
3864296686
3864300959
3864307001
3864312617
3864317194
3864322993
3864327448
3864335139
3864339350
3864345270
3864348566
3864355951
3864361933
3864367365
3864374079
3864381403
3864386530
3864392267
3864397089
3864403070
3864408136
3864414545
3864420526
3864426996
3864432306
3864437311
3864443354
3864447748
3864454157
3864459040
3864465021
3864472956
3864477594
3864484003
3864488581
3864494684
3864499017
3864505609
3864510004
3864518244
3864524164
3864528558
3864534357
3864538629
3864544733
3864550104
3864555719
3864559503
3864565912
3864572992
3864579523
3864583124
3864588922
