3775255349
3775260537
3775265298
3775270364
3775275979
3775280374
3775285989
3775291055
3775296487
3775301553
3775306070
3775310159
3775314187
3775319497
3775324685
3775329019
3775333474
3775338967
3775344094
3775348916
3775354226
3775359353
3775363442
3775368875
3775373147
3775378091
3775382791
3775388223
3775393411
3775398904
3775405374
3775410195
3775415688
3775420449
3775428079
3775435159
3775441018
3775448281
3775453957
3775462685
3775470010
3775475930
3775483865
3775490578
3775495522
3775505227
3775511574
3775518654
3775524941
3775532326
3775537697
3775544472
3775553200
3775559731
3775566872
3775573830
3775580605
3775587014
3775591896
3775601540
3775607888
3775615273
3775622902
3775629616
3775637734
3775643654
3775653237
3775660073
3775667580
3775676064
3775681252
3775691628
3775698525
3775705055
3775713478
3775720863
3775729103
3775733986
3775741798
3775750282
3775756996
3775763466
3775772743
3775780006
3775785255
3775793312
3775802162
3775809120
3775816933
3775824806
3775831642
3775837440
3775846168
3775852943
3775861000
3775866615
3775875343
3775882301
3775889625
3775897194
3775903968
3775912269
3775920143
3775926918
3775935218
3775941200
3775949256
3775958045
3775963905
3775972816
3775980689
3775988197
3775995338
3776002113
3776009010
3776014869
3776024818
3776031532
3776038978
3776045509
3776053138
3776061011
3776068458
3776074744
3776081946
3776089820
3776097632
3776104224
3776111365
3776117164
3776126441
3776132422
3776139808
3776146888
3776154761
3776162269
3776168494
3776177466
3776182593
3776191871
3776198890
3776206336
3776213233
3776222388
3776231238
3776237586
3776245459
3776251013
3776259375
3776266333
3776275794
3776283362
3776291052
3776298377
3776305151
3776311072
3776321082
3776327856
3776337683
3776344458
3776351660
3776359778
3776365515
3776373694
3776379858
3776392004
3776398413
3776406775
3776412329
3776421362
3776430273
3776438147
3776445532
3776454077
3776461523
3776469336
3776476538
3776483923
3776490942
3776501379
3776508398
3776515905
3776524877
3776533728
3776542456
3776551000
3776560095
3776566870
3776574743
3776583410
3776591223
3776598791
3776606603
3776612768
3776621557
3776628637
3776638036
3776645544
3776651037
3776661413
3776668920
3776677343
3776684423
3776693090
3776700292
3776708593
3776718053
3776725866
3776732702
3776739660
3776749242
3776756261
3776763768
3776769933
3776778844
3776785985
3776794347
3776802221
3776809728
3776817845
3776825048
3776832982
3776842321
3776849217
3776857640
3776865270
3776873143
3776878209
3776888646
3776894994
3776903600
3776911473
3776919347
3776927098
3776933873
3776942662
3776951268
3776957433
3776965367
3776972020
3776978917
3776989354
3776995885
3777003636
3777013157
3777021458
3777029454
3777036534
3777045262
3777052647
3777059666
3777069188
3777076878
3777085606
3777094212
3777099949
3777107701
3777116368
3777124363
3777131382
3777139256
3777146519
3777153843
3777161473
3777170506
3777177586
3777185703
3777191258
3777199314
3777206638
3777213596
3777221653
3777228489
3777235447
3777241062
3777249363
3777256687
3777264316
3777272861
3777280308
3777287754
3777293308
3777301914
3777307834
3777316440
3777325474
3777331699
3777339573
3777347202
3777355564
3777362095
3777370334
3777379123
3777385898
3777394870
3777402195
3777407138
3777415378
3777422641
3777430454
3777436801
3777443332
3777451206
3777456394
3777466403
3777473422
3777481540
3777488742
3777495517
3777502597
3777509799
3777516879
3777525668
3777533908
3777541599
3777546481
3777554721
3777560092
3777568576
3777576327
3777581515
3777587558
3777593844
3777599093
3777605746
3777611545
3777618442
3777625094
3777629977
3777636264
3777642611
3777647494
3777655673
3777662875
3777667575
3777673678
3777678195
3777685946
3777692233
3777698031
3777705294
3777711215
3777716647
3777720919
3777728182
3777733248
3777739779
3777749362
3777755831
3777761202
3777767062
3777773776
3777778414
3777784579
3777791598
3777797152
3777802462
3777806612
3777813937
3777817965
3777824801
3777829623
3777837435
3777842684
3777849642
3777855013
3777860934
3777867159
3777872591
3777877047
3777884554
3777889010
3777894381
3777900301
3777905855
3777911837
3777918429
3777924410
3777929598
3777934298
3777941012
3777945772
3777952547
3777958223
3777963839
3777969332
3777973360
3777979464
3777985262
3777990633
3777995333
3778001497
3778007784
3778013277
3778019075
3778023104
3778029024
3778034334
3778039949
3778045442
3778051912
3778056978
3778063204
3778067903
3778073946
3778079622
3778084566
3778090181
3778096407
3778102388
3778108492
3778114168
3778119722
3778123994
3778131319
3778136934
3778142366
3778147981
3778152010
3778159090
3778163118
3778170442
3778175752
3778181856
3778186006
3778191560
3778196565
3778202547
3778206270
3778214143
3778219575
3778224946
3778231233
3778235689
3778241304
3778246126
3778251985
3778258882
3778264619
3778269502
3778279145
3778288118
3778294587
3778301728
3778307038
3778313264
3778321015
3778325105
3778332856
3778338044
3778344209
3778349824
3778355073
3778361787
3778370149
3778377900
3778387055
3778392243
3778398164
3778403413
3778409394
3778416779
3778421845
3778426606
3778431550
3778437653
3778441987
3778449311
3778454865
3778459687
3778466462
3778472260
3778477753
3778482514
3778488312
3778493989
3778500336
3778506806
3778513337
3778518464
3778524750
3778531952
3778536713
3778543549
3778549469
3778554413
3778569123
3778574860
3778582611
3778588349
3778593659
3778599274
3778604340
3778609284
3778616486
3778621430
3778627533
3778632721
3778640106
3778646881
3778652069
3778658661
3778664093
3778669769
3778675568
3778680939
3778687042
3778692780
3778698029
3778703217
3778708405
3778714386
3778721039
3778727570
3778733124
3778739532
3778746918
3778755341
3778762787
3778769867
3778776703
3778781891
3778788116
3778793976
3778798004
3778805816
3778811249
3778816192
3778822174
3778829071
3778834625
3778840790
3778846039
3778852508
3778858917
3778865020
3778870941
3778875030
3778881744
3778886749
3778892547
3778897125
3778903167
3778909454
3778915191
3778919708
3778925628
3778930816
3778936492
3778942352
3778947540
3778952606
3778958221
3778963836
3778970306
3778975799
3778981597
3778986663
3778991851
3778996246
3779001189
3779005950
3779012054
3779016509
3779022613
3779027251
3779032317
3779038055
3779043792
3779049163
3779054900
3779059173
3779064117
3779070098
3779076385
3779081695
3779087371
3779091460
3779096892
3779102935
3779108977
3779114959
3779118438
3779124114
3779128997
3779135711
3779141326
3779147612
3779154021
3779160308
3779165313
3779171538
3779177642
3779183562
3779188384
3779194182
3779199492
3779205901
3779211333
3779216826
3779223784
3779230620
3779235442
3779240935
3779246062
3779252654
3779258391
3779263701
3779269560
3779274504
3779279997
3779285124
3779290740
3779296599
3779306609
3779312651
3779319182
3779324431
3779329741
3779334868
3779341093
3779345061
3779351652
3779355437
3779361906
3779365629
3779373015
3779378142
3779383879
3779389372
3779394316
3779400358
3779405363
3779410063
3779415861
3779422575
3779426420
3779432829
3779437773
3779444182
3779450468
3779455473
3779460905
3779465971
3779472380
3779476103
3779482145
3779487699
3779493559
3779498869
3779504667
3779508573
3779515592
3779519377
3779525114
3779531095
3779536283
3779542082
3779545744
3779552397
3779556974
3779563871
3779568022
3779575529
3779581022
3779584867
3779591947
3779597501
3779602384
3779607023
3779612272
3779618742
3779624967
3779629728
3779634977
3779639860
3779645902
3779652189
3779656705
3779661588
3779666898
3779672269
3779677091
3779682950
3779691984
3779700895
3779708219
3779714811
3779720243
3779725553
3779731229
3779737516
3779742582
3779748685
3779753873
3779759427
3779764859
3779771268
3779775846
3779781095
3779787687
3779792386
3779799283
3779805692
3779812345
3779816617
3779823392
3779829068
3779834073
3779838651
3779843778
3779850003
3779854642
3779861966
3779867276
3779872952
3779877896
3779882962
3779888089
3779894254
3779899625
3779904874
3779911527
3779916470
3779922208
3779926114
3779931973
3779936917
3779943814
3779949368
3779954556
3779959134
3779964200
3779970120
3779975918
3779981656
3779986600
3779992337
3779997586
3780003506
3780008816
3780014004
3780019314
3780024807
3780031643
3780035611
3780042202
3780046292
3780053250
3780059292
3780064114
3780070279
3780075283
3780081326
3780087368
3780093655
3780099392
3780105862
3780111660
3780117276
3780121304
3780129177
3780134243
3780140042
3780144924
3780151760
3780156582
3780161648
3780168057
3780173489
3780178738
3780184109
3780190640
3780194729
3780201809
3780206997
3780213711
3780219692
3780226833
3780236843
3780242092
3780247036
3780251980
3780258510
3780263882
3780267605
3780274258
3780279873
3780285549
3780290310
3780295986
3780301235
3780307216
3780313991
3780319607
3780325954
3780330288
3780337429
3780342983
3780348781
3780355495
3780360500
3780365810
3780370876
3780376430
3780380397
3780386806
3780392482
3780398159
3780403591
3780407863
3780413051
3780418788
3780424892
3780430263
3780436061
3780439907
3780446620
3780450405
3780457790
3780462734
3780468654
3780473537
3780479762
3780484706
3780489711
3780495998
3780500514
3780507533
3780513637
3780519252
3780523769
3780529445
3780535243
3780540187
3780546046
3780551234
3780556850
3780560634
3780567409
3780571498
3780577540
3780582973
3780588649
3780593959
3780599391
3780604091
3780611537
3780616542
3780621913
3780627772
3780633265
3780640101
3780645411
3780650050
3780656642
3780661280
3780668055
3780674403
3780682154
3780686732
3780693019
3780698817
3780704737
3780710292
3780716151
3780723841
3780728297
3780735438
3780739466
3780746546
3780751734
3780757411
3780763819
3780769007
3780774134
3780778956
3780784083
3780787623
3780793665
3780800135
3780805872
3780810633
3780816370
3780822230
3780827296
3780833521
3780837977
3780844874
3780849390
3780855799
3780861048
3780865687
3780870020
3780875025
3780881190
3780885462
3780891199
3780896753
3780901514
3780906641
3780912378
3780917688
3780921229
3780927637
3780931177
3780937769
3780942652
3780948694
3780954065
3780959253
3780964502
3780969141
3780974268
3780979761
3780983911
3780990625
3780995508
3780999170
3781004419
3781010340
3781015161
3781019251
3781024805
3781031763
3781036279
3781044031
3781048486
3781054773
3781061182
3781067529
3781073389
3781079492
3781084741
3781090601
3781096033
3781101221
3781107080
3781113977
3781119470
3781126123
3781133325
3781138879
3781145532
3781150293
3781156091
3781160425
3781165674
3781171777
3781176660
3781181787
3781188074
3781193567
3781198388
3781203210
3781208337
3781213220
3781221399
3781226404
3781233423
3781239953
3781243493
3781250756
3781254846
3781260522
3781267419
3781272363
3781277368
3781282617
3781286828
3781292565
3781296777
3781304833
3781312646
3781320031
3781326074
3781331628
3781337487
3781342919
3781348290
3781353723
3781359094
3781366357
3781371301
3781376916
3781382531
3781387536
3781393151
3781398217
3781403649
3781408837
3781414086
3781419518
3781425439
3781430077
3781435815
3781440758
3781446435
3781451745
3781458092
3781463463
3781467370
3781473961
3781477929
3781484276
3781490258
3781494713
3781500817
3781506554
3781511254
3781518090
3781523827
3781529015
3781534264
3781540978
3781545250
3781550927
3781556603
3781560997
3781566063
3781571801
3781577599
3781582848
3781587242
3781594872
3781601280
3781607201
3781613243
3781617699
3781624962
3781629112
3781636681
3781641991
3781646385
3781651756
3781658287
3781664269
3781669640
3781674767
3781679833
3781686119
3781691368
3781696373
3781701744
3781709679
3781715843
3781721092
3781726768
3781731895
3781737205
3781743797
3781749535
3781755394
3781759971
3781765037
3781770103
3781776329
3781781578
3781788292
3781793113
3781799156
3781805259
3781809471
3781816490
3781823143
3781828880
3781834068
3781837669
3781844444
3781849022
3781856834
3781862815
3781868126
3781873558
3781877647
3781882774
3781887718
3781893333
3781897972
3781903892
3781909568
3781913169
3781919944
3781924095
3781929344
3781934715
3781940635
3781946189
3781950767
3781955467
3781960166
3781965904
3781971275
3781976096
3781980979
3781987510
3781993125
3781998435
3782003074
3782009849
3782014243
3782019187
3782026145
3782031150
3782036277
3782041526
3782048423
3782053855
3782059043
3782064170
3782070823
3782075461
3782083640
3782088767
3782093894
3782100425
3782105674
3782109275
3782116416
3782122275
3782127585
3782133628
3782139365
3782144736
3782150840
3782155845
3782162436
3782167929
3782173362
3782179343
3782185019
3782191184
3782203208
3782207419
3782212851
3782219443
3782225546
3782229697
3782235800
3782241599
3782246543
3782252280
3782256735
3782264060
3782270529
3782278708
3782282980
3782295981
3782302451
3782308737
3782313193
3782319052
3782324728
3782329916
3782335654
3782341696
3782347372
3782352682
3782357626
3782363608
3782367575
3782373984
3782379355
3782385092
3782389609
3782395407
3782401327
3782406454
3782412619
3782417807
3782422690
3782428732
3782433127
3782438742
3782444418
3782448813
3782455648
3782460409
3782465902
3782471762
3782475851
3782482687
3782487387
3782492880
3782497702
3782504537
3782509603
3782515585
3782521139
3782526205
3782530416
3782535665
3782543356
3782548116
3782554403
3782558553
3782563802
3782569112
3782575155
3782579122
3782585226
3782589254
3782596029
3782601461
3782606283
3782611715
3782616598
3782623251
3782627889
3782633199
3782639059
3782643880
3782648946
3782655538
3782660482
3782666830
3782673238
3782679525
3782685262
3782691549
3782696920
3782703267
3782707174
3782713765
3782717672
3782724019
3782729635
3782735494
3782741781
3782746541
3782752828
3782756795
3782764302
3782772908
3782776998
3782784749
3782789998
3782796346
3782800984
3782805989
3782811482
3782816854
3782823201
3782827901
3782833516
3782838460
3782844136
3782849263
3782855733
3782861104
3782866231
3782871846
3782876912
3782890340
3782895345
3782900410
3782907002
3782910725
3782917622
3782923848
3782928975
3782935017
3782939961
3782945332
3782951131
3782956746
3782961507
3782967366
3782972676
3782979695
3782986409
3782991475
3782997273
3783002949
3783008992
3783013997
3783020894
3783028218
3783032917
3783038716
3783044453
3783049702
3783055012
3783060749
3783066792
3783071186
3783078633
3783082600
3783088642
3783094380
3783100361
3783106648
3783112690
3783117451
3783122334
3783129536
3783134602
3783140400
3783146687
3783150959
3783157185
3783163288
3783168598
3783175129
3783182026
3783190388
3783196125
3783202045
3783208210
3783213398
3783218830
3783223774
3783229572
3783235554
3783239948
3783246235
3783250751
3783256794
3783262287
3783270283
3783275532
3783282306
3783288105
3783293293
3783299946
3783305927
3783312580
3783318561
3783323566
3783329303
3783334552
3783339740
3783343708
3783350788
3783354694
3783362018
3783366474
3783372150
3783376545
3783383625
3783390155
3783395526
3783401081
3783406146
3783412372
3783417865
3783423053
3783429157
3783435382
3783440143
3783445758
3783450519
3783456073
3783461383
3783466998
3783473224
3783477985
3783483295
3783488178
3783494220
3783500690
3783505756
3783510638
3783516132
3783521991
3783526813
3783534137
3783539630
3783543353
3783550494
3783555255
3783560687
3783564288
3783571246
3783576434
3783582049
3783587604
3783591632
3783597125
3783602984
3783608966
3783614886
3783620501
3783625811
3783630877
3783636920
3783641620
3783647235
3783655169
3783662005
3783668109
3783673480
3783679034
3783685321
3783691546
3783696551
3783702166
3783707293
3783712237
3783717364
3783724322
3783728228
3783734515
3783739153
3783744830
3783751299
3783756793
3783761858
3783767901
3783774371
3783779314
3783784136
3783789202
3783795061
3783800982
3783806719
3783811724
3783817400
3783822710
3783827776
3783833086
3783838213
3783844744
3783850176
3783855486
3783861834
3783866167
3783870989
3783878008
3783881731
3783889666
3783895647
3783899431
3783907183
3783912554
3783918718
3783924151
3783930559
3783935991
3783939959
3783945940
3783951921
3783957476
3783963030
3783968645
3783973223
3783978899
3783984453
3783989946
3783995561
3784000872
3784007402
3784011858
3784018694
3784022661
3784029985
3784034258
3784040910
3784047014
3784051714
3784057451
3784063677
3784069109
3784075090
3784079485
3784087053
3784091203
3784099138
3784105608
3784109819
3784116716
3784122331
3784127275
3784131425
3784138811
3784145769
3784150651
3784156206
3784162248
3784166887
3784173417
3784180070
3784186723
3784193376
3784199296
3784204057
3784209428
3784214616
3784220109
3784226213
3784232438
3784238115
3784242631
3784248246
3784253617
3784258744
3784264299
3784269609
3784276445
3784282914
3784289018
3784294328
3784301164
3784305436
3784312394
3784317948
3784323075
3784328691
3784334184
3784339433
3784344682
3784350358
3784356706
3784360734
3784367631
3784372514
3784378251
3784382218
3784389664
3784394059
3784399796
3784405411
3784410538
3784416337
3784420060
3784427018
3784431473
3784438187
3784443558
3784448746
3784453995
3784459000
3784465287
3784472184
3784478348
3784484818
3784490067
3784496537
3784500504
3784507340
3784511124
3784518143
3784523087
3784528702
3784534195
3784540604
3784544938
3784550675
3784557450
3784561661
3784568436
3784573990
3784578568
3784584305
3784589920
3784596329
3784600601
3784607620
3784613419
3784617813
3784623306
3784631302
3784637161
3784641190
3784648514
3784651016
3784658585
3784664627
3784670303
3784676041
3784682632
3784689346
3784693863
3784701065
3784707230
3784712234
3784718826
3784724380
3784729813
3784734939
3784740066
3784745682
3784750870
3784755874
3784762344
3784766250
3784773330
3784778396
3784784988
3784790359
3784796829
3784803909
3784807937
3784814346
3784818130
3784825332
3784829849
3784835647
3784841018
3784846878
3784852310
3784857498
3784863052
3784866775
3784873001
3784878921
3784884475
3784889114
3784894912
3784899917
3784905654
3784910903
3784917617
3784922073
3784927444
3784933730
3784937759
3784945205
3784949416
3784955459
3784961746
3784967788
3784972915
3784979018
3784984634
3784989333
3784995193
3785000014
3785007033
3785012527
3785016921
3785022964
3785029311
3785035110
3785041274
3785045608
3785053176
3785057204
3785064528
3785068618
3785075088
3785081069
3785085830
3785090590
3785098220
3785102004
3785108107
3785113234
3785119277
3785125197
3785132094
3785136916
3785142348
3785148330
3785153701
3785159438
3785163771
3785171218
3785177748
3785182570
3785187392
3785194777
3785199294
3785205031
3785212050
3785219008
3785228468
3785234694
3785239760
3785245680
3785249403
3785256361
3785261549
3785266982
3785273024
3785278151
3785284621
3785288527
3785294264
3785302077
3785309096
3785314223
3785318556
3785325575
3785329298
3785336561
3785342238
3785347853
3785353285
3785358473
3785363600
3785368605
3785374403
3785379896
3785385328
3785389235
3785395949
3785401747
3785406080
3785410902
3785416761
3785422621
3785428480
3785432936
3785438856
3785444899
3785450392
3785455946
3785461866
3785468275
3785472303
3785479200
3785485243
3785491529
3785496656
3785501417
3785508497
3785514540
3785519178
3785525282
3785529737
3785535841
3785541517
3785548475
3785554090
3785559583
3785564649
3785570142
3785576673
3785581007
3785587904
3785594068
3785598890
3785605054
3785609815
3785614820
3785621046
3785625867
3785633436
3785639417
3785643812
3785650342
3785656080
3785662000
3785667737
3785672742
3785677869
3785684095
3785690442
3785695813
3785700879
3785704969
3785711866
3785719312
3785723462
3785730909
3785737134
3785743421
3785749646
3785755139
3785760205
3785767408
3785771619
3785779492
3785784192
3785790235
3785796033
3785802503
3785809094
3785814466
3785820081
3785825879
3785830579
3785836804
3785844067
3785848645
3785857068
3785859753
3785867688
3785872571
3785878369
3785884656
3785890210
3785896069
3785900220
3785907544
3785912366
3785919141
3785922864
3785930249
3785935681
3785941235
3785947339
3785952954
3785958508
3785963940
3785968762
3785974927
3785980298
3785995739
3785999829
3786006909
3786011548
3786018506
3786023327
3786028271
3786033215
3786038281
3786043774
3786049206
3786055554
3786059399
3786066174
3786071179
3786076733
3786083142
3786088391
3786094128
3786098400
3786105725
3786110485
3786116894
3786121472
3786126904
3786134411
3786140087
3786145702
3786150402
3786155224
3786161755
3786166760
3786173046
3786177929
3786183971
3786189098
3786193981
3786199779
3786205639
3786211193
3786217358
3786222118
3786227611
3786232799
3786238659
3786249462
3786252270
3786260448
3786266491
3786272411
3786276806
3786282421
3786288524
3786293529
3786299144
3786304332
3786310253
3786315685
3786320873
3786326366
3786333934
3786340282
3786345287
3786352245
3786359447
3786364086
3786371654
3786377269
3786382457
3786388744
3786392894
3786400035
3786403881
3786409801
3786414134
3786421703
3786427379
3786433299
3786438793
3786443736
3786448619
3786453868
3786460094
3786463817
3786470592
3786474559
3786481578
3786486583
3786492625
3786499156
3786504161
3786509044
3786514171
3786519420
3786525767
3786530589
3786536632
3786541087
3786544993
3786552257
3786557689
3786563548
3786568126
3786574351
3786581553
3786587169
3786592479
3786596873
3786603465
3786610057
3786615184
3786620066
3786627879
3786633555
3786639537
3786645091
3786650523
3786654856
3786661082
3786666697
3786672435
3786678172
3786684336
3786689158
3786695323
3786699900
3786707652
3786713206
3786719004
3786724192
3786728953
3786734385
3786740489
3786745005
3786751536
3786758616
3786762888
3786768931
3786774851
3786782175
3786788950
3786795054
3786798899
3786805918
3786810313
3786817454
3786821726
3786827463
3786838083
3786843943
3786847971
3786854868
3786861765
3786866587
3786871836
3786879221
3786883005
3786889963
3786894846
3786900034
3786905588
3786911936
3786918589
3786923471
3786929575
3786934824
3786940805
3786945200
3786952768
3786957651
3786962961
3786968576
3786973154
3786977671
3786982431
3786987802
3786994699
3786999094
3787004770
3787009592
3787014780
3787019480
3787024179
3787029611
3787036020
3787042490
3787047311
3787052866
3787058603
3787065805
3787071115
3787076242
3787081491
3787087900
3787092050
3787098032
3787102975
3787108835
3787114633
3787120615
3787125131
3787130990
3787136606
3787142526
3787148385
3787154123
3787159616
3787163583
3787171090
3787176278
3787182748
3787189401
3787194528
3787200021
3787205636
3787210214
3787214364
3787221872
3787229440
3787234811
3787240609
3787244577
3787251046
3787253488
3787262887
3787272775
3787279061
3787283822
3787290719
3787296456
3787301766
3787307015
3787313058
3787318185
3787323068
3787328317
3787334054
3787337899
3787344796
3787351632
3787356210
3787362435
3787368539
3787375008
3787380807
3787386788
3787391854
3787397103
3787403084
3787409188
3787414132
3787419991
3787424752
3787430489
3787436043
3787442696
3787448128
3787452096
3787458626
3787462411
3787469368
3787473885
3787479561
3787484932
3787490670
3787495919
3787501046
3787506966
3787512459
3787518074
3787522286
3787529366
3787533638
3787540963
3787545113
3787551888
3787557686
3787563973
3787569405
3787575508
3787581063
3787586067
3787591805
3787598213
3787604927
3787610420
3787616646
3787620430
3787626473
3787631844
3787638558
3787645638
3787649727
3787655769
3787659859
3787666634
3787671822
3787677925
3787685432
3787690865
3787696785
3787700813
3787707222
3787711372
3787718880
3787725777
3787731209
3787735847
3787741096
3787748421
3787753120
3787759163
3787764473
3787770332
3787776069
3787782234
3787788215
3787794380
3787801277
3787807686
3787813972
3787819038
3787824836
3787830268
3787836006
3787841255
3787846504
3787852851
3787858039
3787862617
3787867622
3787874214
3787879585
3787886421
3787896308
3787900276
3787907173
3787912055
3787917671
3787922981
3787929084
3787935615
3787940620
3787945930
3787951118
3787956306
3787962348
3787967963
3787972907
3787978584
3787982917
3787988593
3787995002
3788000251
3788005988
3788011787
3788016669
3788022101
3788027961
3788033576
3788038825
3788043097
3788049933
3788054145
3788061042
3788065070
3788072516
3788078254
3788083197
3788089118
3788094001
3788100959
3788106513
3788112433
3788117804
3788122931
3788126960
3788134101
3788139533
3788145758
3788150275
3788157416
3788163214
3788167426
3788174079
3788180365
3788186164
3788190924
3788196845
3788205451
3788211188
3788218634
3788223944
3788231329
3788236212
3788241888
3788248175
3788252264
3788260077
3788265448
3788273260
3788278693
3788284613
3788289313
3788295172
3788303595
3788310797
3788318854
3788323858
3788331183
3788336127
3788341803
3788346930
3788352606
3788358465
3788363531
3788369391
3788374395
3788380438
3788385382
3788391180
3788396917
3788402838
3788408514
3788414129
3788420538
3788425726
3788431097
3788437139
3788441656
3788448187
3788453375
3788457525
3788465399
3788470648
3788475836
3788481695
3788487493
3788491888
3788497747
3788503546
3788508917
3788513983
3788518987
3788524114
3788529607
3788534673
3788540289
3788546392
3788552313
3788557256
3788563238
3788568182
3788574285
3788578374
3788586065
3788590704
3788596685
3788603338
3788608648
3788614629
3788618780
3788625555
3788629888
3788637456
3788643255
3788647954
3788653325
3788659429
3788664617
3788670965
3788676702
3788682439
3788688787
3788693303
3788700750
3788706548
3788712224
3788717290
3788723211
3788729497
3788733403
3788741094
3788745000
3788750554
3788757268
3788763310
3788768071
3788773870
3788779851
3788783574
3788789189
3788794560
3788800725
3788806889
3788816167
3788823613
3788832158
3788839238
3788844548
3788850346
3788856389
3788863957
3788869450
3788873418
3788880131
3788885075
3788890996
3788896611
3788901799
3788909245
3788913945
3788922490
3788927434
3788933049
3788938298
3788944523
3788949467
3788954655
3788960820
3788966740
3788971623
3788977604
3788983586
3788989079
3788994389
3788998906
3789005986
3789010807
3789015507
3789020634
3789024174
3789030278
3789034428
3789040837
3789047673
3789053166
3789059269
3789064518
3789070378
3789077885
3789083561
3789088871
3789093266
3789100102
3789105106
3789112064
3789117680
3789122929
3789129459
3789133427
3789138981
3789144291
3789149540
3789155460
3789161137
3789166630
3789170658
3789176212
3789182499
3789187626
3789193119
3789197208
3789203922
3789209110
3789215519
3789221134
3789227482
3789233707
3789237919
3789244816
3789251041
3789256107
3789261844
3789268070
3789274234
3789278324
3789285465
3789290836
3789296634
3789302127
3789308475
3789314579
3789320438
3789326664
3789330997
3789337345
3789341190
3789348270
3789352970
3789359928
3789363834
3789370670
3789375858
3789381351
3789386295
3789390994
3789396915
3789403262
3789409427
3789414127
3789420474
3789425418
3789432376
3789436282
3789443179
3789447818
3789453067
3789458316
3789463565
3789469608
3789474002
3789480594
3789485660
3789491397
3789497012
3789502017
3789507144
3789512393
3789518985
3789524478
3789528811
3789534732
3789540835
3789546084
3789551761
3789557315
3789563723
3789568118
3789574405
3789579226
3789583133
3789590335
3789595095
3789602786
3789605716
3789613589
3789618838
3789625064
3789629397
3789636965
3789643069
3789648440
3789653445
3789659060
3789665347
3789669497
3789675540
3789681155
3789688479
3789694155
3789698916
3789704409
3789710574
3789716921
3789723208
3789728640
3789734133
3789740420
3789744448
3789751162
3789757082
3789761721
3789768374
3789774050
3789779604
3789785036
3789791872
3789796206
3789802187
3789807436
3789813540
3789819704
3789825930
3789832766
3789837588
3789845461
3789852663
3789858950
3789863894
3789868898
3789874514
3789879702
3789885073
3789890078
3789895754
3789899782
3789907351
3789912172
3789917910
3789923037
3789929262
3789939577
3789944460
3789950075
3789955873
3789959902
3789966799
3789971071
3789978639
3789983583
3789989748
3789996828
3790002016
3790007326
3790012636
3790018617
3790024660
3790029298
3790035768
3790041017
3790046754
3790052370
3790059267
3790064699
3790069643
3790075014
3790081361
3790085573
3790091920
3790096376
3790103517
3790109621
3790114931
3790119691
3790125551
3790131288
3790138002
3790144227
3790148744
3790154420
3790160951
3790166078
3790172181
3790176454
3790182801
3790187013
3790194276
3790200319
3790206483
3790210756
3790217042
3790224427
3790228517
3790235292
3790239503
3790247254
3790252931
3790258058
3790262940
3790268434
3790274903
3790280396
3790284730
3790288514
3790297303
3790303346
3790308717
3790314637
3790320069
3790325135
3790330689
3790337342
3790342164
3790352296
3790359193
3790364136
3790372010
3790376343
3790382325
3790386536
3790394654
3790400513
3790405091
3790410523
3790416443
3790422608
3790428345
3790434510
3790440064
3790445923
3790451844
3790457947
3790463562
3790469178
3790475281
3790481080
3790486390
3790492005
3790498169
3790503540
3790509217
3790514527
3790521363
3790526245
3790532105
3790536927
3790542481
3790548645
3790553711
3790558716
3790563721
3790570496
3790574585
3790580933
3790585083
3790592652
3790596192
3790604492
3790609741
3790616150
3790621765
3790628052
3790633972
3790639099
3790643555
3790649719
3790655945
3790661560
3790667786
3790671997
3790679138
3790684814
3790689575
3790696106
3790700806
3790706299
3790712463
3790716858
3790724731
3790730713
3790736206
3790742126
3790747558
3790753540
3790758972
3790764160
3790768432
3790776001
3790781067
3790786926
3790793151
3790798462
3790804260
3790808532
3790815307
3790821167
3790827209
3790832641
3790838012
3790843383
3790848937
3790855102
3790859252
3790866332
3790870727
3790879028
3790885070
3790891784
3790900024
3790904113
3790911010
3790916992
3790921508
3790927001
3790933166
3790939758
3790944885
3790950134
3790955138
3790960509
3790966003
3790973205
3790981017
3790986083
3790992309
3790998168
3791004699
3791009521
3791015136
3791020873
3791026855
3791030761
3791037658
3791041503
3791048278
3791053161
3791058837
3791065673
3791070922
3791077147
3791082518
3791087890
3791092040
3791099364
3791103453
3791110472
3791114684
3791122679
3791125365
3791133727
3791138304
3791144347
3791149352
3791155333
3791160521
3791165648
3791171263
3791176329
3791180541
3791185851
3791193236
3791197264
3791204039
3791206542
3791213683
3791218565
3791224120
3791229430
3791236571
3791240721
3791245970
3791251768
3791256773
3791261595
3791267577
3791273924
3791280089
3791287840
3791293394
3791299437
3791306029
3791312681
3791318541
3791324278
3791330748
3791336180
3791342222
3791348814
3791354429
3791359495
3791364683
3791370909
3791376097
3791382139
3791387999
3791397154
3791404356
3791409666
3791415525
3791420713
3791426451
3791433042
3791437986
3791444334
3791449827
3791455564
3791459104
3791466184
3791471800
3791476988
3791482115
3791488218
3791495115
3791499387
3791506895
3791511228
3791517332
3791521787
3791527464
3791533750
3791538755
3791544492
3791551878
3791556760
3791561948
3791568113
3791573728
3791578062
3791582639
3791589658
3791594663
3791599729
3791605833
3791610959
3791616270
3791621335
3791626706
3791630491
3791637815
3791643369
3791649167
3791653806
3791659604
3791665830
3791670957
3791676145
3791682798
3791687619
3791694272
3791699033
3791703733
3791711179
3791717649
3791721555
3791728330
3791732602
3791739987
3791742734
3791750608
3791756650
3791762692
3791768796
3791774228
3791779660
3791785214
3791790280
3791795957
3791803342
3791807736
3791813840
3791819821
3791824704
3791828976
3791836545
3791843198
3791849179
3791855222
3791863644
3791872128
3791877133
3791883176
3791889523
3791895932
3791900754
3791906308
3791913693
3791919797
3791926449
3791930905
3791940243
3791945187
3791950314
3791956357
3791960202
3791966610
3791970761
3791977841
3791982785
3791988400
3791993832
3791999081
3792005551
3792011715
3792021786
3792027218
3792031430
3792038449
3792045223
3792049374
3792057430
3792062374
3792068783
3792074459
3792078854
3792084896
3792090756
3792096493
3792101681
3792107113
3792112301
3792118404
3792122311
3792129269
3792134701
3792140926
3792146664
3792151363
3792156612
3792162350
3792168575
3792173702
3792179623
3792185604
3792191341
3792196285
3792201717
3792207760
3792211910
3792219051
3792225338
3792230098
3792235286
3792240230
3792245968
3792249996
3792257503
3792262264
3792268001
3792274166
3792278926
3792284847
3792291378
3792296993
3792301082
3792307979
3792313106
3792317989
3792323421
3792327510
3792333980
3792340145
3792345272
3792350826
3792356380
3792361995
3792366512
3792375118
3792379451
3792385860
3792390560
3792395442
3792400691
3792407161
3792413509
3792418391
3792427791
3792432735
3792438960
3792444575
3792450374
3792455440
3792460628
3792465633
3792471492
3792476680
3792481929
3792485835
3792492549
3792498714
3792503718
3792510676
3792516231
3792522700
3792528071
3792534114
3792540034
3792544673
3792551143
3792556209
3792561946
3792567500
3792574092
3792578059
3792584285
3792588313
3792596003
3792601496
3792606257
3792612361
3792617793
3792623347
3792628352
3792633723
3792638850
3792644404
3792649592
3792655757
3792659724
3792666072
3792669917
3792677058
3792682002
3792687922
3792693537
3792698969
3792705256
3792709223
3792716425
3792719111
3792726618
3792732172
3792738093
3792742792
3792750178
3792754938
3792760554
3792766962
3792772456
3792778437
3792782770
3792789728
3792793818
3792801386
3792806818
3792812922
3792818110
3792824152
3792828486
3792836054
3792841059
3792846369
3792851740
3792856379
3792863520
3792868952
3792874872
3792880426
3792885675
3792891657
3792898615
3792904779
3792909662
3792915522
3792920038
3792927179
3792932733
3792939630
3792949213
3792954645
3792960382
3792965997
3792971369
3792976312
3792981439
3792987482
3792991510
3792998590
3793004327
3793008905
3793014093
3793020197
3793028253
3793032037
3793040277
3793044916
3793050592
3793055597
3793061395
3793067804
3793073175
3793077936
3793083368
3793089471
3793093439
3793101007
3793107843
3793113702
3793118951
3793124261
3793130304
3793135980
3793140619
3793147149
3793152887
3793157953
3793162835
3793168695
3793174310
3793178582
3793185357
3793190179
3793196160
3793202081
3793206292
3793211724
3793217584
3793224603
3793228631
3793235101
3793240533
3793244927
3793250482
3793257257
3793262444
3793268304
3793273797
3793278192
3793283502
3793289788
3793295281
3793301446
3793305779
3793311211
3793317254
3793321954
3793326592
3793332024
3793339410
3793344659
3793349480
3793354424
3793359307
3793365411
3793370415
3793379937
3793386407
3793390435
3793397515
3793403435
3793409478
3793420586
3793434441
3793439873
3793445427
3793452507
3793456719
3793463677
3793468987
3793474053
3793479302
3793484368
3793490166
3793496148
3793501763
3793506584
3793512505
3793518853
3793524346
3793530510
3793535759
3793541008
3793546196
3793552300
3793556084
3793562859
3793567619
3793574639
3793580437
3793585442
3793590630
3793597160
3793601921
3793606987
3793611931
3793619255
3793625725
3793627312
3793640495
3793645744
3793650932
3793657402
3793661919
3793669792
3793674675
3793681511
3793685844
3793690666
3793697563
3793701347
3793709099
3793713981
3793719780
3793726249
3793730400
3793736992
3793744316
3793749077
3793754692
3793758659
3793764946
3793770012
3793775505
3793781303
3793786796
3793793632
3793796440
3793802360
3793805656
3793810905
3793817375
3793822135
3793826591
3793831535
3793835502
3793839714
3793843376
3793848869
3793852653
3793856864
3793861320
3793865226
3793868522
3793873527
3793879203
3793882194
3793887870
3793891471
3793896659
3793901115
3793905509
3793912223
3793915214
3793921134
3793924308
3793929374
3793933341
3793938041
3793942374
3793946525
3793951530
3793954581
3793958976
3793963065
3793966788
3793974662
3793979667
3793984672
3793987601
3793992362
3793995292
3794000113
3794002372
3794008597
3794016959
3794022880
3794028983
3794034781
3794041739
3794049674
3794057486
3794063407
3794069571
3794075553
3794081778
3794088431
3794094901
3794101981
3794107657
3794116446
3794122489
3794129874
3794137381
3794143973
3794148795
3794152823
3794157340
3794163199
3794168509
3794173331
3794178031
3794182120
3794186148
3794190054
3794194632
3794199393
3794203116
3794207694
3794213065
3794217276
3794221243
3794226187
3794231863
3794235098
3794240652
3794244253
3794250296
3794256705
3794260733
3794266409
3794270987
3794274466
3794278555
3794284781
3794289480
3794294241
3794297354
3794302969
3794308462
3794313040
3794318899
3794323782
3794327688
3794333670
3794340078
3794345388
3794350332
3794355337
3794359854
3794363943
3794368338
3794373098
3794377066
3794381521
3794387259
3794391226
3794398062
3794402395
3794409048
3794414846
3794419790
3794424673
3794429312
3794434011
3794438894
3794442983
3794447988
3794452871
3794456289
3794461355
3794465566
3794470083
3794474661
3794478323
3794483938
3794487905
3794492361
3794497183
3794502615
3794507925
3794512441
3794517019
3794521474
3794525991
3794531484
3794537038
3794541067
3794545278
3794551565
3794556203
3794560110
3794565847
3794571096
3794575613
3794579641
3794583608
3794587881
3794593496
3794596303
3794601003
3794604909
3794609792
3794614248
3794618947
3794624196
3794628774
3794632314
3794636586
3794640310
3794645498
3794651296
3794654592
3794659353
3794663076
3794667287
3794672658
3794675466
3794681081
3794685414
3794688771
3794694204
3794698964
3794704579
3794709767
3794716237
3794720204
3794724843
3794730397
3794734914
3794739858
3794744679
3794748464
3794752431
3794757375
3794763539
3794767079
3794775075
3794777333
3794785207
3794790761
3794794850
3794801991
3794804982
3794813283
3794818776
3794822926
3794827870
3794834218
3794838246
3794844228
3794852040
3794857777
3794862050
3794867726
3794872243
3794877492
3794882741
3794887623
3794893361
3794899220
3794904652
3794909962
3794914784
3794919850
3794927418
3794933278
3794939015
3794944630
3794948842
3794954335
3794960011
3794964528
3794970875
3794976185
3794980702
3794985340
3794991505
3794994862
3795001515
3795006947
3795011341
3795018116
3795022877
3795029347
3795034046
3795040272
3795048145
3795054676
3795060719
3795066334
3795071278
3795077015
3795081898
3795088368
3795093800
3795098560
3795105396
3795109608
3795116688
3795119556
3795127613
3795133961
3795140797
3795145679
3795150806
3795156849
3795160023
3795167469
3795172901
3795178150
3795187427
3795194813
3795201221
3795205616
3795212940
3795220569
3795226673
3795230579
3795236255
3795241321
3795247852
3795252796
3795257618
3795264637
3795270008
3795275196
3795280933
3795288501
3795291919
3795302051
3795306690
3795314624
3795320362
3795325061
3795330493
3795336475
3795341113
3795346973
3795352161
3795357105
3795364429
3795368518
3795374194
3795379504
3795384509
3795391162
3795397571
3795403003
3795407153
3795413318
3795417834
3795422656
3795429492
3795436389
3795440784
3795444568
3795451892
3795458240
3795463000
3795475268
3795487414
3795500232
3795509997
3795514941
3795520984
3795526416
3795534350
3795540332
3795545581
3795551867
3795558215
3795566211
3795573169
3795579699
3795586779
3795592334
3795597705
3795600756
3795607653
3795612536
3795620898
3795626696
3795633532
3795640429
3795646472
3795653857
3795662219
3795671374
3795678454
3795684191
3795690539
3795702074
3795705187
3795717577
3795729052
3795737292
3795748461
3795759325
3795768664
3795778673
3795784106
3795797899
3795806994
3795819262
3795829760
3795839403
3795848253
3795854113
3795867662
3795876574
3795887621
3795896593
3795911669
3795919481
3795927477
3795936876
3795947557
3795957262
3795965379
3795975511
3795986498
3795995653
3796002855
3796011644
3796018724
3796026964
3796032823
3796038988
3796046068
3796050645
3796059984
3796068529
3796075609
3796083177
3796090318
3796096910
3796103258
3796113389
3796122545
3796129014
3796136827
3796142747
3796148851
3796157579
3796159593
3796169908
3796178147
3796186143
3796192369
3796201097
3796207688
3796214891
3796219895
3796226304
3796231919
3796241380
3796247849
3796257188
3796262986
3796273118
3796277940
3796285447
3796292100
3796299607
3796308579
3796315659
3796322739
3796329087
3796336167
3796342149
3796350877
3796356980
3796365708
3796372666
3796385666
3796394089
3796402817
3796411728
3796418808
3796429245
3796435166
3796444199
3796455063
3796464280
3796469162
3796484543
3796490403
3796505173
3796512131
3796521225
3796528916
3796542160
3796555893
3796565109
3796572434
3796586411
3796595322
3796605392
3796617905
3796628342
3796639389
3796645981
3796658127
3796667038
3796676437
3796687729
3796695480
3796707992
3796720016
3796728744
3796742172
3796750045
3796759079
3796765060
3796776107
3796784347
3796797042
3796805648
3796811508
3796820236
3796825180
3796841903
3796846176
3796858444
3796866561
3796876937
3796885909
3796893356
3796900008
3796909774
3796919967
3796928451
3796935653
3796944137
3796953414
3796963424
3796970748
3796977706
3796981795
3796992599
3796996505
3797005355
3797012008
3797017623
3797024032
3797029708
3797034469
3797040511
3797045150
3797052413
3797057662
3797064376
3797070662
3797075118
3797080794
3797086165
3797090621
3797096419
3797102095
3797106429
3797113265
3797118514
3797123458
3797129134
3797134139
3797138533
3797143843
3797150069
3797155318
3797161726
3797166731
3797171370
3797177596
3797181929
3797186629
3797193037
3797201216
3797205733
3797211287
3797216292
3797221480
3797226485
3797230818
3797237898
3797242964
3797250288
3797253828
3797261153
3797265547
3797270552
3797276411
3797279829
3797286421
3797293867
3797298323
3797304304
3797308699
3797314070
3797318953
3797325178
3797330183
3797336226
3797341169
3797345991
3797352034
3797356306
3797363325
3797368269
3797374311
3797379377
3797385847
3797394575
3797400984
3797408003
3797416365
3797422102
3797428816
3797437055
3797445112
3797455122
3797463423
3797470564
3797479719
3797484724
3797494062
3797501508
3797503889
3797515852
3797520917
3797531904
3797539228
3797548444
3797555829
3797558088
3797569318
3797576826
3797584699
3797591962
3797604352
3797611738
3797619306
3797627301
3797635297
3797641950
3797649091
3797655072
3797658796
3797667951
3797671186
3797678022
3797684186
3797689374
3797694806
3797701581
3797708661
3797713910
3797720502
3797725995
3797728986
3797737958
3797743451
3797748822
3797755719
3797761578
3797768598
3797773908
3797776837
3797784406
3797789044
3797794904
3797801801
3797809064
3797814191
3797820782
3797827008
3797831952
3797838422
3797843365
3797848492
3797854352
3797861188
3797864667
3797871075
3797876324
3797881390
3797886578
3797891766
3797896283
3797904217
3797907330
3797914654
3797919598
3797925946
3797930584
3797935955
3797942425
3797949810
3797954266
3797959881
3797966046
3797970562
3797979046
3797984478
3797989361
3797996441
3798002178
3798008343
3798013470
3798018170
3798024578
3798028790
3798035137
3798039593
3798047711
3798053997
3798059734
3798064617
3798069561
3798074932
3798080792
3798085125
3798092266
3798098309
3798101604
3798108440
3798114300
3798118633
3798123577
3798129925
3798136761
3798142742
3798148601
3798155254
3798159405
3798166729
3798171551
3798176494
3798181194
3798188640
3798195293
3798200176
3798203106
3798210796
3798216533
3798224529
3798229290
3798237651
3798242290
3798247539
3798253154
3798259136
3798263530
3798267620
3798273906
3798281658
3798286479
3798291545
3798297954
3798301860
3798308208
3798313152
3798318157
3798322856
3798330181
3798334941
3798341350
3798345805
3798352214
3798356548
3798362956
3798367107
3798375407
3798379924
3798384563
3798391093
3798395915
3798400920
3798406291
3798411296
3798415752
3798423686
3798426799
3798435039
3798438212
3798446147
3798450542
3798456340
3798460918
3798468425
3798473063
3798478557
3798483012
3798487773
3798494121
3798499675
3798504008
3798509746
3798516337
3798521037
3798526042
3798531657
3798536601
3798541056
3798546916
3798553752
3798560160
3798564860
3798571025
3798576030
3798582743
3798587504
3798592692
3798597087
3798605693
3798610453
3798614726
3798621195
3798626505
3798631632
3798636759
3798641703
3798646342
3798654948
3798658061
3798665507
3798670084
3798676127
3798680705
3798687418
3798693766
3798699870
3798704325
3798711344
3798717753
3798723917
3798729044
3798733866
3798740397
3798746073
3798753397
3798757609
3798764933
3798769449
3798775065
3798780985
3798786112
3798789713
3798799235
3798805765
3798813395
3798817850
3798825724
3798829813
3798835917
3798841227
3798846292
3798852152
3798857279
3798863443
3798870584
3798876017
3798882913
3798888285
3798894937
3798899393
3798905741
3798910806
3798917826
3798922159
3798929178
3798935831
3798942423
3798946329
3798952493
3798958963
3798964578
3798969156
3798974161
3798980814
3798985696
3798991800
3798997171
3799001443
3799008279
3799012247
3799019449
3799025369
3799030923
3799034463
3799042642
3799045938
3799052164
3799058389
3799063333
3799069681
3799076639
3799081827
3799085977
3799092996
3799098794
3799104348
3799109109
3799115518
3799120523
3799127725
3799132913
3799138833
3799145730
3799149759
3799157144
3799161294
3799168496
3799171670
3799183084
3799187844
3799193887
3799200845
3799206033
3799209085
3799217019
3799222451
3799232705
3799236184
3799243386
3799250405
3799256204
3799260903
3799266335
3799273293
3799277871
3799285561
3799290566
3799296243
3799301919
3799307412
3799312417
3799318887
3799323769
3799332375
3799339150
3799344948
3799349831
3799356484
3799361611
3799366921
3799372902
3799379677
3799385232
3799391335
3799398171
3799401589
3799409768
3799416115
3799422646
3799428139
3799437294
3799442360
3799448586
3799452858
3799458962
3799463356
3799467751
3799474099
3799480385
3799487038
3799491555
3799496681
3799501564
3799508095
3799510964
3799518288
3799521462
3799529823
3799534401
3799540383
3799544594
3799550453
3799556252
3799561562
3799566139
3799574379
3799580849
3799585182
3799590614
3799595924
3799603004
3799606117
3799613625
3799618202
3799624672
3799629433
3799636024
3799641701
3799647316
3799653725
3799658424
3799665077
3799670814
3799677650
3799682228
3799689003
3799692665
3799699928
3799703041
3799710365
3799717628
3799723243
3799728004
3799734230
3799738990
3799745948
3799750770
3799755836
3799762916
3799768409
3799775672
3799781227
3799786964
3799792579
3799798194
3799802955
3799808998
3799813819
3799821082
3799825660
3799832435
3799838538
3799844215
3799848914
3799854102
3799859657
3799867164
3799873695
3799878638
3799883643
3799888404
3799894935
3799899451
3799905189
3799913612
3799920203
3799925025
3799932715
3799938270
3799944129
3799947913
3799955237
3799960853
3799967994
3799973548
3799979773
3799987037
3799993201
3799998633
3800003455
3800010474
3800017859
3800024939
3800032569
3800038001
3800045264
3800050330
3800057288
3800062476
3800068946
3800075537
3800081336
3800086768
3800092200
3800098914
3800104590
3800107764
3800116004
3800120581
3800127722
3800132239
3800138831
3800143469
3800148840
3800155493
3800161719
3800168066
3800173499
3800177954
3800183875
3800189490
3800194312
3800200110
3800207129
3800212012
3800217139
3800223547
3800228430
3800234656
3800238867
3800245398
3800250708
3800258459
3800263403
3800267676
3800274084
3800279028
3800284094
3800290869
3800295508
3800301001
3800306982
3800312353
3800318213
3800323095
3800329992
3800335913
3800341589
3800347204
3800352819
3800358129
3800364050
3800370581
3800376745
3800383398
3800390051
3800395361
3800401708
3800406835
3800412145
3800419409
3800426611
3800433691
3800438329
3800444860
3800451879
3800456884
3800463903
3800470495
3800475073
3800482946
3800488866
3800493993
3800500280
3800505041
3800511205
3800516943
3800520360
3800530797
3800536596
3800542699
3800548742
3800554906
3800561803
3800567418
3800572973
3800579259
3800587560
3800594579
3800599401
3800606786
3800612523
3800619542
3800624608
3800628576
3800638707
3800642430
3800649205
3800654637
3800661168
3800666478
3800671483
3800677587
3800682897
3800687902
3800693883
3800698216
3800705724
3800711400
3800716222
3800722081
3800727269
3800733373
3800738805
3800743565
3800747899
3800754979
3800760228
3800766576
3800771703
3800778233
3800781468
3800789525
3800795140
3800801915
3800806981
3800812413
3800815648
3800824620
3800830357
3800835423
3800838597
3800845860
3800850560
3800857579
3800862095
3800868687
3800874852
3800880345
3800886021
3800890416
3800896153
3800900914
3800907139
3800912022
3800919346
3800923802
3800929417
3800935704
3800941075
3800945958
3800952122
3800956822
3800964451
3800969395
3800974583
3800980259
3800986790
3800991368
3800997593
3801002903
3801009617
3801015232
3801021275
3801027073
3801032139
3801038181
3801044346
3801049534
3801054783
3801063389
3801069798
3801075962
3801080601
3801085545
3801092686
3801095737
3801102756
3801108250
3801115757
3801120762
3801127415
3801135349
3801141147
3801148228
3801152134
3801159275
3801166843
3801174900
3801178989
3801185886
3801189487
3801196323
3801201389
3801209446
3801215183
3801224643
3801233066
3801238681
3801243686
3801250339
3801253452
3801260837
3801263706
3801272861
3801277866
3801283786
3801288425
3801294834
3801299228
3801306064
3801310825
3801317600
3801322360
3801328708
3801332858
3801339206
3801343478
3801349338
3801355380
3801360629
3801366977
3801372104
3801376376
3801382358
3801386752
3801391879
3801398959
3801402805
3801413486
3801419162
3801424838
3801428195
3801435580
3801441928
3801447360
3801453830
3801460666
3801465671
3801470309
3801477572
3801482028
3801488559
3801494479
3801499850
3801504916
3801513400
3801518222
3801524081
3801530307
3801536410
3801541537
3801545993
3801552279
3801559176
3801565768
3801569735
3801577243
3801582186
3801587985
3801593661
3801601107
3801606112
3801612216
3801618014
3801623141
3801629427
3801635287
3801640170
3801647006
3801651644
3801655184
3801664462
3801669344
3801675936
3801680636
3801685946
3801690585
3801697054
3801701754
3801709505
3801712862
3801719637
3801724398
3801731600
3801736666
3801741732
3801748934
3801755526
3801761751
3801767611
3801774019
3801779268
3801786104
3801791231
3801796663
3801800509
3801809969
3801816134
3801821260
3801826876
3801832491
3801839144
3801845247
3801850435
3801859651
3801863558
3801869966
3801874361
3801881624
3801886995
3801892183
3801898653
3801903780
3801910249
3801915376
3801920259
3801925386
3801929598
3801936128
3801940645
3801947603
3801952120
3801958223
3801962679
3801968721
3801973177
3801977388
3801983980
3801989107
3801995698
3802000215
3802006502
3802011262
3802016695
3802020357
3802028657
3802032991
3802040742
3802045320
3802050935
3802056550
3802062105
3802066438
3802070711
3802077546
3802084565
3802090852
3802097627
3802103181
3802106599
3802114167
3802117280
3802125947
3802131135
3802138154
3802142671
3802148591
3802155061
3802160066
3802166291
3802170869
3802177827
3802185823
3802190949
3802196260
3802202851
3802207185
3802214570
3802219880
3802227265
3802234040
3802240449
3802243806
3802252290
3802259614
3802266084
3802273469
3802279511
3802283051
3802292817
3802296662
3802302888
3802310456
3802315522
3802321870
3802326142
3802333283
3802338654
3802346589
3802351655
3802359528
3802365815
3802372345
3802375641
3802383881
3802389130
3802399872
3802405121
3802411042
3802418305
3802423920
3802430939
3802436554
3802441559
3802449494
3802455231
3802462738
3802470917
3802475983
3802483124
3802488556
3802493744
3802498261
3802504486
3802510224
3802516144
3802521942
3802528595
3802532318
3802539581
3802547516
3802552643
3802558868
3802564789
3802569977
3802576141
3802581512
3802587738
3802593109
3802597992
3802603546
3802610565
3802615326
3802620758
3802625030
3802631500
3802636871
3802642792
3802646881
3802652923
3802658172
3802664703
3802670196
3802676910
3802681854
3802688446
3802693695
3802699920
3802705719
3802709808
3802715179
3802721405
3802728485
3802734161
3802739532
3802745452
3802750457
3802756988
3802761749
3802768951
3802773956
3802780914
3802788177
3802794403
3802801788
3802809234
3802814117
3802821380
3802828521
3802834747
3802839202
3802845611
3802850188
3802855560
3802860076
3802868743
3802874053
3802880706
3802885955
3802892181
3802897552
3802903655
3802908111
3802915862
3802920684
3802927032
3802931670
3802937835
3802942534
3802948394
3802953582
3802960418
3802967009
3802972747
3802978667
3802983489
3802990142
3802996184
3803002166
3803008635
3803014800
3803019316
3803025542
3803030242
3803037200
3803041228
3803051482
3803057769
3803065398
3803068877
3803075286
3803080535
3803085295
3803091765
3803097685
3803101348
3803106963
3803112273
3803119048
3803123747
3803130522
3803137236
3803141448
3803147185
3803153838
3803158720
3803161833
3803169463
3803172270
3803180693
3803186613
3803191496
3803196562
3803201079
3803206450
3803211394
3803216337
3803221098
3803226286
3803230864
3803238066
3803242338
3803247770
3803253569
3803258635
3803265898
3803269072
3803275847
3803280546
3803286345
3803291411
3803295805
3803302214
3803306181
3803312651
3803317350
3803323210
3803329191
3803335234
3803341886
3803346830
3803351591
3803356718
3803362577
3803367826
3803373564
3803378752
3803383940
3803389067
3803395719
3803400724
3803406523
3803413419
3803420500
3803425382
3803431730
3803436063
3803442594
3803448515
3803454252
3803460416
3803466886
3803472318
3803478239
3803485136
3803491056
3803494535
3803504117
3803508756
3803516141
3803519742
3803528470
3803533536
3803540494
3803545560
3803552823
3803559232
3803568570
3803572965
3803579679
3803584806
3803589811
3803594510
3803603299
3803609098
3803614225
3803618802
3803626004
3803631620
3803636502
3803641507
3803650479
3803653592
3803660367
3803664823
3803671292
3803675504
3803681485
3803685636
3803693509
3803698148
3803703153
3803708951
3803713529
3803719998
3803723843
3803730130
3803736539
3803741849
3803747830
3803752835
3803758267
3803763638
3803768582
3803774991
3803779691
3803787625
3803792081
3803797452
3803803799
3803809170
3803815579
3803819913
3803825284
3803833157
3803838101
3803844021
3803849576
3803852749
3803861477
3803864407
3803870877
3803876736
3803882718
3803887661
3803894619
3803899380
3803904995
3803910611
3803915921
3803921353
3803928677
3803934475
3803940152
3803945340
3803950039
3803956814
3803961025
3803967861
3803974148
3803980313
3803986660
3803993069
3803998013
3804003140
3804009426
3804015164
3804020779
3804026821
3804031277
3804035976
3804043240
3804048489
3804053616
3804059292
3804066494
3804069973
3804079311
3804083889
3804091091
3804094448
3804101955
3804106838
3804114590
3804118801
3804127590
3804133022
3804138210
3804142544
3804147732
3804154567
3804161525
3804168178
3804176723
3804183315
3804188259
3804193447
3804199245
3804203090
3804210353
3804215908
3804222133
3804226406
3804232570
3804236721
3804243007
3804247280
3804253871
3804257106
3804266628
3804270778
3804277065
3804282253
3804287258
3804291652
3804297817
3804302211
3804311916
3804315212
3804322475
3804326869
3804333095
3804337367
3804343471
3804348171
3804355617
3804361781
3804367091
3804371974
3804378627
3804383754
3804387599
3804395961
3804399196
3804406764
3804410121
3804418178
3804421596
3804429408
3804433681
3804439479
3804443995
3804451564
3804456325
3804461390
3804467616
3804472743
3804478297
3804484523
3804489650
3804495814
3804503810
3804508998
3804514674
3804519191
3804524073
3804529383
3804535731
3804539149
3804546778
3804552943
3804557521
3804560572
3804569667
3804572718
3804580409
3804583399
3804593043
3804599391
3804604212
3804610621
3804615687
3804621424
3804626734
3804629969
3804638575
3804644068
3804649378
3804656214
3804662257
3804667323
3804673792
3804678553
3804686304
3804693690
3804699122
3804704066
3804710596
3804715418
3804722498
3804727076
3804734278
3804740381
3804746912
3804751673
3804758631
