3559247663
3559251996
3559256147
3559260480
3559264386
3559269025
3559272870
3559276960
3559281476
3559285626
3559289899
3559293927
3559298383
3559302228
3559306317
3559310834
3559315106
3559319135
3559323651
3559327985
3559332257
3559336163
3559340009
3559345014
3559349774
3559354596
3559359296
3559363385
3559368085
3559374860
3559379742
3559385602
3559391156
3559396039
3559402570
3559407025
3559412701
3559420087
3559425336
3559432355
3559439679
3559444256
3559451886
3559457501
3559465375
3559472821
3559477398
3559486187
3559491436
3559498944
3559504986
3559513897
3559521222
3559528180
3559534161
3559540692
3559548504
3559557415
3559563763
3559572369
3559580303
3559586468
3559595440
3559602276
3559609234
3559615338
3559623211
3559629864
3559638775
3559645672
3559652813
3559660564
3559668255
3559676250
3559683636
3559691936
3559699383
3559706524
3559714825
3559722332
3559729778
3559736187
3559744060
3559750408
3559756145
3559766887
3559775127
3559781719
3559789898
3559795574
3559804729
3559811870
3559818035
3559826397
3559833965
3559839946
3559847515
3559854351
3559861431
3559869609
3559876079
3559882854
3559891094
3559897441
3559905254
3559911418
3559916728
3559926738
3559932720
3559940776
3559947124
3559955058
3559961040
3559968486
3559975322
3559983989
3559990337
3559998881
3560004802
3560010844
3560018352
3560027080
3560034221
3560042033
3560047832
3560055827
3560062175
3560069560
3560075664
3560083232
3560090861
3560098308
3560104960
3560112101
3560119853
3560127238
3560134623
3560142070
3560149211
3560157756
3560164408
3560172404
3560180522
3560187846
3560195719
3560201945
3560209513
3560219401
3560223429
3560234660
3560241984
3560249369
3560258097
3560264872
3560271098
3560279459
3560287150
3560293558
3560301493
3560307719
3560315836
3560323649
3560332194
3560339152
3560345377
3560351725
3560359842
3560366434
3560374247
3560382914
3560389078
3560398905
3560407267
3560414225
3560422220
3560431253
3560440531
3560446573
3560455851
3560463114
3560470133
3560478678
3560484781
3560492899
3560501139
3560509439
3560515421
3560524515
3560532205
3560539224
3560546549
3560555154
3560561868
3560569986
3560577798
3560583719
3560593240
3560601602
3560609048
3560615518
3560624673
3560630960
3560639505
3560647195
3560653360
3560663797
3560670633
3560677835
3560684976
3560693765
3560701761
3560708352
3560717202
3560725076
3560731790
3560737954
3560746987
3560754068
3560761880
3560768655
3560777871
3560784524
3560791970
3560798745
3560805764
3560814675
3560822122
3560830728
3560838906
3560846841
3560854470
3560862649
3560870400
3560878457
3560887307
3560895364
3560902871
3560911172
3560918130
3560926430
3560932168
3560943459
3560951882
3560959694
3560966591
3560974404
3560981850
3560989663
3560998818
3561004555
3561013344
3561022072
3561027687
3561035805
3561042031
3561052651
3561060829
3561068520
3561075722
3561080727
3561089699
3561096840
3561104103
3561111672
3561118813
3561126259
3561133217
3561140785
3561147560
3561155312
3561162209
3561169228
3561176064
3561182594
3561191322
3561197853
3561207130
3561214882
3561221596
3561230263
3561236183
3561244850
3561252540
3561260597
3561268226
3561276039
3561282814
3561289589
3561298256
3561305336
3561314857
3561324257
3561333717
3561341285
3561351051
3561359352
3561368690
3561378334
3561385719
3561392982
3561400672
3561409950
3561418556
3561425514
3561433692
3561441016
3561448035
3561455970
3561464393
3561472205
3561476966
3561484595
3561489295
3561495338
3561502540
3561506751
3561513404
3561518836
3561525855
3561530799
3561538978
3561545081
3561552161
3561557654
3561564979
3561572486
3561578956
3561584327
3561590918
3561596351
3561604468
3561611609
3561619239
3561623999
3561630774
3561636451
3561643897
3561648169
3561654578
3561660681
3561665808
3561670874
3561676489
3561683509
3561687720
3561693762
3561698157
3561704199
3561709815
3561716162
3561721472
3561727393
3561733557
3561738013
3561743811
3561750525
3561755042
3561762183
3561767432
3561772314
3561777686
3561783728
3561788550
3561794592
3561800268
3561805395
3561811560
3561817114
3561823645
3561828894
3561834936
3561841467
3561846716
3561852637
3561858374
3561862707
3561868261
3561874670
3561879553
3561885412
3561890905
3561897070
3561901831
3561907812
3561913427
3561919287
3561924658
3561930212
3561936193
3561941992
3561947241
3561952734
3561959143
3561965490
3561970861
3561976721
3561983007
3561987402
3561993627
3561999182
3562003820
3562009313
3562015234
3562020666
3562026769
3562031774
3562035864
3562044225
3562049780
3562056738
3562061498
3562067785
3562072912
3562080175
3562087133
3562093603
3562099523
3562104162
3562109655
3562115148
3562118810
3562127050
3562131200
3562137304
3562142919
3562147313
3562151952
3562157995
3562164769
3562169957
3562176427
3562180883
3562187352
3562194433
3562198400
3562205907
3562211705
3562217870
3562221959
3562228673
3562233312
3562238744
3562244237
3562249913
3562256261
3562260289
3562266149
3562271092
3562276097
3562281163
3562288182
3562293553
3562298985
3562304112
3562309728
3562313939
3562319432
3562325536
3562329564
3562336827
3562341039
3562346959
3562351476
3562357457
3562361607
3562367711
3562373692
3562380955
3562386571
3562392308
3562397435
3562402501
3562408909
3562412388
3562419835
3562425938
3562432164
3562437474
3562444432
3562450535
3562456517
3562461278
3562469273
3562475255
3562481480
3562487401
3562494542
3562499608
3562505284
3562511387
3562516148
3562521519
3562527928
3562532627
3562538914
3562544041
3562550694
3562556126
3562563511
3562571568
3562578343
3562586521
3562590855
3562598545
3562603428
3562610386
3562615391
3562621861
3562626682
3562632420
3562639256
3562644383
3562649387
3562654820
3562661167
3562666538
3562672459
3562679172
3562685337
3562692356
3562697727
3562703342
3562708164
3562714207
3562719822
3562727024
3562732639
3562738621
3562745212
3562749912
3562756077
3562761875
3562768406
3562773655
3562779636
3562786167
3562791843
3562798008
3562803379
3562808017
3562814304
3562819370
3562825534
3562831760
3562837253
3562842929
3562849460
3562854099
3562860080
3562865146
3562872104
3562878879
3562884433
3562889804
3562895847
3562901096
3562906467
3562913364
3562918613
3562925327
3562930087
3562936008
3562941928
3562946323
3562954501
3562959811
3562965732
3562971835
3562977145
3562982761
3562988986
3562994113
3563000461
3563006747
3563011264
3563017062
3563024020
3563030185
3563036288
3563043246
3563049045
3563054355
3563062533
3563067843
3563074496
3563082675
3563086642
3563093783
3563098849
3563104831
3563110812
3563116549
3563121798
3563127780
3563131625
3563137789
3563143283
3563149386
3563155551
3563159579
3563167575
3563172640
3563177889
3563184115
3563189364
3563194125
3563202120
3563206393
3563212252
3563217074
3563223666
3563230380
3563236361
3563241793
3563247469
3563252657
3563258822
3563264193
3563269747
3563275362
3563281283
3563287142
3563292391
3563298495
3563303133
3563309115
3563315096
3563321444
3563326693
3563332552
3563337801
3563343905
3563349215
3563354342
3563360689
3563366366
3563371065
3563376864
3563383822
3563388765
3563394808
3563401033
3563404940
3563412264
3563418001
3563423189
3563429720
3563434725
3563440645
3563445345
3563450533
3563459078
3563464144
3563469332
3563475740
3563480501
3563486788
3563492403
3563498567
3563504244
3563510957
3563515840
3563520784
3563526888
3563532503
3563538240
3563543001
3563547639
3563555086
3563560152
3563567232
3563572664
3563579805
3563588533
3563593660
3563600862
3563605806
3563612642
3563618257
3563624299
3563628999
3563635103
3563639985
3563645906
3563650850
3563658357
3563665132
3563669771
3563676057
3563682832
3563686921
3563692964
3563699373
3563704622
3563710542
3563715425
3563721833
3563726655
3563733003
3563738191
3563745149
3563750520
3563756745
3563762239
3563767060
3563772798
3563777192
3563783784
3563789704
3563795869
3563799836
3563805024
3563811006
3563818025
3563822297
3563828706
3563833650
3563840119
3563844819
3563851350
3563855683
3563862153
3563868317
3563874421
3563879487
3563884919
3563891328
3563896149
3563903413
3563910248
3563916291
3563921357
3563926545
3563932770
3563937409
3563943757
3563950043
3563956025
3563961091
3563966401
3563972565
3563977204
3563982880
3563987824
3563994049
3564000580
3564006623
3564011139
3564017121
3564021820
3564028900
3564034394
3564039582
3564044586
3564050751
3564056427
3564062348
3564070526
3564075104
3564082489
3564089569
3564094696
3564100861
3564107636
3564114411
3564121613
3564126984
3564133270
3564139313
3564144318
3564149994
3564156830
3564161774
3564168243
3564172638
3564178619
3564183441
3564189606
3564197113
3564202118
3564206817
3564213043
3564219024
3564224335
3564228973
3564235687
3564240021
3564246917
3564252716
3564258575
3564263031
3564268951
3564275116
3564278839
3564286102
3564290863
3564297088
3564301666
3564308197
3564314117
3564319854
3564324249
3564330413
3564336456
3564340484
3564348114
3564352752
3564359161
3564364593
3564369781
3564375030
3564381500
3564385955
3564392486
3564397918
3564403777
3564408660
3564417083
3564422210
3564427703
3564433868
3564439483
3564445586
3564450896
3564457061
3564461822
3564467193
3564472198
3564478545
3564486297
3564491912
3564497283
3564502227
3564508391
3564514251
3564520110
3564525786
3564531035
3564537139
3564541900
3564546782
3564552886
3564558318
3564564299
3564569610
3564575408
3564580413
3564586760
3564592742
3564598418
3564605437
3564610625
3564617766
3564622893
3564629546
3564634734
3564641997
3564648040
3564652190
3564658599
3564663787
3564669341
3564673979
3564679534
3564684966
3564690703
3564696623
3564701506
3564707121
3564711516
3564717436
3564726592
3564732024
3564737334
3564742827
3564749052
3564754240
3564759978
3564764983
3564770842
3564775603
3564782133
3564786894
3564792570
3564797819
3564803984
3564809599
3564814482
3564820280
3564824980
3564830717
3564835966
3564841459
3564847929
3564853911
3564858793
3564864348
3564870268
3564874907
3564880644
3564886503
3564892790
3564897917
3564903532
3564908537
3564914457
3564920744
3564926115
3564932157
3564937834
3564943510
3564949858
3564954985
3564959989
3564966154
3564972257
3564977079
3564983061
3564989347
3564994718
3564999601
3565005583
3565011686
3565016935
3565022672
3565027677
3565034147
3565039274
3565044828
3565050809
3565056669
3565061979
3565068265
3565072599
3565078764
3565084440
3565090848
3565098539
3565103971
3565109525
3565115995
3565121427
3565127897
3565139615
3565144864
3565151578
3565155729
3565162809
3565167447
3565173917
3565179898
3565185758
3565190274
3565196378
3565201261
3565207364
3565213590
3565218717
3565224820
3565230069
3565234769
3565240079
3565246060
3565251737
3565257230
3565261563
3565267179
3565273404
3565277738
3565283963
3565290738
3565295377
3565301907
3565306790
3565312222
3565318387
3565322842
3565328763
3565335233
3565339688
3565347623
3565354092
3565359891
3565364407
3565371060
3565377164
3565383267
3565387967
3565394559
3565399319
3565405423
3565411954
3565415921
3565422879
3565429043
3565434170
3565440823
3565446011
3565451870
3565457242
3565461819
3565468899
3565473477
3565479947
3565486111
3565490872
3565495816
3565501736
3565509060
3565514126
3565519497
3565525662
3565530606
3565535733
3565542263
3565547329
3565553738
3565559109
3565564907
3565571133
3565575710
3565581997
3565586514
3565592983
3565597683
3565603420
3565608486
3565615383
3565621121
3565626736
3565635342
3565644009
3565654812
3565662502
3565671291
3565679165
3565687710
3565695278
3565703457
3565712002
3565719326
3565728176
3565736721
3565744961
3565750454
3565756801
3565762844
3565768154
3565773830
3565779750
3565786342
3565791896
3565797390
3565803188
3565808376
3565812892
3565818813
3565823940
3565829860
3565835414
3565839565
3565844875
3565850917
3565857021
3565861537
3565867946
3565873683
3565881008
3565886012
3565891017
3565896633
3565901332
3565906642
3565913051
3565918849
3565924342
3565928432
3565933986
3565940028
3565943752
3565951625
3565956874
3565961574
3565966701
3565972743
3565977016
3565983241
3565989711
3565995143
3566001430
3566006007
3566012172
3566016261
3566022243
3566029017
3566034816
3566040797
3566045009
3566051051
3566056361
3566061244
3566067469
3566073207
3566077052
3566082850
3566089076
3566092738
3566098902
3566102992
3566110438
3566116297
3566120997
3566126124
3566130824
3566136744
3566141139
3566148097
3566154383
3566159388
3566165187
3566170924
3566176783
3566183314
3566191065
3566196925
3566202723
3566209315
3566214808
3566219691
3566225794
3566230799
3566236781
3566243067
3566248621
3566254725
3566258448
3566264613
3566270716
3566276758
3566282252
3566287623
3566292383
3566298243
3566303004
3566308863
3566315088
3566321375
3566325892
3566331324
3566338099
3566342005
3566347437
3566352137
3566359278
3566364405
3566369898
3566374598
3566379663
3566384485
3566391199
3566397425
3566402552
3566408045
3566414026
3566419763
3566424646
3566428369
3566436548
3566441370
3566447473
3566453272
3566457483
3566462183
3566467798
3566473840
3566481226
3566486475
3566491907
3566496973
3566502222
3566508203
3566513025
3566519983
3566524988
3566530542
3566535608
3566541772
3566546594
3566552332
3566558435
3566563684
3566569299
3566573999
3566579553
3566583276
3566588830
3566594018
3566600061
3566606592
3566611780
3566617090
3566621484
3566627527
3566632043
3566638452
3566643335
3566648950
3566653833
3566659509
3566666528
3566671167
3566679101
3566684411
3566691308
3566697595
3566703576
3566709436
3566714929
3566721887
3566726892
3566731652
3566736962
3566741845
3566747521
3566753137
3566758935
3566763452
3566769982
3566773705
3566779626
3566784692
3566790612
3566795251
3566802392
3566807458
3566812280
3566817407
3566824242
3566829186
3566834740
3566838830
3566844811
3566850854
3566856347
3566860986
3566866418
3566872399
3566877892
3566884545
3566889001
3566894494
3566898583
3566904076
3566910119
3566913964
3566920373
3566926171
3566932641
3566936669
3566942528
3566947228
3566953087
3566958336
3566964318
3566969078
3566975060
3566980248
3566985680
3566990441
3566996239
3567003991
3567009789
3567014305
3567019677
3567025780
3567031639
3567037071
3567042809
3567048241
3567054466
3567058617
3567065453
3567071251
3567078087
3567084313
3567089623
3567096275
3567101769
3567106651
3567112145
3567117638
3567124046
3567129906
3567134972
3567141991
3567147484
3567153831
3567159752
3567167747
3567173973
3567180015
3567185692
3567193443
3567198143
3567205833
3567211265
3567218895
3567224266
3567229942
3567236900
3567242698
3567247520
3567252586
3567258751
3567264061
3567270103
3567277061
3567282859
3567287559
3567293480
3567300071
3567305137
3567311058
3567317466
3567323020
3567330223
3567334861
3567341087
3567347068
3567352134
3567358360
3567364707
3567369407
3567377036
3567382835
3567387290
3567394248
3567401084
3567407188
3567413108
3567418052
3567423728
3567430808
3567437034
3567442527
3567449607
3567455222
3567460654
3567467002
3567472007
3567479941
3567485190
3567490684
3567497581
3567501548
3567509360
3567515952
3567520469
3567526389
3567532615
3567537864
3567543967
3567549399
3567555503
3567560691
3567566306
3567571738
3567577781
3567583213
3567589682
3567597312
3567601462
3567607016
3567612632
3567617942
3567623740
3567631552
3567640097
3567647299
3567657492
3567665366
3567673483
3567680686
3567688315
3567696982
3567704489
3567712851
3567719809
3567726279
3567731833
3567737631
3567743368
3567749289
3567755026
3567761252
3567766745
3567772970
3567778281
3567784445
3567789938
3567795431
3567801718
3567807577
3567813620
3567819662
3567825888
3567830588
3567836691
3567842489
3567847738
3567853476
3567859884
3567864706
3567870565
3567877096
3567882162
3567887899
3567893637
3567898947
3567903219
3567909567
3567914694
3567920553
3567926596
3567934469
3567939413
3567945638
3567951071
3567956442
3567963522
3567969503
3567975240
3567980001
3567985250
3567990743
3567997213
3568004049
3568008444
3568013631
3568019308
3568025106
3568030050
3568036947
3568042196
3568048421
3568052328
3568059286
3568064657
3568073751
3568085592
3568097921
3568106771
3568116475
3568123433
3568129720
3568135885
3568141866
3568148336
3568154683
3568160604
3568167379
3568176107
3568181417
3568187947
3568193441
3568199117
3568204183
3568211690
3568217122
3568223775
3568228780
3568234151
3568240438
3568245198
3568251363
3568256856
3568262227
3568267598
3568273274
3568278157
3568284078
3568291463
3568296224
3568301900
3568308980
3568313924
3568320760
3568325520
3568332600
3568338826
3568343220
3568348408
3568353963
3568359517
3568364827
3568370564
3568376546
3568382893
3568387471
3568394063
3568399434
3568406331
3568411458
3568417256
3568423726
3568428303
3568434590
3568439961
3568444661
3568450581
3568456501
3568461384
3568466938
3568475483
3568480671
3568487141
3568492939
3568497578
3568503620
3568509480
3568516072
3568521015
3568527363
3568533528
3568538288
3568544941
3568549641
3568556782
3568562519
3568567768
3568573628
3568580830
3568585468
3568591999
3568596699
3568602497
3568608295
3568614033
3568620747
3568625446
3568631672
3568636799
3568642475
3568648579
3568655476
3568665180
3568670490
3568676472
3568681843
3568688923
3568694599
3568701557
3568707294
3568712604
3568717365
3568726459
3568731525
3568737446
3568742634
3568747638
3568754169
3568760395
3568766071
3568771747
3568776935
3568782672
3568787921
3568793415
3568798481
3568804157
3568809284
3568815265
3568820270
3568827045
3568832904
3568838458
3568844257
3568849567
3568855243
3568861713
3568866535
3568873615
3568877948
3568884357
3568889118
3568895160
3568900104
3568906268
3568911456
3568917438
3568924091
3568928851
3568935321
3568940814
3568945880
3568951495
3568970538
3568976581
3568981280
3568987384
3568992145
3568999957
3569005084
3569012103
3569017840
3569023150
3569028216
3569034625
3569039019
3569045672
3569051226
3569057147
3569063678
3569069537
3569074481
3569080401
3569085589
3569091326
3569097857
3569102923
3569108782
3569112750
3569118487
3569125567
3569129717
3569137042
3569142230
3569147235
3569153277
3569159808
3569165606
3569171587
3569177447
3569183611
3569192828
3569197894
3569205035
3569210589
3569216875
3569222979
3569230242
3569236712
3569242144
3569246661
3569252093
3569258807
3569263628
3569269610
3569274554
3569280169
3569286272
3569292376
3569296953
3569302080
3569308489
3569315081
3569319536
3569325029
3569331072
3569337298
3569343340
3569348467
3569353533
3569359026
3569365313
3569371172
3569376787
3569382524
3569388933
3569394548
3569401262
3569405901
3569411577
3569418169
3569422747
3569428972
3569435381
3569443193
3569448198
3569453752
3569460100
3569466875
3569472246
3569478044
3569482805
3569489397
3569495012
3569501787
3569507402
3569513322
3569519304
3569524919
3569530778
3569536699
3569541460
3569547990
3569554399
3569560625
3569565080
3569570146
3569575822
3569582902
3569588029
3569593889
3569599382
3569603776
3569609575
3569615922
3569621232
3569627397
3569632768
3569638688
3569644182
3569651933
3569660295
3569666398
3569674638
3569681352
3569686967
3569694902
3569701127
3569706803
3569712541
3569718644
3569723893
3569729753
3569735673
3569741288
3569746232
3569751725
3569756730
3569762284
3569767045
3569772172
3569778214
3569782853
3569788773
3569793961
3569799638
3569804887
3569808549
3569816178
3569822037
3569828446
3569833817
3569839982
3569844865
3569851090
3569857011
3569863175
3569868302
3569874161
3569879410
3569884843
3569891312
3569895707
3569902909
3569909134
3569913956
3569919632
3569925675
3569930680
3569936844
3569943070
3569947098
3569955521
3569959549
3569965897
3569970780
3569977372
3569982254
3569989395
3569994583
3570000687
3570006790
3570013382
3570018509
3570024674
3570029984
3570035294
3570040543
3570045548
3570051895
3570058060
3570062760
3570070023
3570076004
3570081192
3570086990
3570091995
3570098587
3570102982
3570107986
3570115677
3570120804
3570125870
3570132156
3570136734
3570142349
3570147842
3570154190
3570159561
3570166641
3570172195
3570178482
3570184036
3570190323
3570197403
3570203079
3570207962
3570213150
3570219253
3570226028
3570231765
3570237442
3570242874
3570249099
3570255996
3570262222
3570267471
3570273391
3570279434
3570284744
3570289505
3570293411
3570298599
3570303360
3570309219
3570316482
3570321243
3570326065
3570332351
3570336563
3570343093
3570349075
3570353713
3570358474
3570366409
3570371047
3570377090
3570381240
3570387466
3570394241
3570398940
3570404678
3570409194
3570415176
3570419082
3570425613
3570431167
3570436172
3570442397
3570446548
3570452712
3570456801
3570462356
3570467544
3570475112
3570481399
3570485610
3570493422
3570499282
3570503432
3570510207
3570515639
3570521926
3570528762
3570533828
3570540725
3570545913
3570553786
3570558303
3570564345
3570570510
3570577773
3570583266
3570588454
3570594680
3570601882
3570607131
3570612990
3570618422
3570624648
3570630507
3570636122
3570640578
3570646559
3570653334
3570661818
3570668227
3570674757
3570681777
3570687148
3570693251
3570699355
3570704665
3570710280
3570716811
3570722487
3570727187
3570733229
3570738783
3570744582
3570748305
3570755385
3570760451
3570766554
3570772963
3570777113
3570782240
3570787916
3570793593
3570799452
3570804640
3570810743
3570816298
3570822340
3570827345
3570832045
3570838392
3570843153
3570849684
3570855970
3570860487
3570867079
3570871229
3570878370
3570882399
3570889601
3570894178
3570900709
3570906202
3570911390
3570917433
3570923292
3570928419
3570934767
3570941541
3570947889
3570952772
3570958082
3570963941
3570970289
3570974195
3570982374
3570988722
3570993787
3571000135
3571005140
3571012159
3571016126
3571024122
3571029005
3571035841
3571040723
3571046644
3571051832
3571058179
3571063062
3571067213
3571073621
3571079236
3571083875
3571089246
3571094068
3571100049
3571106458
3571111646
3571117322
3571123304
3571128675
3571133558
3571139844
3571145398
3571151685
3571156141
3571163282
3571167188
3571174878
3571180127
3571187696
3571194532
3571201001
3571206616
3571212354
3571216748
3571221204
3571228345
3571233167
3571237317
3571243115
3571247083
3571254041
3571258252
3571264661
3571270459
3571275281
3571280408
3571286450
3571291272
3571295544
3571300671
3571307019
3571312268
3571318433
3571323376
3571329907
3571334973
3571340893
3571345959
3571350842
3571357007
3571362561
3571366772
3571371228
3571376782
3571381848
3571388196
3571395520
3571399609
3571405652
3571411023
3571415722
3571419751
3571426770
3571433117
3571437390
3571442028
3571447644
3571452404
3571458142
3571464795
3571471203
3571476391
3571482312
3571488476
3571495190
3571501599
3571506665
3571512829
3571518688
3571523815
3571529370
3571533764
3571539318
3571544018
3571551220
3571556469
3571562451
3571568676
3571574352
3571580151
3571587109
3571591930
3571597851
3571602123
3571608105
3571612438
3571618420
3571622387
3571628551
3571634533
3571640209
3571645763
3571649547
3571655407
3571661266
3571668712
3571674145
3571680248
3571685192
3571691540
3571696544
3571704174
3571710338
3571716259
3571721019
3571726635
3571732250
3571737072
3571742870
3571747692
3571753856
3571758556
3571765209
3571769970
3571773632
3571780651
3571785839
3571792919
3571797252
3571802867
3571807872
3571813304
3571818614
3571822460
3571828746
3571834789
3571841442
3571847179
3571853465
3571859752
3571863841
3571870799
3571876781
3571883373
3571888316
3571894298
3571898692
3571904735
3571910655
3571916759
3571921886
3571927562
3571932262
3571936595
3571942576
3571947948
3571958201
3571965831
3571972545
3571977366
3571982676
3571987376
3571992015
3572000133
3572005137
3572010814
3572015391
3572021006
3572026317
3572031810
3572038951
3572043711
3572048594
3572053050
3572059153
3572064524
3572068980
3572074473
3572080149
3572085948
3572089793
3572096629
3572100291
3572106211
3572111582
3572118907
3572124217
3572128428
3572134165
3572138621
3572143626
3572149363
3572154551
3572160838
3572166270
3572169932
3572178538
3572184885
3572189524
3572195872
3572202280
3572208872
3572214854
3572221506
3572226939
3572231577
3572237437
3572243418
3572248606
3572253001
3572258005
3572263499
3572269602
3572273508
3572279734
3572286020
3572289866
3572294809
3572300425
3572306711
3572310373
3572316843
3572322397
3572328318
3572332956
3572338572
3572345713
3572351145
3572357553
3572361887
3572367746
3572373728
3572377451
3572384836
3572389902
3572397470
3572402231
3572407663
3572412790
3572417246
3572423715
3572428537
3572434152
3572440561
3572445322
3572451425
3572457468
3572461435
3572468149
3572474619
3572479440
3572485483
3572490121
3572495920
3572503000
3572506723
3572511911
3572518259
3572524667
3572529611
3572534372
3572539560
3572544382
3572551156
3572557443
3572562021
3572567575
3572574533
3572579904
3572584787
3572589120
3572595773
3572600351
3572606332
3572611520
3572617135
3572623422
3572627145
3572633188
3572638681
3572645089
3572651132
3572657052
3572663156
3572669198
3572675790
3572682321
3572688668
3572692880
3572698800
3572705575
3572709725
3572717599
3572723886
3572729989
3572736398
3572741708
3572747262
3572751962
3572757455
3572762948
3572768258
3572773995
3572778390
3572784249
3572788949
3572794808
3572800607
3572806588
3572811471
3572816842
3572823678
3572829598
3572835519
3572840523
3572846139
3572852059
3572856209
3572862618
3572867135
3572873421
3572879403
3572884957
3572890633
3572898507
3572903267
3572909005
3572915413
3572920479
3572926033
3572930367
3572935799
3572940438
3572946053
3572952034
3572957955
3572963082
3572967781
3572973824
3572979561
3572985237
3572989632
3572995735
3573002877
3573008370
3573014473
3573018929
3573025032
3573029793
3573037239
3573042061
3573047554
3573053230
3573058540
3573064339
3573068062
3573075752
3573080086
3573086128
3573091866
3573096199
3573102486
3573107002
3573112678
3573118660
3573124641
3573130867
3573136604
3573142341
3573147041
3573152656
3573159309
3573163704
3573169441
3573174263
3573179329
3573186592
3573192146
3573199104
3573204414
3573210029
3573216011
3573222114
3573226936
3573232368
3573237495
3573243660
3573249031
3573255012
3573259834
3573265815
3573270820
3573276313
3573282722
3573287178
3573292671
3573297798
3573302253
3573308845
3573314155
3573321662
3573326301
3573332649
3573338569
3573344673
3573350166
3573356818
3573362067
3573367927
3573373115
3573378181
3573384711
3573389960
3573396064
3573401618
3573407600
3573411323
3573416938
3573421821
3573427375
3573432685
3573436469
3573443793
3573449775
3573455207
3573462287
3573468207
3573472907
3573478461
3573483405
3573489570
3573495002
3573500617
3573505500
3573511786
3573517524
3573521857
3573528571
3573533332
3573538825
3573543525
3573549201
3573553839
3573560553
3573566535
3573573188
3573578131
3573582282
3573588324
3573593573
3573599433
3573605353
3573609931
3573615546
3573621710
3573626593
3573630316
3573637702
3573641974
3573648627
3573654486
3573658759
3573664252
3573669745
3573674017
3573679755
3573684332
3573692450
3573697882
3573702521
3573708868
3573714362
3573719977
3573726874
3573733282
3573739447
3573744513
3573749212
3573754156
3573760138
3573765265
3573770575
3573776800
3573782049
3573788458
3573792791
3573797796
3573803290
3573809637
3573815069
3573820440
3573826239
3573831060
3573835699
3573841925
3573846563
3573853949
3573858709
3573864325
3573869146
3573874823
3573879400
3573885076
3573891668
3573896795
3573902899
3573908270
3573913885
3573919927
3573923895
3573931585
3573937322
3573943426
3573949468
3573955023
3573960149
3573964300
3573972540
3573978582
3573983831
3573990240
3573996099
3574000555
3574006536
3574011541
3574018560
3574024602
3574029607
3574035772
3574039922
3574046026
3574051702
3574057744
3574062566
3574068303
3574074834
3574079778
3574086004
3574091497
3574096990
3574102971
3574108465
3574113347
3574119390
3574124028
3574128362
3574136724
3574141057
3574146856
3574151677
3574157170
3574162725
3574168401
3574173650
3574179265
3574185491
3574189885
3574197026
3574203984
3574209477
3574216802
3574223515
3574229985
3574237004
3574243718
3574249699
3574255620
3574261845
3574267094
3574272649
3574277531
3574283513
3574288335
3574292729
3574300969
3574305791
3574311406
3574315251
3574320866
3574327092
3574332036
3574337773
3574343327
3574349187
3574354802
3574360295
3574367070
3574372136
3574378544
3574383976
3574388737
3574395634
3574400883
3574405827
3574411381
3574417912
3574421513
3574427372
3574432682
3574438359
3574442448
3574448124
3574453434
3574460148
3574465458
3574471196
3574476017
3574481022
3574487004
3574490666
3574498051
3574503056
3574508671
3574513371
3574518925
3574524967
3574528752
3574536930
3574542179
3574547123
3574551518
3574557560
3574561955
3574567875
3574573246
3574579838
3574583805
3574589848
3574595341
3574601017
3574605900
3574611637
3574619022
3574624332
3574628544
3574634037
3574639713
3574644413
3574649967
3574654789
3574661075
3574666446
3574672001
3574676883
3574682316
3574688358
3574692142
3574700931
3574706241
3574711063
3574716495
3574722904
3574728641
3574732975
3574742130
3574747196
3574753604
3574759342
3574765567
3574771854
3574777347
3574784305
3574790042
3574795597
3574800052
3574804569
3574811771
3574816532
3574824039
3574829837
3574835941
3574841434
3574845889
3574851138
3574856754
3574863162
3574869083
3574874271
3574879764
3574884402
3574889285
3574894229
3574900088
3574907291
3574912051
3574917667
3574922977
3574926639
3574933353
3574937198
3574944766
3574949588
3574956119
3574961673
3574966006
3574971988
3574976443
3574982608
3574987185
3574993106
3574996890
3575003177
3575009402
3575014163
3575018985
3575025271
3575031070
3575037112
3575041507
3575047122
3575051333
3575056948
3575062258
3575069705
3575074832
3575079226
3575085147
3575090274
3575094973
3575099856
3575106509
3575111575
3575117251
3575122683
3575128359
3575133242
3575138247
3575143984
3575150576
3575155764
3575161196
3575165713
3575171145
3575176882
3575181582
3575187441
3575193545
3575197268
3575203616
3575211001
3575216677
3575221499
3575228701
3575234926
3575241152
3575249331
3575254336
3575260927
3575265627
3575271792
3575276430
3575282045
3575286440
3575291994
3575298281
3575303347
3575310244
3575314577
3575320681
3575326052
3575330507
3575335634
3575341188
3575345949
3575351625
3575357668
3575362673
3575367311
3575373598
3575378969
3575383364
3575389711
3575395571
3575400026
3575405824
3575411379
3575416689
3575420412
3575427492
3575433962
3575439333
3575445619
3575451051
3575456300
3575461061
3575467165
3575473146
3575477541
3575483278
3575489015
3575494203
3575500185
3575505312
3575511171
3575517091
3575521913
3575527040
3575533205
3575537904
3575544313
3575548585
3575554628
3575561708
3575566530
3575571290
3575576478
3575582399
3575587098
3575593873
3575598390
3575604127
3575610231
3575614198
3575620729
3575626954
3575632203
3575638002
3575644715
3575651124
3575655275
3575665650
3575671510
3575678224
3575682984
3575688478
3575693177
3575697572
3575703919
3575709840
3575715211
3575721253
3575726869
3575732972
3575739198
3575744752
3575750855
3575757630
3575762635
3575770020
3575775574
3575781068
3575785340
3575791871
3575797791
3575803895
3575808900
3575814576
3575820252
3575824586
3575830933
3575837220
3575843140
3575849549
3575854371
3575859864
3575864319
3575869935
3575875245
3575881959
3575887330
3575892762
3575897706
3575903565
3575908936
3575913453
3575919861
3575925537
3575931336
3575936585
3575940308
3575947022
3575950745
3575956726
3575963867
3575968872
3575972901
3575979004
3575983155
3575989197
3575993469
3575999878
3576006409
3576012818
3576019531
3576024475
3576029785
3576035462
3576040588
3576046631
3576053162
3576058716
3576062561
3576069763
3576074585
3576081482
3576087158
3576092712
3576098999
3576103699
3576109680
3576115051
3576120239
3576126465
3576131103
3576136230
3576141846
3576146728
3576152344
3576156921
3576164917
3576169983
3576174682
3576179443
3576184936
3576189575
3576195923
3576202026
3576206176
3576211670
3576216430
3576223266
3576230041
3576236206
3576243225
3576247741
3576254028
3576260620
3576266479
3576273071
3576277832
3576283996
3576289916
3576295715
3576300537
3576305480
3576311462
3576317260
3576321716
3576327392
3576333801
3576338744
3576344421
3576349120
3576354430
3576361327
3576366332
3576370605
3576376525
3576382262
3576386047
3576392577
3576399169
3576403075
3576409484
3576415343
3576420592
3576426330
3576431212
3576435912
3576444457
3576449340
3576454955
3576458922
3576464538
3576470031
3576473815
3576481627
3576487121
3576492492
3576498229
3576503905
3576508727
3576514403
3576519042
3576525206
3576530638
3576534484
3576541991
3576547484
3576552550
3576557738
3576563842
3576569884
3576575560
3576580443
3576586302
3576591002
3576596434
3576603392
3576608092
3576613646
3576621947
3576630126
3576636534
3576643919
3576650084
3576654173
3576660033
3576665892
3576672118
3576677122
3576681944
3576690550
3576695738
3576701048
3576705809
3576711424
3576717711
3576722533
3576728636
3576734373
3576742003
3576747435
3576752440
3576759642
3576765562
3576772032
3576780211
3576785582
3576790831
3576794737
3576799925
3576806517
3576812132
3576816710
3576821470
3576827513
3576832151
3576838194
3576843260
3576848936
3576854917
3576858763
3576865110
3576868955
3576875730
3576880918
3576886534
3576891722
3576897825
3576902891
3576908506
3576913206
3576918699
3576923155
3576930052
3576935117
3576940733
3576945921
3576950132
3576956236
3576960935
3576968198
3576973203
3576978880
3576983335
3576989805
3576995664
3577001401
3577007139
3577013364
3577018308
3577022886
3577028867
3577033933
3577039365
3577044309
3577051145
3577056211
3577063108
3577068052
3577073057
3577078977
3577084104
3577090940
3577097165
3577102720
3577107480
3577112058
3577117978
3577122678
3577129209
3577134214
3577139585
3577143918
3577150510
3577155698
3577161557
3577167966
3577173154
3577179318
3577184995
3577190793
3577197385
3577202817
3577208615
3577212277
3577216672
3577220822
3577224118
3577230588
3577235043
3577240659
3577245602
3577250485
3577254330
3577257993
3577263791
3577267270
3577271725
3577275693
3577278744
3577284299
3577287534
3577291806
3577294675
3577300107
3577304440
3577307736
3577312741
3577315732
3577319943
3577323849
3577328854
3577332760
3577336545
3577339779
3577343991
3577346860
3577351437
3577354855
3577360348
3577364132
3577368161
3577372006
3577376767
3577380429
3577384640
3577388730
3577393368
3577397702
3577400937
3577405209
3577408505
3577412899
3577416317
3577425839
3577429623
3577434750
3577438717
3577441891
3577446652
3577450375
3577456234
3577461117
3577464169
3577468991
3577473263
3577476925
3577482235
3577486263
3577490231
3577495175
3577500240
3577503964
3577507748
3577512081
3577516232
3577522823
3577526913
3577531185
3577534908
3577538937
3577542721
3577546749
3577551815
3577556026
3577561275
3577564816
3577569210
3577573910
3577577206
3577581417
3577586666
3577591732
3577595455
3577599667
3577603817
3577608761
3577612911
3577617550
3577622005
3577627376
3577631710
3577636043
3577641292
3577646053
3577652706
3577657284
3577662777
3577667293
3577670772
3577675167
3577679500
3577685421
3577689449
3577694393
3577698970
3577703487
3577707088
3577710567
3577716671
3577720516
3577724910
3577728878
3577731746
3577736629
3577740535
3577746028
3577750545
3577754634
3577758907
3577762569
3577766170
3577770870
3577774898
3577780879
3577785030
3577789058
3577794490
3577799068
3577803340
3577809261
3577814632
3577820613
3577824275
3577829219
3577833858
3577838008
3577842159
3577847224
3577851680
3577856990
3577861324
3577867244
3577872371
3577876887
3577881587
3577885615
3577890315
3577896358
3577901424
3577907405
3577912471
3577917720
3577921809
3577926143
3577931392
3577937984
3577942561
3577948420
3577952815
3577957149
3577962031
3577966487
3577970515
3577977046
3577982051
3577988704
3577993281
3577997615
3578002009
3578007075
3578011470
3578017634
3578023494
3578028743
3578033320
3578040339
3578044734
3578051631
3578056513
3578062739
3578066706
3578072322
3578076411
3578082697
3578087458
3578093745
3578098750
3578106684
3578112971
3578117610
3578125178
3578128047
3578135798
3578139582
3578144465
3578148127
3578154169
3578159296
3578163935
3578168818
3578173151
3578177912
3578184077
3578188471
3578195368
3578199518
3578206660
3578211787
3578216852
3578220820
3578227228
3578231745
3578237055
3578242670
3578246332
3578251215
3578256708
3578262140
3578266596
3578272822
3578277826
3578283136
3578288752
3578292536
3578298090
3578302362
3578309504
3578314508
3578319818
3578325495
3578330255
3578335627
3578340326
3578344660
3578350824
3578357965
3578363581
3578367975
3578373407
3578378473
3578383905
3578388117
3578392999
3578401544
3578408502
3578413446
3578418207
3578424493
3578429804
3578437860
3578444269
3578451410
3578456293
3578462823
3578466425
3578471796
3578476434
3578481500
3578486566
3578493585
3578499322
3578505792
3578511713
3578516534
3578521173
3578526300
3578531427
3578535516
3578541131
3578546991
3578553033
3578557184
3578562860
3578566156
3578572931
3578576410
3578584344
3578590814
3578595208
3578601739
3578604547
3578610772
3578615167
3578621453
3578626580
3578634515
3578638848
3578645806
3578650323
3578655755
3578661309
3578669854
3578675897
3578682916
3578689324
3578694024
3578698968
3578703729
3578708795
3578716668
3578721978
3578726861
3578732354
3578736688
3578741509
3578746026
3578750420
3578757134
3578762444
3578767083
3578772332
3578776665
3578781182
3578785760
3578790154
3578796563
3578802056
3578805657
3578811272
3578816277
3578820550
3578825677
3578829827
3578834649
3578841240
3578846856
3578852471
3578858208
3578864617
3578868950
3578873772
3578878289
3578885308
3578892205
3578897820
3578902031
3578907524
3578912590
3578918633
3578924248
3578929924
3578936028
3578941826
3578947258
3578951287
3578955498
3578961540
3578965508
3578970268
3578978874
3578984368
3578991203
3578996636
3579002617
3579007683
3579013176
3579017326
3579026665
3579031548
3579037407
3579042656
3579047356
3579051994
3579058342
3579063896
3579069206
3579074516
3579080986
3579086113
3579090935
3579096428
3579101189
3579107597
3579116081
3579121330
3579126823
3579133476
3579138847
3579145927
3579151176
3579157036
3579164909
3579169120
3579176140
3579182365
3579188347
3579193534
3579202385
3579208732
3579217704
3579222343
3579232536
3579239982
3579245658
3579254081
3579262992
3579270500
3579277030
3579287162
3579293998
3579300834
3579306938
3579312736
3579320304
3579325309
3579332145
3579337760
3579350455
3579357658
3579363273
3579369926
3579377860
3579383170
3579389335
3579396293
3579400931
3579410819
3579417960
3579425773
3579434318
3579442801
3579449088
3579455802
3579464835
3579474906
3579482230
3579487113
3579494681
3579501151
3579509208
3579513297
3579522330
3579528617
3579534354
3579547599
3579553702
3579560843
3579567313
3579573111
3579579764
3579586173
3579593009
3579599539
3579606986
3579615775
3579620841
3579628531
3579637991
3579645316
3579651541
3579662405
3579669302
3579675772
3579683707
3579689200
3579695242
3579702017
3579709280
3579715567
3579722952
3579727041
3579736868
3579745718
3579753286
3579761099
3579767263
3579773062
3579779348
3579786795
3579794668
3579800711
3579810842
3579817495
3579823599
3579829763
3579837271
3579844290
3579851065
3579857595
3579864675
3579870169
3579878835
3579885916
3579894216
3579899526
3579907217
3579913931
3579918813
3579926443
3579934316
3579942495
3579950063
3579955556
3579963064
3579970693
3579976186
3579984304
3579990041
3579996084
3580000234
3580011281
3580017141
3580028982
3580036123
3580044240
3580048513
3580056630
3580064626
3580070363
3580081350
3580090017
3580098500
3580103261
3580113149
3580118032
3580123098
3580130300
3580136891
3580142629
3580148244
3580157094
3580163198
3580168935
3580175405
3580182118
3580187306
3580193959
3580199391
3580209279
3580216786
3580224294
3580230336
3580238637
3580245229
3580254994
3580261891
3580271657
3580275990
3580283498
3580290272
3580299611
3580306996
3580313832
3580321217
3580326893
3580335560
3580342518
3580350148
3580358143
3580363636
3580369740
3580377125
3580384083
3580389882
3580398549
3580405751
3580413685
3580421254
3580426747
3580434742
3580440663
3580448353
3580454823
3580458973
3580468250
3580474903
3580483631
3580487599
3580495777
3580503040
3580507496
3580515186
3580519398
3580529835
3580537647
3580545948
3580553150
3580560108
3580568958
3580573414
3580582996
3580588245
3580593311
3580603748
3580610462
3580617908
3580623829
3580629932
3580636036
3580641895
3580649524
3580656299
3580662464
3580668445
3580675281
3580682544
3580690113
3580700061
3580705677
3580715442
3580720203
3580729419
3580736316
3580745288
3580750049
3580761096
3580767932
3580775562
3580781299
3580789600
3580796314
3580803027
3580812488
3580819080
3580824573
3580832141
3580838916
3580845325
3580851978
3580861194
3580871692
3580877856
3580887744
3580894397
3580903430
3580910449
3580918017
3580923327
3580930530
3580940295
3580947070
3580953540
3580959704
3580965136
3580972216
3580978686
3580985766
3580989123
3580999743
3581007251
3581012133
3581019580
3581027453
3581033129
3581041064
3581046801
3581053027
3581057665
3581066943
3581074267
3581082934
3581089770
3581095446
3581101977
3581108813
3581114001
3581121874
3581128344
3581134692
3581143481
3581150866
3581155932
3581163805
3581171618
3581177172
3581183275
3581190600
3581198290
3581205736
3581212328
3581218798
3581223620
3581231127
3581237230
3581245531
3581249743
3581256212
3581265429
3581272203
3581279528
3581284838
3581292894
3581296984
3581305895
3581311937
3581317186
3581327623
3581335436
3581343492
3581348375
3581356310
3581362718
3581369066
3581376451
3581382250
3581388536
3581396410
3581404344
3581412645
3581417284
3581425096
3581432848
3581439012
3581444688
3581449571
3581462266
3581469713
3581475633
3581482713
3581487596
3581494371
3581501573
3581508958
3581515977
3581522691
3581526842
3581538621
3581545640
3581549730
3581557664
3581564561
3581569505
3581577195
3581585435
3581593797
3581600389
3581608628
3581613084
3581619920
3581627122
3581635057
3581640245
3581649461
3581655931
3581662827
3581670884
3581680284
3581686082
3581694077
3581701646
3581707078
3581713792
3581720750
3581729844
3581739121
3581747422
3581755601
3581760361
3581768357
3581773667
3581779038
3581785264
3581794785
3581801133
3581808457
3581813401
3581820664
3581826890
3581834458
3581840622
3581848008
3581857102
3581864853
3581870530
3581874863
3581884995
3581891220
3581897812
3581904221
3581910080
3581920700
3581926804
3581934555
3581938828
3581947006
3581953598
3581958725
3581966049
3581973190
3581979111
3581987717
3581993637
3582001022
3582006638
3582013962
3582020432
3582028000
3582033676
3582040451
3582048325
3582056320
3582061996
3582066025
3582076462
3582082077
3582087021
3582093674
3582099533
3582107773
3582115890
3582121933
3582128097
3582139023
3582144760
3582151107
3582158127
3582164779
3582176681
3582183700
3582190536
3582196456
3582204147
3582212204
3582218063
3582226120
3582230026
3582241012
3582247543
3582254562
3582261642
3582267990
3582273605
3582279708
3582286544
3582293563
3582299789
3582306930
3582314437
3582321578
3582331649
3582335616
3582343185
3582347274
3582357223
3582363631
3582370223
3582380721
3582387862
3582394637
3582402389
3582409835
3582416305
3582422835
3582430037
3582434859
3582443953
3582451583
3582460128
3582467696
3582473128
3582480758
3582484908
3582491317
3582500777
3582510909
3582518477
3582523177
3582533431
3582541243
3582549483
3582554000
3582563094
3582572737
3582578902
3582587080
3582593672
3582601180
3582605025
3582614485
3582618575
3582626387
3582633833
3582635847
3582648054
3582655989
3582662520
3582668623
3582675398
3582682600
3582688582
3582696272
3582700300
3582708174
3582716231
3582723128
3582731367
3582737898
3582743879
3582749861
3582757124
3582764326
3582771772
3582780378
3582788862
3582795576
3582801557
3582808027
3582815107
3582820722
3582828535
3582834822
3582842756
3582851545
3582858442
3582863935
3582871137
3582876264
3582883222
3582891218
3582896162
3582904096
3582910993
3582917585
3582927839
3582934614
3582938642
3582946333
3582953229
3582957868
3582965314
3582974226
3582985456
3582991804
3583000471
3583006330
3583012128
3583018659
3583026166
3583033246
3583038373
3583043805
3583052961
3583063459
3583069928
3583075544
3583083539
3583088239
3583096357
3583102643
3583109235
3583117841
3583124188
3583132550
3583136823
3583146344
3583152448
3583157941
3583165448
3583169538
3583175519
3583185468
3583192731
3583200604
3583202618
3583212872
3583217267
3583224469
3583231793
3583238751
3583248029
3583257733
3583263959
3583270062
3583276898
3583283856
3583288800
3583296734
3583301129
3583307965
3583319134
3583324383
3583333661
3583341473
3583350750
3583355328
3583363202
3583371624
3583381573
3583393231
3583399700
3583408428
3583413128
3583423138
3583429241
3583436627
3583442791
3583449993
3583459942
3583466107
3583473858
3583480633
3583487652
3583491192
3583499004
3583504376
3583510174
3583517620
3583525555
3583530743
3583537334
3583545330
3583551800
3583557781
3583565105
3583571453
3583577801
3583584698
3583593670
3583601177
3583609051
3583614300
3583620647
3583628643
3583632732
3583641582
3583649334
3583655864
3583663616
3583671367
3583677288
3583683635
3583688884
3583695903
3583702312
3583709331
3583716228
3583725933
3583731853
3583741191
3583748210
3583753887
3583764385
3583768901
3583778362
3583785381
3583792644
3583797282
3583806926
3583812846
3583819621
3583824748
3583832194
3583837810
3583848186
3583857219
3583864970
3583871623
3583877482
3583885478
3583889995
3583899333
3583903117
3583913188
3583922770
3583928813
3583933146
3583940043
3583949321
3583953837
3583961650
3583965800
3583972697
3583984111
3583991435
3583997233
3584005046
3584011027
3584017070
3584024028
3584031474
3584033610
3584044230
3584050944
3584060160
3584064616
3584073100
3584078410
3584084757
3584093119
3584097086
3584106181
3584114054
3584119852
3584128397
3584132670
3584142130
3584148295
3584155680
3584161234
3584171854
3584180338
3584188456
3584196696
3584200602
3584207743
3584214701
3584223856
3584230021
3584236857
3584242045
3584251749
3584256571
3584263468
3584269388
3584276041
3584282999
3584287882
3584293314
3584300272
3584310587
3584317972
3584325113
3584331156
3584338785
3584342935
3584348917
3584358255
3584364115
3584372720
3584380594
3584386270
3584390482
3584400125
3584406046
3584413126
3584420999
3584422952
3584434122
3584440897
3584446451
3584455972
3584459817
3584467264
3584473611
3584478982
3584485147
3584491617
3584499612
3584508462
3584513406
3584521280
3584527322
3584533059
3584539224
3584545877
3584551370
3584559854
3584567300
3584576150
3584580423
3584592385
3584597024
3584606790
3584613687
3584620584
3584630044
3584636453
3584644876
3584651956
3584659585
3584663857
3584673135
3584679482
3584685159
3584695351
3584701760
3584710732
3584717324
3584722146
3584729531
3584735451
3584743569
3584747781
3584754677
3584766823
3584774941
3584782509
3584787575
3584795449
3584799538
3584808449
3584813454
3584820473
3584827431
3584835000
3584846352
3584854042
3584859353
3584869789
3584876686
3584883767
3584892006
3584898964
3584906594
3584913979
3584921791
3584926491
3584935890
3584939980
3584947731
3584954506
3584961037
3584967934
3584978493
3584983070
3584990883
3584999184
3585006020
3585011940
3585017982
3585024879
3585033485
3585044533
3585053017
3585058815
3585068703
3585073097
3585082130
3585088051
3585094398
3585101051
3585108680
3585113807
3585119972
3585126869
3585132606
3585139442
3585144630
3585151649
3585158729
3585166908
3585172218
3585180580
3585186317
3585192482
3585198829
3585207557
3585212745
3585225074
3585231056
3585239417
3585244728
3585255409
3585259620
3585266944
3585273780
3585280067
3585286903
3585293861
3585304664
3585308814
3585315467
3585322303
3585329871
3585335609
3585341834
3585348914
3585359168
3585367347
3585372657
3585379676
3585387366
3585391456
3585398597
3585404822
3585412879
3585420875
3585427039
3585435096
3585439246
3585448462
3585454139
3585461280
3585468055
3585474463
3585481726
3585488135
3585496192
3585502600
3585507544
3585515418
3585522620
3585530249
3585533911
3585542517
3585549048
3585555762
3585563147
3585569800
3585577612
3585583716
3585591528
3585595374
3585601416
3585611975
3585617285
3585625464
3585633459
3585639197
3585644934
3585650671
3585657629
3585665198
3585674292
3585681311
3585687170
3585695837
3585704016
3585710608
3585718664
3585727209
3585735144
3585743383
3585751806
3585759680
3585767065
3585772619
3585776709
3585785803
3585793310
3585798986
3585809728
3585815222
3585827368
3585835607
3585842260
3585852636
3585861486
3585871618
3585879430
3585889013
3585893713
3585903295
3585909521
3585916967
3585924352
3585929540
3585935216
3585941259
3585951330
3585957677
3585964635
3585971288
3585977453
3585981969
3585988683
3585994237
3586000890
3586008031
3586015661
3586022680
3586027929
3586035375
3586039342
3586046483
3586054052
3586061742
3586071569
3586078282
3586087560
3586095800
3586101903
3586109044
3586118260
3586124364
3586132970
3586141515
3586148107
3586154820
3586162267
3586170079
3586174046
3586180760
3586189916
3586197057
3586208287
3586216466
3586222264
3586226475
3586237279
3586243565
3586250218
3586255162
3586262181
3586270299
3586277196
3586286839
3586293797
3586300389
3586305394
3586312230
3586319981
3586328099
3586332554
3586344029
3586352635
3586358738
3586362828
3586370823
3586380162
3586384922
3586392796
3586396824
3586403721
3586415379
3586421787
3586429539
3586435642
3586443394
3586450169
3586455113
3586462376
3586470066
3586477879
3586484592
3586493504
3586497532
3586504246
3586511753
3586517307
3586525242
3586529453
3586540684
3586548191
3586555271
3586562900
3586568699
3586575168
3586582310
3586587375
3586594455
3586602451
3586610325
3586617344
3586625522
3586630832
3586636875
3586647251
3586653415
3586660678
3586665744
3586677585
3586685154
3586692539
3586696811
3586705905
3586712192
3586718601
3586724948
3586734165
3586743015
3586748996
3586756687
3586764926
3586771823
3586777866
3586784824
3586790561
3586799167
3586806247
3586811801
3586819614
3586825839
3586832919
3586838595
3586845737
3586849643
3586856113
3586868381
3586876010
3586881137
3586887301
3586894748
3586902377
3586907077
3586913363
3586918795
3586926425
3586932711
3586940158
3586946994
3586951754
3586958712
3586966830
3586973788
3586979525
3586986178
3586992526
3586999728
3587008273
3587014620
3587019503
3587023776
3587033480
3587038790
3587044039
3587051547
3587060336
3587065402
3587072237
3587077670
3587083346
3587091586
3587096529
3587104281
3587112765
3587120699
3587129244
3587133456
3587140658
3587147494
3587155001
3587160616
3587168429
3587176302
3587182650
3587191866
3587198275
3587204073
3587211397
3587218660
3587224520
3587230257
3587237337
3587247530
3587254122
3587263277
3587268343
3587275484
3587281588
3587285982
3587292574
3587299776
3587309847
3587316683
3587324739
3587331636
3587338167
3587343782
3587351289
3587358125
3587362581
3587370821
3587377840
3587384187
3587390718
3587397188
3587404207
3587411043
3587416414
3587424104
3587431123
3587439668
3587447114
3587455965
3587463533
3587471406
3587479402
3587486055
3587494478
3587502290
3587508699
3587515046
3587521516
3587528108
3587533723
3587541047
3587544831
3587553315
3587562287
3587569551
3587576936
3587582185
3587590180
3587594026
3587602693
3587608674
3587613618
3587621858
3587627656
3587635774
3587640534
3587651277
3587655854
3587666535
3587673371
3587681184
3587689973
3587697907
3587704804
3587711823
3587717927
3587721772
3587730866
3587737763
3587743317
3587750031
3587757599
3587766816
3587773408
3587781830
3587790070
3587798371
3587805817
3587813630
3587822236
3587828522
3587837922
3587843964
3587852509
3587859284
3587865265
3587872345
3587879853
3587886078
3587890290
3587901276
3587907868
3587914154
3587921356
3587926666
3587934418
3587940643
3587946686
3587954926
3587964447
3587970062
3587978485
3587984589
3587990570
3587996368
3588004486
3588010712
3588017670
3588024261
3588032257
3588041290
3588047455
3588055572
3588059784
3588069000
3588075104
3588082245
3588089264
3588095550
3588103546
3588109039
3588117279
3588122955
3588129058
3588135589
3588142303
3588150909
3588159027
3588165069
3588171295
3588177642
3588184356
3588191131
3588197357
3588204681
3588209808
3588216583
3588224273
3588231414
3588237945
3588247405
3588251739
3588260955
3588267303
3588273895
3588283233
3588292876
3588298064
3588307037
3588313506
3588319183
3588326079
3588331756
3588338164
3588345183
3588351287
3588359160
3588366241
3588371856
3588377349
3588385344
3588390716
3588396087
3588406218
3588413482
3588420562
3588427092
3588432402
3588437651
3588442656
3588450652
3588454619
3588462310
3588470122
3588475676
3588484099
3588492705
3588496672
3588505767
3588512053
3588520659
3588527007
3588533965
3588540312
3588547209
3588554411
3588560393
3588566313
3588572295
3588578642
3588589079
3588597075
3588605742
3588613005
3588618620
3588624907
3588633452
3588638701
3588646635
3588652861
3588659697
3588668242
3588675078
3588679960
3588688017
3588694487
3588699247
3588708525
3588712370
3588722807
3588729521
3588737700
3588741789
3588751371
3588757536
3588766752
3588771696
3588779753
3588786161
3588792570
3588800382
3588808073
3588813993
3588822172
3588828642
3588833524
3588840910
3588848600
3588856779
3588862150
3588870756
3588874723
3588881803
3588891019
3588895902
3588904020
3588908109
3588917631
3588924528
3588931913
3588939359
3588944852
3588952604
3588956693
3588965177
3588972257
3588978544
3588985013
3588992277
3589000577
3589009000
3589015714
3589022306
3589029996
3589038175
3589045926
3589057889
3589066434
3589075894
3589083524
3589090421
3589099088
3589108426
3589117215
3589124722
3589132962
3589139859
3589149869
3589154019
3589161404
3589167935
3589173673
3589180814
3589185025
3589190945
3589203274
3589208096
3589214749
3589222806
3589227566
3589235379
3589240506
3589245755
3589252530
3589260037
3589267056
3589274258
3589279385
3589286709
3589293911
3589298550
3589305569
3589311551
3589322110
3589330105
3589336270
3589343289
3589352688
3589359280
3589366543
3589374722
3589383877
3589392605
3589399929
3589407070
3589414700
3589420864
3589431179
3589435818
3589444424
3589449062
3589460476
3589470852
3589478970
3589487942
3589492031
3589499721
3589503933
3589513760
3589519924
3589524563
3589534084
3589538357
3589550564
3589554958
3589563442
3589570766
3589577236
3589582851
3589591823
3589598354
3589608181
3589617580
3589625026
3589630825
3589636623
3589644191
3589648891
3589658290
3589664760
3589673244
3589680263
3589688869
3589693202
3589703884
3589708644
3589719509
3589726772
3589732021
3589742702
3589748195
3589757716
3589764369
3589769984
3589777858
3589786891
3589792262
3589796901
3589805385
3589814174
3589821437
3589828944
3589835109
3589843288
3589847316
3589856715
3589862697
3589870021
3589878688
3589884547
3589892299
3589899501
3589905116
3589913844
3589920985
3589929286
3589936305
3589943507
3589952174
3589959254
3589970973
3589976161
3589984706
3589988673
3589997889
3590003016
3590009181
3590016322
3590022791
3590029627
3590035853
3590041529
3590047205
3590052882
3590059535
3590068263
3590075953
3590085413
3590091822
3590098536
3590108424
3590112879
3590122401
3590129908
3590137720
3590148951
3590155176
3590161585
3590171168
3590177759
