4638911036
4638916713
4638920680
4638925563
4638930324
4638934962
4638938990
4638944728
4638949366
4638954738
4638959681
4638964015
4638968409
4638972804
4638978724
4638984278
4638988856
4638993617
4638998500
4639003443
4639008998
4639014674
4639020899
4639027003
4639032801
4639037867
4639042872
4639049952
4639055018
4639065760
4639072169
4639079554
4639084315
4639090723
4639097376
4639104517
4639112391
4639120203
4639126673
4639134425
4639140894
4639149012
4639156702
4639162867
4639170740
4639178614
4639183863
4639191675
4639199244
4639206202
4639212610
4639220057
4639228113
4639235254
4639243128
4639250574
4639257593
4639264002
4639271936
4639278101
4639284388
4639292932
4639300501
4639306299
4639315393
4639321680
4639329676
4639335657
4639342005
4639350122
4639358667
4639364588
4639372461
4639379236
4639385095
4639396387
4639403955
4639410364
4639416223
4639424524
4639432397
4639438196
4639444726
4639450952
4639457910
4639464990
4639472619
4639479700
4639485925
4639494409
4639501367
4639509912
4639516626
4639524988
4639531457
4639539026
4639544214
4639552636
4639559472
4639567163
4639574487
4639583459
4639592736
4639599023
4639608605
4639618981
4639626733
4639633935
4639640710
4639647302
4639653649
4639662621
4639669640
4639676293
4639682763
4639691613
4639698998
4639705102
4639713342
4639721825
4639729150
4639736596
4639745446
4639753503
4639761437
4639768883
4639777306
4639787072
4639794091
4639799706
4639809899
4639818200
4639825707
4639834557
4639841881
4639849328
4639856957
4639863610
4639869591
4639877159
4639885277
4639892784
4639899376
4639907616
4639915062
4639920738
4639928490
4639936974
4639944481
4639952599
4639960961
4639967064
4639975853
4639984093
4639991417
4639999413
4640007286
4640013817
4640020653
4640027245
4640036949
4640044395
4640050621
4640058800
4640065330
4640073753
4640080040
4640088829
4640096031
4640104271
4640110862
4640119529
4640124901
4640132896
4640141380
4640148277
4640156334
4640163353
4640171959
4640179527
4640184776
4640193443
4640202232
4640209495
4640217185
4640223289
4640230674
4640238853
4640245872
4640251792
4640261192
4640268211
4640276695
4640284385
4640291526
4640299400
4640307578
4640317100
4640323814
4640333091
4640339194
4640347556
4640353843
4640362876
4640370505
4640379722
4640385398
4640394553
4640401999
4640409873
4640418845
4640425864
4640434531
4640442344
4640449363
4640456076
4640463706
4640472800
4640481040
4640488974
4640496543
4640504416
4640512900
4640518271
4640526023
4640535849
4640543845
4640551474
4640558249
4640567282
4640574973
4640582968
4640589987
4640598532
4640607260
4640614157
4640623190
4640630698
4640640402
4640648825
4640656637
4640664084
4640672446
4640679648
4640689657
4640697836
4640705588
4640713034
4640720785
4640729025
4640739096
4640745626
4640756308
4640764791
4640772787
4640782431
4640790792
4640799093
4640807272
4640816427
4640823385
4640831381
4640840048
4640850546
4640859091
4640867574
4640876730
4640882955
4640891561
4640899007
4640907369
4640915731
4640924825
4640931234
4640941244
4640948629
4640955587
4640962850
4640969015
4640978231
4640985860
4640991414
4640997518
4641006490
4641015096
4641022725
4641029622
4641037679
4641044149
4641050374
4641059529
4641067769
4641075582
4641083211
4641091329
4641098043
4641105489
4641112508
4641119893
4641127400
4641135152
4641143147
4641150533
4641158223
4641164632
4641173116
4641184041
4641192281
4641200826
4641206624
4641215718
4641223225
4641232991
4641242085
4641247639
4641256734
4641263081
4641271992
4641279133
4641287495
4641293538
4641301045
4641309041
4641316121
4641322896
4641328022
4641336018
4641344746
4641351521
4641358235
4641365071
4641372883
4641379963
4641386250
4641395588
4641404804
4641410176
4641419514
4641425556
4641431416
4641434773
4641443562
4641450398
4641456684
4641461567
4641471211
4641477619
4641487446
4641494709
4641502216
4641510029
4641518269
4641527058
4641534626
4641543049
4641551350
4641560810
4641569050
4641576679
4641585102
4641591877
4641597980
4641605549
4641610859
4641617023
4641622272
4641627399
4641633014
4641640400
4641646625
4641652973
4641658161
4641664814
4641671588
4641677509
4641682025
4641688800
4641697040
4641704425
4641710956
4641716876
4641725421
4641729755
4641736591
4641742877
4641748615
4641755512
4641761127
4641767841
4641774860
4641781085
4641786151
4641793048
4641799030
4641805011
4641809711
4641816791
4641822406
4641827777
4641834369
4641840411
4641845477
4641852252
4641857989
4641863360
4641869525
4641876849
4641881976
4641886615
4641894061
4641898883
4641905047
4641909747
4641915728
4641922015
4641927203
4641933123
4641938495
4641943438
4641949054
4641958514
4641963885
4641972430
4641978533
4641984881
4641990985
4641997271
4642005511
4642011859
4642018023
4642024005
4642030474
4642036639
4642041583
4642049029
4642056658
4642063860
4642070513
4642075884
4642083453
4642090167
4642095660
4642101641
4642107989
4642113055
4642119036
4642125079
4642130083
4642135821
4642141558
4642147600
4642153460
4642159136
4642164324
4642169878
4642175921
4642180926
4642187456
4642191790
4642198443
4642202654
4642209063
4642214495
4642222490
4642228716
4642234514
4642240496
4642246233
4642253435
4642258806
4642263628
4642269670
4642275286
4642281206
4642287371
4642293230
4642300249
4642305620
4642310686
4642317705
4642324114
4642329241
4642335710
4642340776
4642347551
4642352556
4642358354
4642364763
4642370744
4642376299
4642381426
4642388200
4642394853
4642399492
4642404375
4642409441
4642415971
4642422563
4642427568
4642433427
4642439104
4642444170
4642449846
4642455644
4642461687
4642469011
4642473161
4642480180
4642485795
4642492387
4642496171
4642502275
4642507280
4642513933
4642520463
4642527238
4642533159
4642539567
4642546220
4642556352
4642561418
4642568437
4642575212
4642581376
4642586930
4642591569
4642599504
4642607865
4642613969
4642622148
4642627824
4642633256
4642639787
4642645280
4642651872
4642656510
4642662187
4642666947
4642671647
4642676286
4642683793
4642690690
4642695512
4642701859
4642706376
4642711442
4642717240
4642722550
4642728165
4642734696
4642739030
4642744767
4642749955
4642755997
4642760758
4642767533
4642772721
4642777115
4642784379
4642791947
4642797257
4642801835
4642808304
4642813920
4642820145
4642824051
4642829728
4642834427
4642840348
4642844986
4642851456
4642858170
4642862809
4642868363
4642875382
4642881058
4642886246
4642891556
4642897904
4642903336
4642909683
4642915238
4642920975
4642927384
4642932511
4642938553
4642943924
4642949417
4642955032
4642961197
4642967056
4642972855
4642978714
4642984390
4642989090
4642995193
4643000381
4643005814
4643012588
4643017715
4643024002
4643030044
4643035232
4643040970
4643046890
4643052078
4643057388
4643063003
4643069412
4643076675
4643083877
4643089615
4643096512
4643101822
4643110305
4643116104
4643123428
4643129593
4643134597
4643145095
4643153640
4643159133
4643165786
4643170425
4643175430
4643181228
4643187210
4643193252
4643198806
4643204116
4643209121
4643213211
4643219314
4643225418
4643232559
4643238174
4643243545
4643249465
4643255569
4643260513
4643266982
4643272781
4643280105
4643285903
4643291579
4643296767
4643302749
4643307510
4643312881
4643319778
4643324294
4643330031
4643335708
4643341018
4643346084
4643350600
4643356399
4643362075
4643367080
4643372268
4643377334
4643381972
4643392409
4643397414
4643403884
4643410231
4643415114
4643422561
4643427932
4643434462
4643440322
4643447341
4643452651
4643458388
4643465407
4643470595
4643477614
4643482863
4643489028
4643493972
4643499953
4643506240
4643512709
4643518447
4643524428
4643530837
4643535780
4643542128
4643547560
4643553664
4643560561
4643566420
4643571791
4643577895
4643584486
4643590102
4643595106
4643600722
4643607558
4643613112
4643620741
4643628798
4643633070
4643639540
4643645338
4643650526
4643656691
4643662550
4643669508
4643677748
4643682631
4643689833
4643694410
4643701918
4643707411
4643713759
4643720533
4643726393
4643732252
4643736525
4643743605
4643748304
4643755445
4643760267
4643767347
4643773329
4643778639
4643781446
4643789747
4643796522
4643801771
4643808058
4643813001
4643818311
4643824659
4643829969
4643836500
4643841383
4643848707
4643856519
4643862623
4643867994
4643874281
4643879530
4643885145
4643891798
4643897169
4643903822
4643909132
4643915235
4643920179
4643926221
4643932508
4643936964
4643945020
4643949232
4643956067
4643962049
4643967420
4643973585
4643979444
4643985486
4643992017
4643997815
4644003064
4644008802
4644015455
4644021009
4644028821
4644034253
4644038465
4644045118
4644049207
4644057752
4644062696
4644069959
4644075757
4644082227
4644087537
4644093701
4644098462
4644104749
4644110547
4644117200
4644122144
4644128247
4644133496
4644139050
4644145093
4644149243
4644157605
4644164990
4644171460
4644177869
4644184033
4644191479
4644195996
4644202527
4644207165
4644216138
4644221936
4644227673
4644234204
4644239819
4644246716
4644252209
4644258496
4644265454
4644269543
4644276135
4644283581
4644287915
4644294446
4644298718
4644306469
4644310986
4644317639
4644323559
4644329297
4644334851
4644341381
4644346325
4644353344
4644358227
4644364209
4644370739
4644376232
4644381481
4644387890
4644394787
4644399609
4644406262
4644410900
4644418102
4644422680
4644429882
4644435558
4644441723
4644447216
4644453625
4644458325
4644464367
4644471020
4644475475
4644482616
4644486889
4644494335
4644500133
4644505260
4644511425
4644516796
4644525036
4644529735
4644535412
4644541576
4644546337
4644552318
4644557445
4644565746
4644571544
4644577953
4644583263
4644588695
4644593944
4644600048
4644607067
4644613414
4644618175
4644623241
4644629345
4644636119
4644640087
4644647045
4644653392
4644658458
4644664867
4644670970
4644675792
4644681835
4644688487
4644694591
4644701244
4644706554
4644711254
4644717906
4644724193
4644728404
4644735851
4644745982
4644751598
4644757762
4644762584
4644768565
4644772899
4644779796
4644785167
4644792491
4644800059
4644804759
4644811534
4644817515
4644822581
4644828685
4644835521
4644839793
4644846507
4644851512
4644857799
4644862803
4644871043
4644876475
4644882152
4644889476
4644895579
4644900828
4644905589
4644912181
4644918162
4644923228
4644929942
4644936168
4644941050
4644947642
4644953074
4644959666
4644965831
4644969920
4644977549
4644983714
4644989329
4644995555
4645002635
4645009043
4645015452
4645019358
4645025462
4645030467
4645036570
4645043467
4645048960
4645055430
4645060984
4645066660
4645071238
4645079234
4645083811
4645090525
4645095652
4645102244
4645108958
4645115305
4645119944
4645126108
4645130869
4645136973
4645144114
4645149973
4645154978
4645159678
4645166208
4645171091
4645177744
4645184153
4645189707
4645194895
4645200205
4645206492
4645212290
4645218821
4645224924
4645229258
4645236155
4645241343
4645247629
4645252329
4645259104
4645265879
4645272898
4645278574
4645284860
4645290537
4645296579
4645301584
4645308542
4645313669
4645320261
4645325998
4645333811
4645339914
4645344064
4645351389
4645359689
4645366342
4645371591
4645378427
4645384958
4645389169
4645395700
4645404123
4645409616
4645416452
4645420785
4645428476
4645435068
4645440927
4645447458
4645453622
4645459726
4645465829
4645471383
4645476816
4645483651
4645491342
4645497018
4645501718
4645508249
4645514596
4645519479
4645525277
4645531869
4645536874
4645542916
4645549325
4645555490
4645561227
4645567453
4645572640
4645578561
4645585153
4645591073
4645597177
4645601998
4645608163
4645612924
4645619576
4645626534
4645632028
4645637765
4645644418
4645650216
4645656503
4645661691
4645667611
4645672799
4645678719
4645685555
4645691598
4645696725
4645702706
4645708871
4645714791
4645720284
4645726937
4645732796
4645738228
4645743844
4645749276
4645755807
4645761727
4645767403
4645772652
4645779061
4645785103
4645790291
4645797066
4645803048
4645809578
4645815255
4645820870
4645826851
4645833931
4645839486
4645846382
4645852120
4645857613
4645861885
4645868355
4645875069
4645882698
4645891304
4645896004
4645903389
4645911263
4645917122
4645922676
4645928780
4645935310
4645940926
4645945747
4645951790
4645958260
4645963387
4645969551
4645976143
4645980293
4645986702
4645992012
4645998787
4646005012
4646010689
4646016853
4646022346
4646027840
4646034431
4646038582
4646045051
4646050300
4646056587
4646063057
4646067329
4646073433
4646078926
4646086006
4646091133
4646098213
4646103584
4646108711
4646114143
4646120918
4646127205
4646131965
4646137886
4646144050
4646149238
4646155403
4646160408
4646167488
4646173103
4646179328
4646184638
4646191902
4646197578
4646203376
4646209785
4646214301
4646221382
4646227119
4646233772
4646238654
4646246406
4646252692
4646259711
4646266731
4646273078
4646279731
4646286811
4646291877
4646298591
4646304389
4646309882
4646317084
4646323981
4646330695
4646336494
4646341437
4646347236
4646353522
4646358405
4646364692
4646372443
4646377997
4646385444
4646391730
4646398383
4646403510
4646409858
4646416510
4646420966
4646428412
4646435065
4646441169
4646446540
4646455634
4646464606
4646470526
4646476691
4646481757
4646487860
4646494330
4646499213
4646506842
4646513617
4646518378
4646524725
4646530951
4646535651
4646543768
4646548834
4646554450
4646561102
4646566351
4646572638
4646579840
4646586371
4646592841
4646598395
4646604620
4646611639
4646615729
4646622320
4646629400
4646636236
4646641241
4646648138
4646654364
4646660406
4646666510
4646672735
4646677984
4646683905
4646690558
4646696722
4646702765
4646708868
4646715277
4646722113
4646726629
4646733404
4646739691
4646746221
4646751715
4646757757
4646763616
4646771185
4646777349
4646782720
4646790289
4646795782
4646802557
4646808294
4646814459
4646819219
4646826360
4646831732
4646839117
4646844976
4646851568
4646857671
4646862493
4646868841
4646876348
4646883184
4646888372
4646894109
4646899114
4646904912
4646911504
4646920049
4646926641
4646934637
4646940008
4646946782
4646951970
4646961004
4646971013
4646977605
4646984868
4646990545
4646997258
4647003301
4647008184
4647014165
4647020452
4647025884
4647032048
4647036138
4647044255
4647049993
4647054448
4647061711
4647067144
4647072087
4647078374
4647084905
4647089910
4647096196
4647102483
4647108769
4647113957
4647119939
4647126958
4647131902
4647138493
4647143865
4647150212
4647154973
4647161076
4647168950
4647175603
4647182072
4647186833
4647194585
4647200139
4647204350
4647212407
4647217412
4647224309
4647230107
4647236210
4647241093
4647247380
4647254277
4647261052
4647267705
4647273442
4647279789
4647285649
4647291264
4647298100
4647304264
4647310124
4647317021
4647323368
4647329289
4647333622
4647339909
4647347050
4647351994
4647358769
4647364140
4647370243
4647376286
4647383122
4647389225
4647396244
4647400456
4647408207
4647413883
4647419987
4647427250
4647435429
4647443729
4647450199
4647458134
4647464237
4647469852
4647477299
4647483341
4647490116
4647495060
4647501285
4647509525
4647515690
4647520939
4647527408
4647533024
4647539310
4647543888
4647551029
4647556156
4647561954
4647568363
4647572880
4647578739
4647585575
4647591251
4647595157
4647602481
4647608036
4647613102
4647617313
4647624027
4647629764
4647636356
4647640323
4647646183
4647651920
4647658451
4647664005
4647669498
4647676273
4647681095
4647687442
4647692081
4647698001
4647704715
4647711368
4647716373
4647721134
4647727664
4647732913
4647738651
4647743289
4647749942
4647756412
4647761356
4647767520
4647772586
4647778629
4647784854
4647789798
4647795779
4647801883
4647807132
4647813541
4647818423
4647824100
4647829837
4647840091
4647845279
4647850528
4647857058
4647861880
4647868655
4647875735
4647881167
4647886233
4647890567
4647898135
4647902774
4647909854
4647915469
4647921572
4647926394
4647932009
4647939273
4647945376
4647953799
4647962466
4647968325
4647974612
4647979617
4647986148
4647994814
4648001101
4648009768
4648017153
4648024294
4648030947
4648035220
4648041201
4648046877
4648052798
4648058413
4648064455
4648070498
4648076418
4648081057
4648087160
4648091799
4648098940
4648104189
4648109133
4648116091
4648121401
4648126284
4648132509
4648138064
4648144472
4648148684
4648154482
4648161806
4648166201
4648172304
4648177126
4648183535
4648189150
4648195437
4648199892
4648205935
4648211794
4648218081
4648223085
4648229067
4648234621
4648242250
4648248659
4648253969
4648259523
4648264528
4648270937
4648277101
4648283022
4648287538
4648294740
4648299989
4648304994
4648309694
4648316835
4648321901
4648327699
4648332460
4648339113
4648345400
4648352296
4648358766
4648363771
4648369814
4648374391
4648380067
4648386964
4648393007
4648398378
4648403078
4648409914
4648415101
4648420839
4648424989
4648431642
4648438905
4648446168
4648452211
4648459474
4648465516
4648473024
4648477784
4648484620
4648489869
4648496888
4648504091
4648510194
4648515931
4648523622
4648528932
4648536073
4648542604
4648548524
4648555543
4648560426
4648567201
4648572022
4648578919
4648585267
4648589295
4648595338
4648602784
4648607057
4648613709
4648620423
4648625855
4648632020
4648638062
4648643311
4648649598
4648656434
4648662476
4648668824
4648675599
4648681947
4648686219
4648697205
4648703309
4648709656
4648715760
4648720521
4648726929
4648731690
4648738160
4648744507
4648750306
4648756836
4648762024
4648768677
4648773743
4648779847
4648785218
4648791504
4648798035
4648803345
4648808899
4648815552
4648820496
4648825623
4648831971
4648839234
4648845276
4648850769
4648856201
4648862793
4648867493
4648873718
4648880676
4648886963
4648892456
4648897705
4648903748
4648910339
4648918701
4648924378
4648930115
4648936096
4648941040
4648947754
4648953735
4648960266
4648966064
4648972229
4648976868
4648984558
4648991211
4649000793
4649007324
4649015442
4649020569
4649025390
4649031921
4649037475
4649045227
4649052917
4649059204
4649064880
4649069580
4649077270
4649083862
4649090088
4649095947
4649101196
4649106933
4649112182
4649117797
4649124389
4649129455
4649135559
4649141235
4649147399
4649152465
4649158996
4649165710
4649170165
4649176635
4649182495
4649189025
4649195007
4649200683
4649205932
4649212768
4649217346
4649226012
4649230956
4649237060
4649243346
4649249267
4649255798
4649259887
4649266418
4649272399
4649279113
4649285094
4649289977
4649295775
4649301696
4649306518
4649312926
4649318236
4649324462
4649330382
4649336303
4649342772
4649348144
4649355163
4649359984
4649366881
4649373595
4649378173
4649384093
4649390746
4649395507
4649405272
4649410704
4649416259
4649422911
4649427428
4649434325
4649440062
4649446654
4649453612
4649457884
4649464049
4649469542
4649475707
4649482359
4649488219
4649494200
4649499510
4649505003
4649512145
4649517821
4649522887
4649529723
4649536253
4649542906
4649550230
4649556090
4649562926
4649569823
4649574400
4649580565
4649587096
4649592528
4649598204
4649607603
4649612547
4649619566
4649627196
4649633665
4649639708
4649645811
4649652403
4649657835
4649663756
4649669005
4649674498
4649681456
4649686888
4649693357
4649699034
4649703733
4649710142
4649716551
4649721556
4649728025
4649733702
4649739317
4649745664
4649752439
4649757871
4649763487
4649770017
4649774534
4649781553
4649787840
4649792722
4649799131
4649804197
4649811094
4649816953
4649823423
4649828001
4649834837
4649839353
4649846189
4649852171
4649858579
4649863584
4649870115
4649874326
4649881223
4649887510
4649893674
4649897764
4649903867
4649909177
4649915525
4649922178
4649926755
4649934080
4649940000
4649945493
4649950437
4649955503
4649959958
4649966672
4649972165
4649978757
4649983274
4649989011
4649994809
4649999021
4650005857
4650010556
4650016782
4650024289
4650030210
4650035276
4650041501
4650046201
4650052671
4650057675
4650064389
4650069943
4650074216
4650082150
4650086972
4650092832
4650098752
4650106625
4650112058
4650120480
4650125668
4650130063
4650136288
4650141660
4650148984
4650156552
4650162656
4650170468
4650177853
4650184445
4650190243
4650196225
4650200558
4650206845
4650213193
4650218991
4650224728
4650231198
4650235898
4650241940
4650247006
4650252743
4650257870
4650264157
4650270199
4650274411
4650280575
4650287411
4650294552
4650299496
4650305050
4650311215
4650315365
4650322506
4650327755
4650333798
4650339047
4650345700
4650350155
4650357235
4650362423
4650368221
4650373470
4650378720
4650382687
4650388729
4650394283
4650400204
4650405880
4650412472
4650418331
4650423336
4650429867
4650433895
4650440182
4650445248
4650451778
4650458309
4650463985
4650467647
4650473324
4650479427
4650484127
4650491146
4650496761
4650502315
4650507931
4650513790
4650519161
4650525692
4650530391
4650536251
4650541683
4650548153
4650552425
4650559200
4650566402
4650571590
4650577449
4650584102
4650588985
4650593563
4650600277
4650606441
4650612178
4650618221
4650623958
4650630489
4650637813
4650643062
4650651241
4650655574
4650661922
4650666377
4650674800
4650680965
4650686580
4650693965
4650702266
4650710140
4650716365
4650721370
4650727596
4650734126
4650740596
4650746150
4650751949
4650757747
4650764094
4650769893
4650776546
4650782527
4650789607
4650794185
4650800410
4650805354
4650810054
4650815913
4650823054
4650828792
4650834224
4650839900
4650844417
4650851497
4650857722
4650863215
4650868831
4650875056
4650880183
4650885005
4650890742
4650899226
4650906672
4650911433
4650917781
4650923274
4650928401
4650933222
4650938838
4650945796
4650951106
4650955805
4650961787
4650969172
4650973994
4650980830
4650987177
4650993647
4650998347
4651003291
4651009150
4651015498
4651019892
4651026911
4651032710
4651037043
4651042902
4651049067
4651054377
4651059870
4651064997
4651070612
4651075983
4651082453
4651087580
4651093745
4651099604
4651103144
4651109003
4651114802
4651120478
4651126825
4651133234
4651140497
4651146174
4651154657
4651163263
4651168085
4651174372
4651182001
4651188166
4651193842
4651198236
4651205744
4651213312
4651221186
4651227838
4651235224
4651242609
4651250910
4651257685
4651263727
4651268244
4651273126
4651278986
4651283869
4651290216
4651295404
4651301630
4651307367
4651312555
4651317621
4651321710
4651328546
4651334222
4651339655
4651342340
4651351495
4651357599
4651362726
4651367914
4651373651
4651378656
4651385004
4651391412
4651396051
4651401178
4651406915
4651413080
4651420160
4651426080
4651431085
4651437677
4651443353
4651448846
4651455133
4651461236
4651465326
4651471246
4651475641
4651482904
4651489373
4651493951
4651501580
4651506890
4651513421
4651517083
4651523187
4651528009
4651534112
4651538262
4651545159
4651551080
4651557305
4651563226
4651568109
4651574029
4651580010
4651585748
4651591180
4651598504
4651603692
4651609368
4651617181
4651622857
4651628533
4651636102
4651643060
4651647942
4651653741
4651659295
4651666863
4651672112
4651679070
4651684746
4651692620
4651699761
4651705071
4651711968
4651719781
4651724724
4651733391
4651745110
4651752251
4651759636
4651767144
4651775872
4651783867
4651789788
4651795037
4651801140
4651806694
4651812371
4651817620
4651823357
4651829399
4651834770
4651840752
4651845452
4651852349
4651859001
4651863701
4651871147
4651875237
4651881584
4651885735
4651894280
4651899345
4651906487
4651912224
4651916924
4651922844
4651928886
4651933952
4651940300
4651944878
4651950981
4651957207
4651963371
4651969108
4651975639
4651980827
4651986320
4651992790
4651997185
4652004082
4652010002
4652016350
4652021415
4652027580
4652033806
4652037895
4652044731
4652048820
4652056022
4652060539
4652068596
4652073722
4652078971
4652085441
4652090263
4652097404
4652102470
4652108390
4652114738
4652120780
4652126152
4652131340
4652136894
4652143424
4652148307
4652155448
4652160026
4652165214
4652171501
4652178214
4652183158
4652189689
4652195548
4652201713
4652208610
4652214286
4652219230
4652225028
4652231254
4652237235
4652243766
4652253226
4652260429
4652266776
4652272575
4652277335
4652285148
4652290702
4652296683
4652303214
4652313224
4652318046
4652324820
4652332328
4652337577
4652343680
4652349540
4652355765
4652360587
4652366568
4652371207
4652376578
4652383048
4652389212
4652393607
4652400443
4652404410
4652411551
4652415885
4652420951
4652426200
4652432913
4652438651
4652444205
4652450247
4652455374
4652460990
4652465689
4652470511
4652476615
4652481619
4652488516
4652493155
4652500601
4652505484
4652510123
4652517142
4652523184
4652528494
4652533072
4652540152
4652546011
4652552664
4652558035
4652563162
4652568228
4652573904
4652578116
4652585074
4652591116
4652597098
4652602225
4652608572
4652615652
4652621145
4652628531
4652635183
4652640860
4652645804
4652650564
4652656607
4652662344
4652667105
4652672903
4652679129
4652686758
4652692068
4652699881
4652704580
4652711355
4652718557
4652724417
4652729727
4652735891
4652741812
4652747610
4652754263
4652760427
4652766348
4652772512
4652777761
4652784902
4652791555
4652797109
4652805166
4652811208
4652818349
4652823782
4652830434
4652837637
4652846975
4652853323
4652860219
4652865224
4652871267
4652876699
4652884511
4652889760
4652895986
4652901052
4652906423
4652913015
4652918508
4652924978
4652931264
4652939687
4652944875
4652949819
4652956655
4652961538
4652968435
4652975332
4652980825
4652986074
4652990346
4652996755
4653002797
4653009389
4653014699
4653020131
4653025258
4653030812
4653035939
4653043202
4653047902
4653053700
4653060170
4653064382
4653070119
4653075856
4653081471
4653088368
4653092702
4653098988
4653104543
4653110463
4653116689
4653122792
4653128346
4653133656
4653138722
4653145497
4653150136
4653155873
4653161793
4653168141
4653173939
4653179249
4653184498
4653190785
4653196950
4653201771
4653207448
4653215077
4653220143
4653224171
4653231617
4653235585
4653243214
4653248890
4653255299
4653260487
4653266407
4653271779
4653277333
4653283863
4653289357
4653297352
4653306324
4653312367
4653318836
4653324085
4653330372
4653336537
4653341786
4653350453
4653356678
4653363453
4653369801
4653378651
4653383534
4653389454
4653393971
4653399952
4653406605
4653411915
4653418324
4653423145
4653429249
4653434559
4653440723
4653446522
4653450733
4653458546
4653463856
4653470203
4653476246
4653481068
4653486561
4653492542
4653498035
4653504444
4653510914
4653516224
4653521229
4653527759
4653532764
4653539600
4653545093
4653550464
4653556873
4653561817
4653567127
4653573475
4653580249
4653586414
4653591419
4653597339
4653603443
4653608203
4653614063
4653620288
4653626758
4653631763
4653636829
4653643848
4653648731
4653654468
4653658985
4653665637
4653671680
4653676624
4653683765
4653686511
4653694263
4653700305
4653705188
4653711231
4653717883
4653723071
4653729053
4653735278
4653739551
4653746143
4653751269
4653757068
4653763599
4653769885
4653774829
4653779895
4653786609
4653791858
4653797717
4653803332
4653811084
4653817065
4653822802
4653830371
4653835559
4653841357
4653847094
4653853625
4653860888
4653867114
4653874926
4653881884
4653888232
4653894641
4653900683
4653905993
4653913256
4653919665
4653924365
4653929492
4653935473
4653942126
4653946276
4653953967
4653959643
4653965807
4653971240
4653976428
4653981738
4653987597
4653992297
4653999194
4654005907
4654010668
4654016772
4654021105
4654028185
4654032763
4654038988
4654045580
4654051684
4654056628
4654061571
4654068651
4654073473
4654079882
4654084337
4654090441
4654096667
4654102770
4654107897
4654114611
4654120470
4654128161
4654133837
4654139574
4654144335
4654150194
4654158556
4654164354
4654170763
4654177477
4654181505
4654188219
4654193102
4654199144
4654204821
4654210497
4654215685
4654222338
4654226549
4654232408
4654238451
4654244432
4654249498
4654255602
4654260912
4654267076
4654272936
4654278734
4654283189
4654290697
4654296312
4654301439
4654306078
4654312364
4654320116
4654326280
4654333299
4654339342
4654346849
4654356737
4654365159
4654372850
4654380479
4654391954
4654400682
4654412156
4654426133
4654436815
4654443956
4654451646
4654462327
4654469529
4654477098
4654485398
4654494615
4654504197
4654511643
4654518785
4654526048
4654535386
4654543931
4654550279
4654558091
4654566148
4654572617
4654580430
4654588609
4654596299
4654604417
4654611802
4654620347
4654629990
4654638413
4654647507
4654656113
4654665269
4654674119
4654684373
4654692673
4654702012
4654710923
4654719346
4654727219
4654737046
4654744309
4654753769
4654762986
4654771592
4654781357
4654789292
4654798813
4654807846
4654815048
4654824936
4654835373
4654842209
4654852341
4654859482
4654869553
4654877487
4654887009
4654896835
4654905014
4654913071
4654923447
4654930466
4654941208
4654947311
4654958176
4654965317
4654975082
4654982712
4654991989
4655000900
4655010544
4655018417
4655027878
4655037704
4655046127
4655055465
4655064010
4655072250
4655082565
4655089645
4655099044
4655106613
4655114852
4655124252
4655130111
4655143234
4655151779
4655161910
4655172653
4655179977
4655188888
4655196456
4655205856
4655214706
4655223251
4655232650
4655240279
4655248885
4655257796
4655266402
4655274581
4655283004
4655291671
4655300033
4655308822
4655317183
4655326095
4655334151
4655343551
4655351851
4655361800
4655368819
4655378402
4655385360
4655395308
4655404891
4655413069
4655421431
4655427596
4655439009
4655445845
4655455855
4655464888
4655474043
4655480696
4655489974
4655499190
4655509688
4655517500
4655525130
4655535078
4655542403
4655552168
4655560957
4655570235
4655579146
4655587813
4655595564
4655603865
4655613630
4655622664
4655631819
4655639204
4655648603
4655659163
4655667341
4655674787
4655682966
4655691267
4655696150
4655703779
4655710981
4655716108
4655721662
4655727644
4655734236
4655739851
4655746931
4655752607
4655757185
4655763715
4655768659
4655775434
4655781599
4655788313
4655794477
4655801618
4655809309
4655814619
4655820234
4655825971
4655832075
4655841108
4655846906
4655853498
4655859663
4655865888
4655873823
4655878827
4655884809
4655891767
4655897504
4655902692
4655909040
4655916303
4655921125
4655927228
4655932355
4655938459
4655944501
4655950910
4655956708
4655963178
4655968000
4655974286
4655980512
4655986188
4655990277
4655997174
4656003705
4656009015
4656014813
4656021283
4656026837
4656033246
4656038312
4656045697
4656051557
4656056928
4656062360
4656068158
4656074872
4656080182
4656087140
4656091534
4656096539
4656103131
4656107587
4656112897
4656118817
4656123212
4656130536
4656136883
4656141400
4656147320
4656153058
4656158246
4656162457
4656170819
4656177228
4656183819
4656189190
4656195538
4656200360
4656207074
4656213727
4656217755
4656223736
4656227948
4656235089
4656240582
4656247662
4656252606
4656257672
4656262555
4656269024
4656273968
4656280560
4656286175
4656292523
4656298260
4656304058
4656309063
4656313641
4656320904
4656326824
4656334515
4656339214
4656346844
4656353314
4656357769
4656364910
4656370770
4656377056
4656382427
4656393902
4656401226
4656407269
4656413921
4656419048
4656424541
4656431744
4656437420
4656443401
4656449077
4656455181
4656461346
4656467571
4656473308
4656482097
4656488445
4656494304
4656498394
4656504314
4656508465
4656516338
4656521892
4656526775
4656531414
4656536480
4656542705
4656548259
4656553936
4656559978
4656564434
4656570171
4656574382
4656580364
4656586406
4656590312
4656596721
4656602703
4656610881
4656617534
4656624126
4656629314
4656635356
4656641765
4656646343
4656653179
4656657268
4656665447
4656670696
4656676433
4656682475
4656686687
4656694072
4656699382
4656705974
4656711467
4656717021
4656721416
4656728557
4656735271
4656741191
4656746257
4656752421
4656758220
4656762797
4656771586
4656776591
4656782756
4656787822
4656793620
4656799540
4656805461
4656812907
4656818339
4656824016
4656830668
4656835673
4656845500
4656851420
4656859782
4656866130
4656872721
4656878886
4656884135
4656889506
4656896037
4656902751
4656910624
4656918986
4656928263
4656937419
4656943522
4656950114
4656955973
4656962077
4656966837
4656972819
4656977213
4656983500
4656990458
4656994608
4657002116
4657006693
4657013529
4657018717
4657025980
4657031473
4657036234
4657042338
4657049235
4657053812
4657058634
4657063456
4657068644
4657072489
4657076884
4657082071
4657086283
4657090555
4657094523
4657100443
4657105082
4657109476
4657113077
4657116678
4657120401
4657124552
4657128397
4657132975
4657137980
4657143900
4657148355
4657152872
4657157267
4657161966
4657166788
4657171183
4657175760
4657180277
4657184549
4657188761
4657193094
4657197183
4657202310
4657206156
4657211161
4657215311
4657220377
4657223856
4657229593
4657235147
4657239542
4657244364
4657249552
4657252847
4657256326
4657262369
4657266885
4657271219
4657275797
4657280191
4657284219
4657289468
4657294473
4657299722
4657305338
4657310159
4657314066
4657319253
4657324747
4657330057
4657334878
4657342447
4657346170
4657351541
4657356851
4657360818
4657366739
4657372476
4657378702
4657385599
4657390237
4657394815
4657400674
4657405740
4657410867
4657415811
4657420144
4657424234
4657428567
4657432046
4657435891
4657441140
4657445535
4657450784
4657455911
4657460305
4657463601
4657467874
4657471841
4657475747
4657480508
4657484964
4657489175
4657493630
4657497903
4657502908
4657507180
4657511636
4657516152
4657521279
4657525064
4657528909
4657534219
4657539041
4657542825
4657547402
4657552102
4657555215
4657560098
4657565408
4657569070
4657574746
4657578286
4657584695
4657589455
4657593789
4657598550
4657602700
4657607339
4657612099
4657616494
4657621316
4657626565
4657632058
4657634743
4657642678
4657648598
4657653542
4657656960
4657665139
4657670022
4657676003
4657684731
4657689065
4657695168
4657699868
4657707131
4657712014
4657719033
4657724709
4657730080
4657735878
4657741188
4657746071
4657751686
4657756508
4657763466
4657768776
4657774330
4657780556
4657785866
4657792092
4657798561
4657803139
4657811623
4657817055
4657825661
4657830849
4657836220
4657843788
4657850014
4657855812
4657861305
4657869484
4657875404
4657881630
4657886269
4657895912
4657900856
4657906044
4657912270
4657917213
4657923439
4657930397
4657934914
4657940956
4657946510
4657952553
4657956947
4657963173
4657969826
4657977333
4657981605
4657989174
4657994056
4658001075
4658003944
4658010353
4658015968
4658022987
4658028053
4658034095
4658039772
4658045143
4658051002
4658055885
4658063026
4658070289
4658076759
4658082069
4658088844
4658094764
4658100013
4658106910
4658112098
4658120033
4658124061
4658129920
4658133949
4658140113
4658144935
4658152564
4658157447
4658163001
4658167945
4658173682
4658179420
4658185950
4658191749
4658196510
4658203834
4658208778
4658214088
4658221778
4658226905
4658231971
4658240028
4658246009
4658251685
4658256690
4658264686
4658270423
4658276526
4658280250
4658288306
4658293189
4658300513
4658305396
4658310950
4658317176
4658322669
4658328894
4658334205
4658340369
4658344336
4658350318
4658355811
4658363501
4658370703
4658376197
4658382422
4658386878
4658392676
4658400244
4658405615
4658413794
4658419898
4658425879
4658431983
4658437537
4658443274
4658449988
4658456641
4658462256
4658470252
4658477698
4658482642
4658491003
4658496069
4658502600
4658507056
4658513342
4658521826
4658526770
4658533606
4658538611
4658543494
4658548926
4658554175
4658560522
4658566199
4658571325
4658576269
4658581274
4658588537
4658593176
4658598608
4658603979
4658608984
4658615881
4658622168
4658627234
4658632666
4658637121
4658644201
4658649450
4658655249
4658663610
4658669958
4658674475
4658679174
4658685522
4658690710
4658696325
4658703161
4658710119
4658716162
4658721350
4658726415
4658731848
4658736974
4658744360
4658747167
4658756872
4658763403
4658768041
4658774938
4658779394
4658784155
4658791906
4658796667
4658802160
4658810033
4658815710
4658820531
4658827856
4658833288
4658841222
4658846593
4658853979
4658859411
4658868932
4658884191
4658890722
4658896703
4658904760
4658909765
4658918126
4658925145
4658931005
4658937352
4658943029
4658947850
4658955358
4658960363
4658966466
4658970006
4658979344
4658984593
4658991124
4658997045
4659003392
4659009069
4659013524
4659022069
4659027440
4659035497
4659042088
4659050939
4659057286
4659062779
4659069615
4659075780
4659081090
4659089330
4659095250
4659104161
4659109227
4659115636
4659121800
4659129491
4659135594
4659142186
4659147496
4659154027
4659158970
4659165196
4659169468
4659178502
4659183140
4659189854
4659195836
4659201817
4659207554
4659213353
4659219395
4659226658
4659229832
4659237400
4659243382
4659249058
4659253819
4659261265
4659265477
4659270176
4659278294
4659282933
4659289158
4659294163
4659301609
4659306919
4659312229
4659316685
4659325291
4659330784
4659336582
4659342136
4659348057
4659353916
4659358494
4659363560
4659371494
4659376682
4659384983
4659389194
4659394138
4659400913
4659406040
4659413120
4659418064
4659424473
4659429661
4659434605
4659440891
4659446384
4659451023
4659456577
4659462803
4659469272
4659475132
4659480625
4659485569
4659491062
4659496616
4659502598
4659509067
4659515293
4659518222
4659526035
4659530857
4659538120
4659542148
4659548618
4659552890
4659559726
4659567905
4659572544
4659579624
4659584751
4659589267
4659594882
4659600620
4659608127
4659616489
4659624790
4659630100
4659641330
4659651523
4659657504
4659665683
4659672397
4659678683
4659685214
4659690402
4659696933
4659701877
4659707797
4659713351
4659718722
4659728488
4659733493
4659741672
4659748752
4659754001
4659760165
4659765658
4659770907
4659778598
4659784396
4659789218
4659794101
4659801486
4659806247
4659812106
4659817721
4659823459
4659829196
4659834994
4659837924
4659845614
4659850131
4659855807
4659862155
4659865939
4659872714
4659878695
4659883456
4659889010
4659895480
4659899691
4659906283
4659911166
4659918063
4659922762
4659929049
4659934298
4659939852
4659944186
4659950900
4659955294
4659962313
4659967501
4659972994
4659979037
4659984469
4659988863
4659995028
4659999972
4660006869
4660012606
4660020602
4660025179
4660031222
4660035799
4660041720
4660046602
4660053621
4660058321
4660065767
4660069430
4660077486
4660082613
4660090059
4660095247
4660102327
4660107821
4660114107
4660119234
4660124727
4660130587
4660135958
4660142733
4660145967
4660154940
4660161104
4660168489
4660172029
4660180025
4660186312
4660193209
4660197725
4660204134
4660209566
4660214449
4660222322
4660226778
4660232332
4660237032
4660243684
4660249178
4660256929
4660263216
4660269441
4660276277
4660282808
4660288179
4660295930
4660301485
4660309236
4660315095
4660320650
4660327058
4660333467
4660339509
4660345735
4660348787
4660357393
4660362214
4660370454
4660376436
4660381868
4660387117
4660392244
4660397249
4660404390
4660408723
4660416230
4660419160
4660426240
4660430696
4660438020
4660442353
4660447358
4660455171
4660461091
4660467317
4660473237
4660477510
4660483003
4660489167
4660493989
4660501801
4660506196
4660513032
4660518708
4660524873
4660529450
4660534333
4660541047
4660547028
4660551972
4660559052
4660562470
4660569733
4660574799
4660580293
4660585419
4660591157
4660598359
4660604645
4660610322
4660615632
4660619538
4660626496
4660632600
4660637910
4660644990
4660651398
4660655976
4660662812
4660669098
4660673798
4660680024
4660685578
4660691132
4660701508
4660706330
4660713959
4660718049
4660724762
4660729767
4660734772
4660744538
4660751801
4660756378
4660763642
4660768341
4660774140
4660779999
4660785065
4660793366
4660799408
4660805329
4660812164
4660818207
4660822540
4660829132
4660833832
4660842316
4660848053
4660853912
4660860016
4660865753
4660869049
4660876068
4660883575
4660890167
4660897491
4660903168
4660908600
4660913971
4660918426
4660925140
4660930328
4660935882
4660943329
4660951690
4660957123
4660962921
4660968048
4660973419
4660978058
4660984771
4660989654
4660996246
4661000091
4661005645
4661011566
4661016632
4661021453
4661028167
4661032013
4661038971
4661044586
4661050018
4661052825
4661060272
4661064727
4661072967
4661079009
4661084686
4661089508
4661094879
4661099334
4661105255
4661109588
4661115325
4661122466
4661127166
4661133758
4661140594
4661146636
4661152007
4661156829
4661163909
4661171844
4661176055
4661182342
4661187164
4661194183
4661198333
4661205413
4661211028
4661217925
4661223296
4661228667
4661234344
4661239654
4661244658
4661250762
4661256560
4661262420
4661268401
4661274138
4661279571
4661285003
4661289458
4661295501
4661299895
4661307586
4661312407
4661319548
4661324492
4661331389
4661335784
4661341155
4661347502
4661352446
4661359099
4661365386
4661371062
4661375090
4661382048
4661387358
4661392363
4661398467
4661404448
4661410430
4661415251
4661421233
4661426848
4661432463
4661439116
4661444853
4661451262
4661457488
4661465117
4661470793
4661476286
4661482146
4661488493
4661493132
4661501677
4661506316
4661512663
4661517851
4661523772
4661530058
4661535979
4661542265
4661550993
4661559355
4661563872
4661570158
4661574980
4661579802
4661586149
4661591826
4661598295
4661604704
4661610075
4661615995
4661621183
4661627165
4661632170
4661638212
4661646574
4661652494
4661657804
4661662138
4661668486
4661674284
4661679960
4661686674
4661693998
4661697965
4661704801
4661710478
4661716154
4661720976
4661726408
4661732084
4661738310
4661744108
4661748319
4661752714
4661759794
4661764433
4661770780
4661775175
4661782011
4661786588
4661793729
4661798002
4661804227
4661809049
4661815275
4661820157
4661826322
4661834012
4661839506
4661845792
4661850919
4661856840
4661863065
4661867582
4661873929
4661880338
4661886808
4661891629
4661896756
4661903165
4661907682
4661913907
4661918363
4661926297
4661934293
4661937650
4661945157
4661949796
4661955289
4661959256
4661968228
4661973111
4661982144
4661987821
4661993375
4661997891
4662003934
4662009732
4662017789
4662024136
4662029202
4662033780
4662040860
4662047086
4662052274
4662057828
4662067288
4662072720
4662079922
4662085416
4662090298
4662093289
4662100735
4662107327
4662116055
4662121121
4662127652
4662135586
4662141812
4662147366
4662154996
4662160611
4662166348
4662173123
4662178799
4662184842
4662189724
4662194424
4662201138
4662209439
4662214749
4662223111
4662229824
4662233853
4662240445
4662245144
4662251553
4662256741
4662265042
4662270413
4662277127
4662282070
4662289211
4662295498
4662300503
4662309292
4662313809
4662319851
4662325527
4662331387
4662337490
4662342861
4662347256
4662352627
4662360012
4662365200
4662371670
4662377102
4662382290
4662388576
4662394192
4662398952
4662406643
4662411526
4662418850
4662423733
4662429226
4662435329
4662441250
4662443935
4662451320
4662457912
4662463527
4662468288
4662473781
4662478603
4662484340
4662490566
4662498378
4662504726
4662510646
4662515407
4662522426
4662526699
4662531887
4662538723
4662544094
4662551418
4662556056
4662562892
4662568691
4662574062
4662578395
4662586330
4662591823
4662599330
4662605068
4662611354
4662616786
4662624172
4662629848
4662636440
4662641017
4662645595
4662652309
4662659450
4662664211
4662672877
4662677150
4662684840
4662690700
4662698878
4662703395
4662710292
4662715846
4662722865
4662727626
4662732997
4662740382
4662747035
4662754542
4662759608
4662766688
4662771571
4662777369
4662781642
4662787806
4662791713
4662798060
4662804408
4662809901
4662815028
4662820704
4662825648
4662831935
4662837489
4662843165
4662848353
4662854701
4662859889
4662865321
4662871180
4662876185
4662879054
4662888697
4662893885
4662899012
4662905360
4662910609
4662916468
4662921839
4662927577
4662934168
4662939906
4662946009
4662952601
4662956568
4662960902
4662967310
4662972071
4662979700
4662983973
4662990870
4662994959
4663002039
4663006495
4663011805
4663018763
4663022974
4663031458
4663037012
4663043421
4663047999
4663054346
4663059534
4663064478
4663069910
4663079676
4663087732
4663092676
4663098108
4663105555
4663110071
4663115442
4663118311
4663128748
4663133264
4663138636
4663141687
4663149317
4663155298
4663161402
4663166223
4663174585
4663178125
4663187341
4663191858
4663198816
4663204004
4663209497
4663214929
4663221887
4663228235
4663234827
4663240503
4663246545
4663251978
4663257043
4663263025
4663269678
4663276575
4663283044
4663291406
4663298669
4663305688
4663310693
4663315637
4663320459
4663329004
4663338586
4663345056
4663353174
4663360498
4663366784
4663372400
4663378442
4663384790
4663391137
4663396508
4663402734
4663405420
4663413842
4663419458
4663427819
4663432519
4663439050
4663445886
4663450158
4663456201
4663462915
4663465966
4663475549
4663480493
4663486169
4663490930
4663497155
4663502831
4663509362
4663514001
4663518945
4663527123
4663532555
4663537988
4663544152
4663549401
4663555871
4663559594
4663565148
4663570885
4663576928
4663582055
4663588158
4663593590
4663600548
4663606408
4663610985
4663615319
4663622887
4663627404
4663634667
4663638817
4663644372
4663649743
4663657433
4663662072
4663667992
4663673302
4663679711
4663684350
4663690697
4663697228
4663703087
4663707726
4663711998
4663719323
4663724694
4663732018
4663735863
4663742516
4663747582
4663753746
4663758873
4663765038
4663769432
4663775170
4663780968
4663787316
4663792748
4663798302
4663801720
4663809349
4663815697
4663821190
4663824425
4663832604
4663838280
4663844688
4663849266
4663854332
4663890770
4663896751
4663902122
4663906944
4663912681
4663918175
4663927208
4663931663
4663937767
4663942283
4663947410
4663951988
4663957176
4663962547
4663966636
4663971458
4663974754
4663978965
4663990135
4663994102
4663998375
4664004295
4664010460
4664014000
4664019126
4664024070
4664028709
4664033287
4664038414
4664043174
4664047264
4664052207
4664056541
4664061119
4664065940
4664071067
4664076011
4664080467
4664084617
4664088401
4664093406
4664097251
4664102256
4664108299
4664112083
4664117332
4664121482
4664125694
4664130759
4664135764
4664142112
4664147910
4664153587
4664162254
4664168113
4664174216
4664181907
4664186057
4664192344
4664196189
4664203025
4664209189
4664214072
4664220542
4664225303
4664231956
4664237327
4664242637
4664249228
4664254905
4664261557
4664266196
4664272239
4664276755
4664282248
4664289389
4664293479
4664299949
4664305564
4664309897
4664315818
4664320822
4664327231
4664332358
4664338828
4664343466
4664350302
4664356711
4664362143
4664364890
4664371787
4664377463
4664384787
4664391440
4664398581
4664403403
4664411215
4664415061
4664419882
4664425498
4664430747
4664435385
4664440878
4664446799
4664451559
4664458823
4664465536
4664469992
4664475973
4664481161
4664485312
4664489828
4664496908
4664502707
4664507406
4664511984
4664519003
4664524862
4664529928
4664534811
4664539572
4664543966
4664551840
4664554770
4664563376
4664569418
4664575583
4664578817
4664586752
4664591269
4664596823
4664604391
4664608053
4664615133
4664620321
4664627157
4664632101
4664637350
4664642233
4664648764
4664653768
4664659201
4664665304
4664670492
4664677328
4664681539
4664686056
4664693929
4664699484
4664706259
4664711385
4664715841
4664722433
4664729574
4664735799
4664740011
4664746481
4664753744
4664758627
4664763570
4664768636
4664777120
4664782308
4664788534
4664795248
4664803426
4664808675
4664815023
4664818258
4664827596
4664833333
4664837545
4664845296
4664851156
4664858358
4664863363
4664869832
4664875325
4664881063
4664886739
4664894002
4664897542
4664909078
4664917012
4664922811
4664929830
4664937276
4664944051
4664949483
4664954122
4664961873
4664967671
4664971578
4664978353
4664982808
4664991048
4664996968
4665002828
4665010030
4665016683
4665024739
4665029988
4665035970
4665043111
4665047505
4665054341
4665058430
4665065511
4665070821
4665076192
4665081197
4665089253
4665094014
4665099812
4665105977
4665111836
4665117268
4665123311
4665129353
4665134785
4665137715
4665144490
4665150715
4665156270
4665163167
4665167500
4665173787
4665178547
4665185811
4665190144
4665196370
4665202473
4665208332
4665213398
4665220784
4665225972
4665231282
4665236103
4665242329
4665247029
4665256001
4665261860
4665267842
4665272724
4665279438
4665284199
4665290974
4665295612
4665303425
4665309223
4665315571
4665321064
4665326435
4665332966
4665338642
4665343159
4665349567
4665357197
4665362568
4665368488
4665372700
4665379230
4665383686
4665390217
4665394733
4665402851
4665410236
4665414509
4665421955
4665427814
4665433307
4665438251
4665444782
4665451069
4665457721
4665467243
4665473163
4665479023
4665486530
4665491535
4665497882
4665503864
4665508625
4665515400
4665521076
4665525409
4665530719
4665535114
4665542377
4665549945
4665557514
4665563678
4665570026
4665575153
4665582050
4665587970
4665592975
4665598895
4665607990
4665614398
4665621112
4665629108
4665636005
4665644183
4665649615
4665655414
4665663165
4665669147
4665675189
4665678668
4665684589
4665691974
4665696551
4665702716
4665709125
4665713519
4665721271
4665726031
4665732318
4665737567
4665742022
4665748553
4665753985
4665760394
4665766803
4665772174
4665777667
4665783465
4665788897
4665794818
4665800555
4665805133
4665809649
4665816668
4665821429
4665828814
4665833392
4665838885
4665846636
4665850726
4665859027
4665865740
4665871539
4665876055
4665883257
4665889544
4665895403
4665900652
4665906634
4665914141
4665919878
4665925066
4665931902
4665937823
4665943682
4665950274
4665955950
4665965166
4665969805
4665975481
4665983538
4665989764
4665994829
4665999346
4666004534
4666013201
4666016436
4666023760
4666028887
4666035174
4666040423
4666044939
4666051775
4666058245
4666065081
4666070330
4666076799
4666082293
4666088457
4666092730
4666098589
4666105608
4666112932
4666119158
4666125505
4666131426
4666136125
4666143999
4666149065
4666154924
4666160173
4666166765
4666169939
4666179765
4666185137
4666191118
4666196123
4666205095
4666210893
4666218156
4666222612
4666228655
4666233354
4666239153
4666244157
4666249895
4666257158
4666262468
4666271806
4666277971
4666283403
4666287126
4666294755
4666298418
4666305803
4666312028
4666317460
4666321367
4666327531
4666333818
4666340593
4666345537
4666351091
4666356950
4666363542
4666369645
4666375627
4666378862
4666385637
4666390947
4666398637
4666403337
4666411271
4666415971
4666422502
4666428361
4666434342
4666439408
4666445512
4666452165
4666456803
4666463883
4666468400
4666474687
4666480729
4666486405
4666489518
4666496659
4666501725
4666511186
4666516007
4666520951
4666527360
4666531693
4666537125
4666543046
4666550370
4666555680
4666563615
4666571183
4666576188
4666583207
4666587907
4666593094
4666599259
4666605179
4666614030
4666618790
4666626359
4666633622
4666639298
4666645096
4666654191
4666659562
4666664750
4666670304
4666678910
4666683915
4666689652
4666696061
4666702469
4666707901
4666711808
4666719620
4666725601
4666732010
4666737015
4666742569
4666746048
4666755081
4666760147
4666766739
4666771683
4666778519
4666785660
4666790543
4666796463
4666804764
4666812271
4666816727
4666824539
4666830093
4666837173
4666842850
4666849258
4666855545
4666861587
4666864761
4666876175
4666881912
4666888748
4666894546
4666901199
4666907425
4666913101
4666920425
4666927994
4666932754
4666938308
4666943069
4666950576
4666955520
4666960281
4666965469
4666971939
4666978531
4666983108
4666988968
4666996109
4667002395
4667006729
4667012405
4667017105
4667024734
4667031143
4667037185
4667040481
4667047744
4667053482
4667060256
4667064773
4667070938
4667075454
4667081558
4667086807
4667091995
4667099807
4667105666
4667112746
4667119155
4667124221
4667129287
4667135940
4667141921
4667147781
4667153274
4667158218
4667163345
4667172439
4667177688
4667183669
4667189467
4667194472
4667201980
4667206435
4667212173
4667218337
4667222976
4667228530
4667234939
4667239516
4667247695
4667252944
4667257827
4667265029
4667271682
4667276686
4667285109
4667290847
4667295974
4667299819
4667307997
4667314955
4667320327
4667326491
4667332472
4667337111
4667344313
4667349623
4667357558
4667362624
4667370925
4667376113
4667382582
4667389540
4667395766
4667402541
4667407668
4667415663
4667421523
4667428542
4667434706
4667444716
4667450453
4667457411
4667464003
4667471937
4667478102
4667485731
4667491652
4667499342
4667504103
4667509535
4667517897
4667523939
4667529493
4667536512
4667542433
4667550367
4667555922
4667563063
4667568190
4667574110
4667579359
4667585035
4667590651
4667595900
4667602003
4667607740
4667613417
4667616712
4667624830
4667630873
4667635755
4667641920
4667645765
4667653395
4667657850
4667662977
4667668958
4667674513
4667681471
4667687269
4667692823
4667699171
4667704359
4667710157
4667715589
4667722059
4667726698
4667735120
4667740491
4667744520
4667752027
4667756544
4667763685
4667767225
4667774366
4667780652
4667786329
4667792432
4667798414
4667803296
4667808912
4667814161
4667820447
4667826490
4667831251
4667837537
4667842054
4667846937
4667854444
4667859021
4667864759
4667870374
4667875928
4667883558
4667888501
4667893689
4667899793
4667904981
4667909803
4667916272
4667921643
4667928540
4667934094
4667939649
4667944470
4667950757
4667955884
4667960706
4667967298
4667972485
4667978101
4667985242
4667990308
4667995068
4668001477
4668006421
4668011853
4668018872
4668025037
4668030957
4668039441
4668044751
4668052136
4668058362
4668067151
4668072217
4668082287
4668093518
4668107739
4668114880
4668120801
4668131115
4668133679
4668147900
4668156445
4668166272
4668175183
4668184338
4668194531
4668203076
4668210888
4668219799
4668228894
4668238842
4668246472
4668256420
4668261181
4668269299
4668277844
4668284802
4668294628
4668299450
4668307385
4668317822
4668328381
4668337109
4668343639
4668354198
4668360607
4668366283
4668373608
4668381969
4668389477
4668396007
4668404369
4668411999
4668417125
4668424877
4668433483
4668441112
4668447582
4668453869
4668460399
4668470287
4668476879
4668481945
4668490367
4668499645
4668506847
4668513866
4668522777
4668528758
4668538341
4668547130
4668552562
4668568126
4668575450
4668584728
4668592113
4668598827
4668607066
4668615794
4668624583
4668631786
4668638133
4668648265
4668654918
4668662303
4668666514
4668675304
4668681895
4668689097
4668699290
4668706981
4668714305
4668720836
4668727672
4668734080
4668742015
4668749949
4668759227
4668768382
4668776194
4668782115
4668789134
4668796885
4668804942
4668810130
4668818797
4668823191
4668836741
4668841441
4668848765
4668858347
4668863902
4668872263
4668876597
4668886912
4668893443
4668900828
4668908579
4668916453
4668922984
4668929881
4668938670
4668945383
4668951060
4668960276
4668964731
4668976389
4668980967
4668988718
4668999277
4669004893
4669015391
4669024058
4669031992
4669040537
4669049875
4669055185
4669064463
4669073740
4669078562
4669089121
4669094614
4669102732
4669111643
4669123056
4669133005
4669139536
4669147165
4669156564
4669163156
4669164987
4669174814
4669180368
4669186472
4669191721
4669198373
4669204050
4669209970
4669214487
4669219797
4669227487
4669233591
4669241586
4669245920
4669253183
4669258005
4669265024
4669270090
4669277292
4669283395
4669288644
4669294320
4669300363
4669306405
4669312204
4669317514
4669322152
4669329660
4669336252
4669339547
4669346383
4669351083
4669358041
4669363229
4669368051
4669374520
4669379831
4669384957
4669390878
4669397164
4669402230
4669408700
4669413766
4669421273
4669426461
4669433419
4669438729
4669444406
4669448007
4669456185
4669461556
4669466561
4669473153
4669477364
4669485055
4669489449
4669496529
4669502145
4669507943
4669512887
4669518685
4669524972
4669531747
4669536874
4669542550
4669545785
4669553475
4669558358
4669566537
4669569710
4669580697
4669584237
4669594063
4669597970
4669605294
4669611336
4669618416
4669623909
4669628548
4669636178
4669642464
4669650582
4669654793
4669663094
4669668282
4669674935
4669682991
4669691597
4669698555
4669705818
4669711861
4669720101
4669724495
4669732064
4669736641
4669746651
4669752815
4669758919
4669762825
4669771248
4669775643
4669783516
4669790596
4669795235
4669799812
4669806587
4669811226
4669817818
4669822945
4669829353
4669835152
4669840950
4669845955
4669852241
4669855232
