4736124166
4736129171
4736135336
4736141012
4736146078
4736152121
4736159506
4736165243
4736171163
4736177206
4736182333
4736187704
4736193380
4736198690
4736203756
4736209921
4736215292
4736220968
4736227438
4736232870
4736239340
4736246420
4736253439
4736259115
4736265707
4736270101
4736278707
4736285116
4736291524
4736297811
4736304525
4736311056
4736317586
4736325521
4736332357
4736341512
4736347738
4736355550
4736362508
4736370382
4736378499
4736384847
4736392232
4736398702
4736405538
4736413411
4736419820
4736427327
4736433797
4736441304
4736448384
4736454183
4736463704
4736471395
4736478902
4736486531
4736494710
4736500936
4736509480
4736517903
4736525227
4736528829
4736538960
4736544881
4736551961
4736559346
4736568196
4736577351
4736582906
4736591389
4736597920
4736605794
4736612324
4736621541
4736628132
4736635029
4736643208
4736650288
4736657124
4736666951
4736674458
4736694233
4736702351
4736712117
4736723652
4736731526
4736741108
4736748188
4736757222
4736764118
4736772236
4736781147
4736786885
4736794880
4736802754
4736808369
4736818195
4736823689
4736833027
4736842976
4736849812
4736857746
4736867390
4736875385
4736881733
4736888996
4736897358
4736906391
4736914692
4736921650
4736925312
4736935566
4736942097
4736949604
4736957538
4736964924
4736972736
4736979328
4736986347
4736994831
4737004108
4737012287
4737019672
4737028949
4737035846
4737042072
4737050922
4737057331
4737068683
4737074359
4737082294
4737089801
4737095783
4737105670
4737111957
4737119464
4737128436
4737135150
4737142658
4737150653
4737157123
4737164020
4737171100
4737180255
4737187335
4737195697
4737202716
4737209186
4737217731
4737225604
4737234820
4737242328
4737250567
4737257586
4737266131
4737273700
4737280658
4737290545
4737297931
4737305621
4737314105
4737320452
4737328509
4737336627
4737344866
4737352740
4737361102
4737368182
4737378192
4737385699
4737395526
4737401507
4737410967
4737419573
4737426043
4737435503
4737444964
4737454607
4737463641
4737472186
4737480181
4737488665
4737496050
4737502825
4737513689
4737520586
4737528704
4737535296
4737542925
4737550982
4737558306
4737564470
4737572771
4737581804
4737588823
4737597124
4737603228
4737610674
4737618975
4737626177
4737634111
4737641924
4737648088
4737654924
4737664263
4737673052
4737680864
4737687090
4737695391
4737702410
4737710771
4737717668
4737724809
4737734636
4737741838
4737748735
4737757341
4737764055
4737772844
4737781999
4737788042
4737796770
4737804094
4737812150
4737821001
4737827226
4737837480
4737845476
4737852250
4737862748
4737868669
4737878740
4737886247
4737894487
4737903215
4737910478
4737919328
4737926408
4737932817
4737941362
4737949357
4737956681
4737964738
4737973466
4737980058
4737990190
4737999711
4738008012
4738015336
4738023881
4738032121
4738039445
4738060685
4738071427
4738082230
4738091996
4738101700
4738111466
4738122269
4738130814
4738137833
4738147294
4738155594
4738164200
4738171341
4738180924
4738187821
4738196732
4738204606
4738213395
4738220475
4738228226
4738236527
4738243912
4738253067
4738260025
4738268753
4738278397
4738287430
4738295120
4738301529
4738310257
4738318619
4738325638
4738334427
4738342362
4738350967
4738359756
4738368179
4738375748
4738381973
4738390579
4738397232
4738408890
4738416397
4738424576
4738433060
4738440445
4738448135
4738456314
4738464981
4738472183
4738481643
4738489456
4738498184
4738505081
4738511306
4738519424
4738526138
4738533096
4738539566
4738545974
4738553237
4738560440
4738566787
4738571609
4738578262
4738584731
4738590591
4738597305
4738603713
4738609390
4738616958
4738622268
4738629104
4738634109
4738640029
4738648574
4738656142
4738661086
4738668166
4738673537
4738681655
4738687392
4738695083
4738701247
4738709426
4738715835
4738722487
4738728225
4738736037
4738742446
4738748061
4738753737
4738759780
4738766433
4738772170
4738778029
4738784804
4738789565
4738796096
4738802871
4738808120
4738813491
4738819594
4738825148
4738831374
4738837477
4738841628
4738848708
4738853591
4738860182
4738865187
4738872389
4738879531
4738885573
4738891371
4738896681
4738902785
4738908705
4738913344
4738919508
4738925246
4738931166
4738938185
4738943495
4738949110
4738954665
4738961745
4738967543
4738974318
4738979994
4738984999
4738991225
4738997816
4739002638
4739008620
4739015333
4739019484
4739025831
4739032789
4739038588
4739044264
4739049635
4739056288
4739062391
4739067152
4739073439
4739080153
4739085829
4739090834
4739096937
4739103285
4739109266
4739115065
4739120436
4739126417
4739131483
4739138624
4739145094
4739149977
4739155775
4739161634
4739167372
4739173780
4739179395
4739185926
4739190992
4739197218
4739202955
4739209181
4739215833
4739221327
4739226759
4739233289
4739239881
4739245557
4739252210
4739259107
4739264417
4739278211
4739283521
4739288526
4739295606
4739300611
4739307569
4739313428
4739319532
4739324232
4739330518
4739335584
4739341810
4739348035
4739354322
4739360853
4739366590
4739371961
4739377088
4739384290
4739390821
4739396192
4739402417
4739408521
4739414502
4739418958
4739425000
4739431531
4739438306
4739444715
4739450086
4739456067
4739461255
4739465955
4739472547
4739478589
4739483960
4739490979
4739497327
4739502759
4739508923
4739514539
4739520520
4739526318
4739533398
4739539075
4739544385
4739551038
4739555737
4739562634
4739568494
4739574719
4739581372
4739587109
4739592419
4739598279
4739603467
4739608594
4739615552
4739621167
4739626233
4739633801
4739637829
4739643933
4739649609
4739656628
4739662426
4739668652
4739673779
4739679516
4739686352
4739690625
4739697644
4739703137
4739709240
4739715039
4739720898
4739726025
4739731884
4739739270
4739744519
4739752148
4739757519
4739763561
4739769421
4739774975
4739781140
4739787853
4739795422
4739799694
4739807629
4739814098
4739819897
4739827282
4739833691
4739838818
4739845226
4739851147
4739856945
4739862255
4739868847
4739874218
4739880566
4739885937
4739891491
4739898205
4739903942
4739908764
4739914989
4739921276
4739927379
4739931225
4739939159
4739944652
4739950817
4739954906
4739961742
4739967052
4739973278
4739979686
4739985363
4739990429
4739997020
4740002269
4740008617
4740014659
4740019664
4740025402
4740029857
4740035472
4740040843
4740047435
4740053905
4740056652
4740064220
4740068859
4740075084
4740081188
4740089000
4740094249
4740100597
4740106761
4740112926
4740118907
4740124095
4740131664
4740136729
4740144847
4740149974
4740156810
4740162669
4740170055
4740177257
4740182689
4740189525
4740196055
4740202403
4740206798
4740213267
4740220775
4740225841
4740232493
4740236766
4740243297
4740249400
4740255565
4740261912
4740267527
4740274119
4740279063
4740284007
4740289744
4740297862
4740303172
4740309214
4740316417
4740321849
4740328196
4740335276
4740342723
4740347361
4740354563
4740362254
4740367991
4740373362
4740379405
4740384776
4740391306
4740396616
4740402903
4740409495
4740415537
4740420237
4740425242
4740431651
4740437998
4740442149
4740448618
4740452891
4740461008
4740466380
4740473399
4740479197
4740485422
4740491160
4740497019
4740502573
4740508799
4740514170
4740519785
4740526194
4740532114
4740537058
4740543100
4740550791
4740558420
4740566965
4740577707
4740586435
4740594736
4740602365
4740609446
4740619760
4740632334
4740642771
4740652414
4740660166
4740669443
4740677500
4740686899
4740697580
4740705881
4740713998
4740721018
4740728342
4740737802
4740746042
4740753854
4740763010
4740770761
4740778574
4740788583
4740796884
4740804330
4740813974
4740821237
4740828805
4740837900
4740847177
4740853280
4740865304
4740872689
4740882394
4740890695
4740899362
4740905587
4740914437
4740921945
4740930978
4740939401
4740949288
4740957101
4740965646
4740973641
4740982614
4740992806
4741006295
4741015878
4741024850
4741034921
4741044198
4741055611
4741063851
4741069344
4741080697
4741089547
4741098824
4741107369
4741116341
4741123849
4741131966
4741140755
4741147957
4741156197
4741164925
4741172738
4741182015
4741188301
4741197640
4741204598
4741213448
4741221871
4741231942
4741241585
4741250313
4741255745
4741267098
4741274788
4741284737
4741294808
4741303352
4741312630
4741321602
4741330025
4741339973
4741354134
4741370918
4741385811
4741405464
4741424568
4741442451
4741460701
4741478340
4741498298
4741516914
4741533821
4741552986
4741565010
4741576240
4741587104
4741605109
4741618476
4741629401
4741643134
4741656379
4741668830
4741677741
4741687385
4741696967
4741706061
4741715827
4741725287
4741733832
4741742499
4741750861
4741759406
4741767707
4741775580
4741784858
4741792792
4741801581
4741811042
4741819770
4741829047
4741837287
4741845465
4741852301
4741859320
4741868537
4741877570
4741885138
4741895331
4741903388
4741911322
4741921393
4741928778
4741938788
4741946234
4741956061
4741964056
4741974188
4741982306
4741990179
4741998663
4742007086
4742016607
4742022772
4742034491
4742042914
4742050360
4742059942
4742068243
4742075689
4742079718
4742087652
4742093084
4742100347
4742107611
4742113958
4742118658
4742124884
4742130865
4742135382
4742143011
4742148321
4742155218
4742159979
4742165594
4742171514
4742177557
4742184454
4742193487
4742200140
4742206304
4742211492
4742216314
4742223150
4742229070
4742233953
4742240972
4742245611
4742252386
4742258428
4742265264
4742272405
4742276983
4742283025
4742287786
4742293889
4742299077
4742306707
4742312810
4742321721
4742330510
4742338506
4742345525
4742354192
4742363530
4742382390
4742391484
4742400457
4742406011
4742413274
4742419194
4742425176
4742431340
4742438787
4742444097
4742451909
4742458440
4742465398
4742471196
4742478337
4742484746
4742490971
4742498235
4742503301
4742508550
4742515080
4742520085
4742525029
4742530949
4742537480
4742543645
4742548650
4742555119
4742559880
4742566472
4742573003
4742578252
4742584294
4742589787
4742595219
4742599919
4742604191
4742610112
4742614628
4742620732
4742626286
4742632512
4742637822
4742642827
4742648930
4742655156
4742661381
4742667729
4742673222
4742678715
4742684697
4742689091
4742696171
4742702031
4742708927
4742713749
4742718815
4742723576
4742729740
4742736637
4742743351
4742748478
4742753727
4742758305
4742764103
4742770207
4742775944
4742782475
4742787052
4742793278
4742797733
4742803227
4742808598
4742814213
4742820622
4742825138
4742831181
4742836185
4742843510
4742851627
4742857487
4742864872
4742870060
4742875309
4742881107
4742887089
4742892765
4742899845
4742904728
4742911258
4742916385
4742923160
4742928715
4742935489
4742943546
4742951175
4742959720
4742969608
4742976139
4742983036
4742990787
4742997013
4743001468
4743007206
4743014530
4743020023
4743025150
4743031803
4743036319
4743041934
4743050357
4743055667
4743061954
4743068790
4743075687
4743081119
4743086124
4743094425
4743101993
4743106815
4743114810
4743122379
4743127567
4743133609
4743140689
4743145816
4743152469
4743159244
4743163943
4743169253
4743176517
4743183658
4743190738
4743199039
4743203616
4743210086
4743218448
4743223453
4743230044
4743235171
4743241336
4743246707
4743254031
4743261477
4743266909
4743273074
4743278140
4743284426
4743290164
4743295779
4743303469
4743308779
4743314395
4743321780
4743329165
4743335757
4743346560
4743353030
4743359072
4743364077
4743371401
4743376772
4743382876
4743389712
4743394839
4743401003
4743405947
4743411135
4743417483
4743423952
4743429385
4743435183
4743439700
4743445010
4743454531
4743460879
4743468325
4743473391
4743485659
4743491457
4743499636
4743504275
4743510073
4743517641
4743523256
4743529421
4743539003
4743544985
4743550844
4743558046
4743563662
4743569643
4743574343
4743581301
4743588015
4743593691
4743598024
4743604311
4743610109
4743615541
4743622927
4743628054
4743632631
4743639101
4743643495
4743650087
4743654726
4743661012
4743667909
4743671816
4743678529
4743683840
4743689882
4743693788
4743700868
4743707399
4743712953
4743719179
4743724184
4743728883
4743734377
4743740724
4743745973
4743752748
4743757753
4743763551
4743769716
4743774660
4743780763
4743786622
4743791505
4743798219
4743803590
4743809694
4743817018
4743821412
4743828187
4743833375
4743838990
4743845643
4743851564
4743857057
4743862306
4743868959
4743873841
4743880677
4743887513
4743893312
4743900148
4743906007
4743911134
4743918275
4743922914
4743929811
4743935792
4743940309
4743947755
4743953065
4743960328
4743966798
4743972901
4743979310
4743985413
4743992005
4743998048
4744005128
4744010682
4744015382
4744022523
4744027955
4744033753
4744040467
4744044801
4744050172
4744056153
4744062257
4744067567
4744072999
4744078004
4744084351
4744089539
4744096558
4744101563
4744105897
4744112183
4744118165
4744123353
4744129517
4744134400
4744140931
4744146851
4744151612
4744159119
4744163880
4744169922
4744174927
4744180237
4744187683
4744191651
4744199158
4744203980
4744209961
4744214722
4744220459
4744228028
4744234864
4744240540
4744246582
4744252014
4744257630
4744264343
4744271240
4744277649
4744282471
4744288513
4744294067
4744299622
4744305420
4744310791
4744315735
4744322754
4744327637
4744334351
4744339722
4744346008
4744352051
4744356506
4744363769
4744369446
4744375610
4744380737
4744387451
4744392578
4744398742
4744405029
4744410339
4744415588
4744421448
4744427185
4744433532
4744438476
4744444214
4744450500
4744454773
4744464904
4744472107
4744477417
4744484069
4744489135
4744496582
4744504089
4744509460
4744515808
4744521972
4744528076
4744531738
4744537658
4744544555
4744549438
4744555297
4744561523
4744568542
4744573119
4744579040
4744584228
4744589660
4744594665
4744601562
4744606872
4744612548
4744618102
4744623595
4744629577
4744634704
4744640746
4744645202
4744651366
4744657409
4744663879
4744670592
4744675292
4744681335
4744687011
4744692870
4744698607
4744704162
4744710631
4744715453
4744721801
4744728209
4744732909
4744737304
4744742003
4744748534
4744753356
4744759398
4744764708
4744770079
4744776427
4744781432
4744786864
4744794371
4744801635
4744808104
4744813109
4744820067
4744827880
4744833617
4744839598
4744845824
4744852049
4744858336
4744864073
4744870482
4744877013
4744884642
4744889098
4744894347
4744901488
4744906981
4744914122
4744918883
4744926573
4744932127
4744939391
4744944945
4744951720
4744957091
4744966429
4744973448
4744980711
4744986571
4744994871
4745002073
4745007017
4745013914
4745019041
4745024656
4745029234
4745035460
4745043150
4745048460
4745053038
4745058897
4745064512
4745069151
4745075071
4745081724
4745086790
4745092955
4745097044
4745103086
4745107603
4745114805
4745121458
4745126890
4745131529
4745136656
4745142820
4745148618
4745155088
4745161253
4745167234
4745172849
4745179563
4745185056
4745190977
4745197630
4745203306
4745207945
4745214903
4745221311
4745226926
4745232664
4745238340
4745243650
4745250486
4745255002
4745260618
4745267148
4745272275
4745278745
4745283445
4745290464
4745295347
4745301389
4745306516
4745312925
4745318479
4745325010
4745331662
4745337705
4745343381
4745349057
4745354978
4745360532
4745366513
4745372129
4745377011
4745382444
4745389402
4745393613
4745400266
4745406797
4745411557
4745417478
4745423886
4745429868
4745436093
4745440244
4745449460
4745454038
4745459897
4745470578
4745477109
4745484128
4745489987
4745494382
4745502011
4745509457
4745516049
4745521115
4745527463
4745531247
4745537595
4745543942
4745549985
4745554013
4745561764
4745566525
4745572751
4745578488
4745583493
4745589718
4745594662
4745599606
4745604367
4745610653
4745617062
4745622128
4745628293
4745633358
4745639889
4745644650
4745650326
4745657650
4745661740
4745668576
4745672848
4745679257
4745685788
4745691342
4745697628
4745703060
4745709652
4745713131
4745721127
4745726559
4745731991
4745737728
4745745053
4745749325
4745757015
4745763119
4745768246
4745774288
4745780636
4745785153
4745790463
4745798092
4745802242
4745807735
4745814022
4745819271
4745825558
4745830868
4745836971
4745841976
4745848019
4745852962
4745858333
4745864437
4745870113
4745875545
4745880367
4745887081
4745892513
4745899105
4745904415
4745908687
4745915401
4745920955
4745925472
4745931392
4745936763
4745941524
4745949093
4745954952
4745960323
4745967037
4745987789
4745992610
4746003597
4746009639
4746015804
4746022518
4746028438
4746033321
4746040340
4746046260
4746052303
4746057124
4746063045
4746068355
4746075252
4746079952
4746085262
4746091731
4746096980
4746100764
4746109248
4746113643
4746120052
4746125606
4746131526
4746137324
4746141414
4746148677
4746154292
4746160152
4746165401
4746171443
4746175715
4746182551
4746189754
4746194697
4746200801
4746207515
4746213984
4746219539
4746225398
4746231196
4746236750
4746241755
4746247676
4746253047
4746258967
4746265193
4746271785
4746278926
4746284785
4746290583
4746296138
4746300715
4746308161
4746321162
4746326411
4746332759
4746341364
4746348078
4746354487
4746360468
4746366633
4746371150
4746379572
4746385127
4746391047
4746397089
4746403132
4746409113
4746415461
4746421503
4746427180
4746433405
4746439509
4746445917
4746451044
4746458246
4746466791
4746473566
4746484003
4746491877
4746499018
4746504694
4746511469
4746517389
4746522699
4746528498
4746534662
4746539545
4746545710
4746551508
4746556452
4746561396
4746568415
4746573664
4746579523
4746585871
4746591242
4746596796
4746602899
4746608026
4746614557
4746620416
4746625910
4746632929
4746638239
4746643854
4746650202
4746655878
4746661371
4746668085
4746672357
4746677911
4746684198
4746690424
4746696771
4746702325
4746709711
4746715265
4746719720
4746724664
4746731683
4746737299
4746743280
4746748712
4746754144
4746759576
4746765130
4746770196
4746775995
4746783197
4746788141
4746793634
4746799066
4746804925
4746810052
4746814386
4746821222
4746825677
4746832208
4746838189
4746844293
4746849054
4746856073
4746863214
4746868646
4746875482
4746880975
4746885125
4746891717
4746897637
4746903802
4746910760
4746915643
4746920953
4746926812
4746933465
4746938348
4746945001
4746950555
4746956963
4746966424
4746975152
4746982110
4746987603
4746997796
4747003899
4747011040
4747014947
4747021111
4747026055
4747031670
4747036736
4747042351
4747048760
4747051446
4747061089
4747065484
4747071770
4747076592
4747082696
4747087884
4747093194
4747100457
4747105584
4747112359
4747117486
4747123467
4747129021
4747133355
4747141655
4747146477
4747153557
4747158745
4747165276
4747169915
4747176689
4747182549
4747188652
4747193657
4747199700
4747206108
4747210259
4747217827
4747224236
4747230522
4747236870
4747243767
4747249138
4747253960
4747259697
4747266167
4747272820
4747276970
4747284233
4747288506
4747295036
4747301567
4747306999
4747312920
4747320122
4747324760
4747331963
4747338127
4747343193
4747348381
4747356193
4747362175
4747368339
4747373588
4747379082
4747385734
4747390800
4747396232
4747402702
4747408500
4747414299
4747419548
4747426201
4747431633
4747439323
4747447319
4747454399
4747458488
4747466362
4747472465
4747478447
4747483757
4747490043
4747496452
4747503715
4747512870
4747520011
4747525810
4747533195
4747538200
4747545463
4747552482
4747558280
4747563896
4747570365
4747575797
4747581596
4747586906
4747593009
4747599540
4747604972
4747611137
4747617057
4747621207
4747629142
4747636161
4747641532
4747646598
4747653312
4747659537
4747664115
4747670035
4747677238
4747682609
4747688041
4747694327
4747699943
4747706046
4747710380
4747717154
4747722648
4747728141
4747733573
4747739554
4747744986
4747751822
4747758475
4747764212
4747771292
4747776541
4747782279
4747787101
4747792899
4747798148
4747804557
4747810172
4747816336
4747821585
4747827262
4747834891
4747840018
4747847098
4747851859
4747857840
4747863699
4747869925
4747875784
4747882559
4747887320
4747892325
4747899100
4747904166
4747910452
4747916800
4747922354
4747927969
4747933340
4747939505
4747944693
4747950552
4747956228
4747962393
4747968924
4747973562
4747978934
4747985098
4747992117
4747996756
4748003531
4748008597
4748015493
4748021231
4748027456
4748034292
4748045095
4748050222
4748059683
4748072622
4748077932
4748084646
4748090383
4748096609
4748102468
4748107168
4748112905
4748121084
4748127371
4748135244
4748140737
4748147634
4748154165
4748159719
4748165640
4748172231
4748177053
4748182058
4748189565
4748194570
4748199331
4748206655
4748211782
4748216238
4748223501
4748227529
4748234243
4748239797
4748244619
4748250417
4748257009
4748262929
4748267385
4748275503
4748283010
4748288991
4748297292
4748302358
4748308461
4748313344
4748323110
4748328237
4748334768
4748341237
4748346975
4748352956
4748361196
4748367543
4748373891
4748379750
4748384145
4748391713
4748397512
4748403249
4748408803
4748415517
4748421071
4748427663
4748432301
4748439504
4748443471
4748449513
4748456044
4748461659
4748466542
4748472585
4748479176
4748482900
4748491383
4748496815
4748502736
4748507985
4748511891
4748517934
4748524281
4748531728
4748537709
4748542897
4748548695
4748555104
4748561757
4748566578
4748575734
4748582631
4748590565
4748595448
4748603077
4748607899
4748614308
4748619618
4748627003
4748632496
4748638600
4748644154
4748650074
4748656788
4748661488
4748668690
4748675038
4748681019
4748686512
4748691639
4748697804
4748704212
4748710377
4748714955
4748721546
4748728993
4748735096
4748740589
4748744984
4748752552
4748759266
4748765308
4748770802
4748774952
4748780445
4748786854
4748793751
4748800037
4748805714
4748811573
4748816700
4748822437
4748828175
4748833240
4748839954
4748845142
4748850818
4748855945
4748859974
4748866932
4748872913
4748878345
4748883838
4748890369
4748894764
4748900806
4748906360
4748912464
4748917041
4748923450
4748931141
4748936329
4748941211
4748946216
4748952198
4748956531
4748965320
4748970142
4748976856
4748981189
4748985889
4748991992
4748999317
4749007129
4749011646
4749016651
4749021472
4749027820
4749033069
4749039966
4749045520
4749051746
4749055713
4749061694
4749070728
4749077258
4749089587
4749095813
4749104358
4749110828
4749117847
4749122974
4749130176
4749137744
4749144214
4749150867
4749156665
4749161975
4749168933
4749173327
4749180041
4749184131
4749191760
4749197497
4749202319
4749209704
4749215625
4749222583
4749228076
4749233325
4749241076
4749247668
4749252795
4749258471
4749265368
4749272631
4749276904
4749283801
4749287829
4749295519
4749300952
4749308459
4749315722
4749321887
4749329089
4749334216
4749340746
4749346850
4749351000
4749358752
4749364916
4749370165
4749375781
4749381762
4749388293
4749393908
4749398486
4749405932
4749412463
4749416796
4749422777
4749428026
4749433398
4749437731
4749444628
4749451281
4749457140
4749463000
4749470202
4749476793
4749482714
4749487841
4749492113
4749498522
4749503222
4749508593
4749514391
4749520128
4749525560
4749532518
4749536913
4749543444
4749548021
4749553881
4749558763
4749564867
4749569811
4749576342
4749581041
4749587145
4749592577
4749598986
4749605760
4749612352
4749620043
4749629320
4749639024
4749648424
4749656847
4749663255
4749668016
4749673570
4749679186
4749684496
4749691759
4749697618
4749702684
4749708421
4749714220
4749718614
4749724412
4749729051
4749735887
4749741807
4749746629
4749753160
4749759019
4749765367
4749770006
4749776536
4749781541
4749788255
4749794786
4749799058
4749804612
4749809922
4749816453
4749822068
4749827134
4749831468
4749837693
4749842515
4749847337
4749852464
4749860643
4749865708
4749869676
4749876145
4749880479
4749885667
4749891099
4749897141
4749903611
4749909532
4749914964
4749921800
4749926927
4749931626
4749937364
4749943162
4749949082
4749954881
4749958604
4749964524
4749970689
4749974900
4749982407
4749987107
4749993333
4749997666
4750002854
4750008713
4750014085
4750019089
4750026414
4750032395
4750037827
4750044297
4750049241
4750054551
4750061265
4750067917
4750072556
4750079148
4750085496
4750091294
4750096299
4750103379
4750108750
4750115830
4750121201
4750126389
4750132553
4750142929
4750148972
4750157822
4750164658
4750171433
4750179795
4750186264
4750192368
4750198654
4750204087
4750209091
4750214401
4750219528
4750224472
4750231125
4750236252
4750244064
4750249619
4750255600
4750259567
4750265549
4750271774
4750276108
4750283371
4750289536
4750294662
4750300400
4750305649
4750310471
4750317551
4750322922
4750328964
4750334396
4750341354
4750346725
4750351974
4750357956
4750364670
4750370956
4750375229
4750381759
4750386215
4750391708
4750398300
4750404098
4750410324
4750417465
4750422775
4750427902
4750434799
4750440353
4750446945
4750451644
4750456344
4750463180
4750469528
4750475509
4750481124
4750485458
4750490951
4750496200
4750502792
4750507919
4750513717
4750519393
4750525375
4750531722
4750537765
4750543014
4750549423
4750555038
4750559982
4750564559
4750570297
4750576278
4750580611
4750589034
4750593551
4750598739
4750604293
4750609603
4750616012
4750623031
4750627914
4750634872
4750640914
4750645125
4750652877
4750657821
4750663619
4750672042
4750678756
4750688338
4750693892
4750700545
4750707015
4750714278
4750722152
4750728316
4750735091
4750741439
4750746260
4750752425
4750757796
4750766097
4750771346
4750776778
4750783309
4750788497
4750795394
4750802535
4750807540
4750813582
4750820784
4750826949
4750832991
4750840498
4750846297
4750852095
4750856734
4750864607
4750869673
4750874922
4750883040
4750888960
4750895186
4750900801
4750906599
4750911360
4750918440
4750924605
4750931257
4750937727
4750942610
4750948347
4750956648
4750963484
4750969221
4750976362
4750980879
4750986799
4750996687
4751001936
4751009199
4751015242
4751021223
4751027388
4751035139
4751040876
4751046003
4751052290
4751058699
4751063826
4751069502
4751077131
4751082624
4751089216
4751095503
4751101057
4751106794
4751112837
4751119489
4751125227
4751131330
4751136152
4751143903
4751149946
4751155012
4751161787
4751168745
4751173322
4751183454
4751189924
4751196516
4751203901
4751209211
4751218061
4751225873
4751230085
4751236371
4751243207
4751249250
4751256208
4751260785
4751268659
4751273359
4751280500
4751287946
4751294843
4751299848
4751307782
4751313825
4751319867
4751327253
4751333295
4751338300
4751343183
4751351056
4751356427
4751362287
4751368512
4751375348
4751382367
4751388898
4751394330
4751400311
4751406964
4751413617
4751420575
4751425458
4751431256
4751437482
4751443951
4751449078
4751456952
4751463239
4751469037
4751475629
4751480145
4751487225
4751495282
4751500836
4751506695
4751512494
4751518719
4751525555
4751533856
4751539837
4751546002
4751551434
4751558575
4751564435
4751570355
4751576031
4751583722
4751589642
4751595990
4751601239
4751603863
4751613018
4751619671
4751625714
4751632061
4751636761
4751643231
4751648175
4751654949
4751660015
4751670208
4751679119
4751685955
4751696820
4751703045
4751712872
4751717571
4751723370
4751727581
4751736004
4751741436
4751747234
4751753155
4751759014
4751762920
4751769939
4751775494
4751783184
4751788677
4751794720
4751800213
4751804974
4751810100
4751816448
4751822857
4751827801
4751833233
4751838360
4751844707
4751850689
4751857036
4751865459
4751869610
4751875713
4751882732
4751887676
4751893779
4751898906
4751905742
4751910259
4751916179
4751922832
4751927471
4751933330
4751938396
4751945293
4751950359
4751956951
4751962810
4751967082
4751972454
4751979106
4751984172
4751991374
4751996440
4752002849
4752009990
4752015178
4752021465
4752027690
4752033244
4752039226
4752043926
4752049846
4752056133
4752061443
4752069560
4752075237
4752080302
4752086711
4752090678
4752096233
4752102763
4752108134
4752113444
4752118754
4752125529
4752129558
4752135783
4752142253
4752148234
4752153422
4752158610
4752164226
4752171306
4752179179
4752185832
4752193095
4752201152
4752206828
4752213725
4752220683
4752226970
4752232707
4752239421
4752244487
4752250590
4752256816
4752264201
4752270243
4752276652
4752282756
4752288554
4752294901
4752299662
4752306071
4752312968
4752319132
4752324931
4752331645
4752337870
4752342936
4752350565
4752357157
4752363810
4752370158
4752376078
4752381388
4752388529
4752395548
4752401652
4752407328
4752412760
4752419657
4752425761
4752430948
4752437113
4752443155
4752448832
4752456095
4752462076
4752468973
4752475687
4752480875
4752486307
4752492655
4752499125
4752506937
4752511942
4752517191
4752524576
4752529703
4752535379
4752541544
4752546366
4752553568
4752559305
4752565287
4752571634
4752577921
4752583414
4752589151
4752595682
4752601358
4752610025
4752616373
4752621805
4752628092
4752634805
4752641885
4752649271
4752656107
4752663309
4752669778
4752675272
4752681680
4752690897
4752697977
4752704935
4752710123
4752716775
4752722818
4752728860
4752734476
4752741128
4752747720
4752753579
4752759805
4752765359
4752772012
4752778604
4752784585
4752790872
4752797342
4752802835
4752809549
4752815774
4752820840
4752827859
4752833230
4752839700
4752845742
4752852151
4752857522
4752863504
4752870278
4752876138
4752882607
4752888833
4752895303
4752901284
4752907449
4752913796
4752918801
4752924966
4752930154
4752936440
4752942483
4752947060
4752953103
4752961831
4752967629
4752973489
4752978738
4752984841
4752990090
4752996011
4753003579
4753009926
4753016762
4753021767
4753027199
4753035439
4753040322
4753045876
4753051858
4753059609
4753065712
4753074563
4753081032
4753087014
4753092812
4753098732
4753103127
4753111977
4753118630
4753124367
4753129982
4753137978
4753144448
4753151589
4753159951
4753166115
4753173256
4753180886
4753188088
4753193154
4753199623
4753206398
4753211586
4753217934
4753223976
4753229591
4753238014
4753244667
4753251564
4753257301
4753263466
4753269630
4753277443
4753282814
4753289223
4753295753
4753301002
4753307960
4753312050
4753318519
4753324562
4753330360
4753336525
4753342140
4753347633
4753352211
4753357765
4753365211
4753370216
4753374855
4753379860
4753387672
4753393531
4753399147
4753406471
4753411476
4753417701
4753422828
4753429481
4753434059
4753440956
4753446083
4753452125
4753460670
4753465492
4753472206
4753477577
4753482032
4753487464
4753494483
4753499671
4753506263
4753510902
4753516639
4753523597
4753529029
4753535133
4753540992
4753547218
4753552650
4753557166
4753563453
4753570167
4753575843
4753582069
4753587257
4753591468
4753598243
4753603675
4753609534
4753616187
4753622291
4753627234
4753632178
4753637305
4753642310
4753648597
4753653235
4753658729
4753665137
4753673499
4753682776
4753688636
4753695777
4753704322
4753712256
4753718970
4753724463
4753729956
4753735144
4753741004
4753746863
4753753577
4753758460
4753763709
4753769385
4753773291
4753779151
4753784400
4753791724
4753797583
4753802710
4753808020
4753813635
4753818579
4753823828
4753830115
4753836585
4753842078
4753847266
4753854102
4753859167
4753865149
4753871069
4753875220
4753881018
4753886938
4753892798
4753898962
4753904944
4753911291
4753917334
4753922949
4753928320
4753934973
4753940405
4753944983
4753951025
4753956946
4753962378
4753969519
4753973730
4753978918
4753984900
4753989904
4753994360
4754000891
4754006811
4754012548
4754017370
4754022314
4754028234
4754032873
4754039160
4754044592
4754049658
4754055700
4754059301
4754067419
4754072973
4754079687
4754084936
4754092382
4754099157
4754103063
4754111303
4754117101
4754123144
4754128393
4754132909
4754139013
4754143469
4754149938
4754155492
4754160253
4754165258
4754171789
4754176611
4754182470
4754187414
4754193029
4754198705
4754206823
4754214696
4754224523
4754230871
4754239538
4754246435
4754253637
4754260412
4754265600
4754270849
4754276708
4754280858
4754286779
4754291417
4754298314
4754303868
4754308934
4754315099
4754321874
4754326940
4754333593
4754340062
4754344579
4754350926
4754355687
4754360936
4754367650
4754372899
4754377721
4754384618
4754389440
4754395116
4754398961
4754405003
4754409886
4754416234
4754423131
4754428380
4754435460
4754440282
4754445653
4754451085
4754460057
4754465428
4754470555
4754476659
4754483006
4754488499
4754493565
4754499852
4754505101
4754510289
4754514805
4754521519
4754526646
4754532445
4754536534
4754542393
4754548924
4754553868
4754559483
4754563878
4754570225
4754575718
4754580723
4754585240
4754592625
4754598301
4754603489
4754608555
4754615940
4754620762
4754626744
4754632176
4754638829
4754644444
4754650059
4754655064
4754658970
4754664341
4754670017
4754675266
4754681919
4754688023
4754694004
4754699680
4754704197
4754710789
4754716587
4754722691
4754730808
4754739658
4754747532
4754756565
4754762302
4754768162
4754776218
4754781040
4754786472
4754793430
4754798984
4754805881
4754811069
4754816562
4754822483
4754828525
4754834141
4754838474
4754845066
4754850681
4754856296
4754861240
4754868259
4754873874
4754878635
4754885105
4754891025
4754897922
4754903049
4754909336
4754915622
4754921421
4754926303
4754933200
4754938999
4754944126
4754950046
4754955112
4754959567
4754964694
4754970249
4754976535
4754982700
4754989047
4754995212
4754999362
4755006625
4755010471
4755017001
4755023166
4755028659
4755034641
4755040012
4755044284
4755050388
4755054721
4755060336
4755065402
4755072604
4755078525
4755084018
4755090121
4755095370
4755100864
4755107822
4755113315
4755118197
4755124545
4755128512
4755134982
4755140231
4755145541
4755151462
4755157321
4755162875
4755170077
4755175387
4755181125
4755187167
4755194125
4755199069
4755205783
4755209750
4755215426
4755220187
4755227084
4755233187
4755239962
4755245455
4755250704
4755255831
4755260470
4755271029
4755279574
4755286532
4755293307
4755298800
4755304598
4755313937
4755321322
4755327364
4755333773
4755338107
4755343783
4755347994
4755353854
4755359469
4755366427
4755372347
4755378268
4755383883
4755388399
4755393282
4755398836
4755405062
4755410372
4755415621
4755421786
4755427279
4755432711
4755438814
4755445345
4755451143
4755456087
4755461641
4755466707
4755471468
4755476717
4755482882
4755489290
4755493746
4755500338
4755505648
4755511934
4755517611
4755523775
4755528963
4755533785
4755539095
4755543550
4755548006
4755552095
4755556185
4755559481
4755566805
4755570467
4755575411
4755580477
4755585359
4755589815
4755595796
4755599458
4755604891
4755609834
4755613680
4755617464
4755621492
4755625826
4755630830
4755636263
4755640413
4755644624
4755649202
4755652376
4755658479
4755664400
4755669405
4755673738
4755678987
4755684297
4755688020
4755692781
4755697725
4755702302
4755707429
4755711885
4755716218
4755721284
4755726411
4755730317
4755735200
4755740327
4755744661
4755749238
4755753633
4755759553
4755763093
4755769197
4755772798
4755779207
4755785615
4755791963
4755796785
4755801789
4755806855
4755812410
4755818940
4755824372
4755829255
4755833039
4755838410
4755842561
4755846528
4755850495
4755855928
4755861054
4755865144
4755869416
4755873506
4755878694
4755882722
4755887666
4755892426
4755897553
4755903718
4755908845
4755912202
4755916718
4755920930
4755927461
4755931184
4755937043
4755942109
4755946870
4755950227
4755955415
4755958527
4755964387
4755970063
4755974702
4755980195
4755984650
4755989899
4755995759
4755998749
4756004548
4756008576
4756013581
4756017609
4756021760
4756027131
4756030854
4756035492
4756041535
4756046845
4756051178
4756056855
4756062348
4756067475
4756072297
4756078644
4756085053
4756090119
4756094757
4756100678
4756105988
4756112213
4756116486
4756122406
4756127472
4756131989
4756139008
4756145111
4756150482
4756155792
4756160980
4756166596
4756172577
4756178192
4756184479
4756190033
4756194916
4756199555
4756206757
4756212128
4756219574
4756223785
4756230499
4756235199
4756241180
4756247162
4756252594
4756260345
4756267425
4756273651
4756280487
4756285126
4756291412
4756297577
4756303070
4756309418
4756315582
4756320099
4756325531
4756330475
4756335418
4756340851
4756347076
4756350128
4756357513
4756363678
4756368499
4756372955
4756377838
4756382476
4756389251
4756393646
4756401214
4756405120
4756411346
4756415191
4756421356
4756425994
4756431549
4756436492
4756442657
4756449188
4756454437
4756459503
4756464874
4756467925
4756475128
4756481292
4756488433
4756493011
4756498443
4756504730
4756510589
4756515044
4756520843
4756526275
4756530792
4756539397
4756545074
4756550079
4756554473
4756560638
4756566314
4756571624
4756576324
4756583587
4756588653
4756594024
4756599761
4756605315
4756608733
4756616607
4756621428
4756629607
4756634551
4756641753
4756646148
4756652190
4756658904
4756662871
4756669829
4756677703
4756683318
4756690947
4756695891
4756703582
4756710051
4756713897
4756721465
4756727202
4756732939
4756739409
4756745330
4756751067
4756756926
4756762847
4756768645
4756773589
4756780669
4756784758
4756792326
4756798369
4756803740
4756812651
4756819731
4756827361
4756830595
4756838469
4756846831
4756856169
4756862395
4756870390
4756877592
4756885832
4756895293
4756898344
4756906706
4756912382
4756917753
4756923124
4756929716
4756935454
4756941130
4756945952
4756952299
4756957731
4756962614
4756970121
4756974089
4756980680
4756985991
4756990873
4756995207
4757003569
4757008146
4757014433
4757020231
4757027067
4757032438
4757039274
4757046415
4757050566
4757056913
4757062773
4757067900
4757073820
4757080107
4757086210
4757089445
4757096708
4757101347
4757109037
4757114103
4757119291
4757125883
4757131254
4757137479
4757141386
4757148222
4757153898
4757159086
4757165800
4757171537
4757178190
4757183683
4757188993
4757199308
4757206571
4757211515
4757216703
4757225797
4757231229
4757238920
4757244413
4757251432
4757256864
4757264066
4757269803
4757274137
4757281522
4757284330
4757294339
4757299161
4757305692
4757311124
4757316556
4757320035
4757329251
4757333219
4757340604
4757346280
4757353299
4757360013
4757364652
4757371671
4757378079
4757384915
4757389859
4757395963
4757401822
4757406400
4757412015
4757419400
4757423978
4757430508
4757435635
4757441190
4757448025
4757452847
4757458585
4757464139
4757470181
4757474209
4757484830
4757491177
4757496792
4757502896
4757511441
4757516690
4757524197
4757532315
4757537625
4757543545
4757548611
4757553372
4757559231
4757566067
4757571499
4757576382
4757583279
4757588345
4757594876
4757600064
4757605740
4757611050
4757617581
4757622158
4757627041
4757634671
4757638394
4757645046
4757650112
4757656765
4757661526
4757668057
4757673794
4757679592
4757686367
4757693142
4757698879
4757706448
4757712551
4757717861
4757723171
4757728298
4757734341
4757739529
4757745754
4757751247
4757756496
4757761684
4757767239
4757773464
4757779568
4757784878
4757790371
4757797329
4757802273
4757811062
4757815639
4757822353
4757828457
4757834743
4757840725
4757846096
4757851528
4757859829
4757865139
4757872158
4757877163
4757884365
4757890102
4757896633
4757903225
4757907314
4757915554
4757921840
4757927761
4757933925
4757939723
4757944728
4757953578
4757959926
4757965602
4757971645
4757976894
4757982814
4757988368
4757994594
4758001003
4758006984
4758012477
4758017421
4758024440
4758030116
4758035976
4758041408
4758048061
4758053798
4758059596
4758064540
4758070521
4758073573
4758081264
4758088466
4758095485
4758101893
4758109584
4758113856
4758126063
4758131312
4758138148
4758145167
4758152064
4758157252
4758162928
4758168971
4758173243
4758179286
4758184840
4758190089
4758195887
4758201686
4758207728
4758212977
4758220179
4758226405
4758232203
4758237696
4758245997
4758249964
4758255763
4758263026
4758268885
4758274317
4758281031
4758286707
4758292689
4758298243
4758303797
4758310206
4758316309
4758321619
4758327235
4758331812
4758337489
4758343653
4758348475
4758355799
4758362147
4758368983
4758374964
4758380396
4758385950
4758390528
4758397425
4758403223
4758408167
4758413782
4758420923
4758426478
4758432581
4758440333
4758446924
4758452723
4758462366
4758469080
4758475977
4758484278
4758492945
4758500391
4758509546
4758514856
4758527490
4758534387
4758544336
4758551721
4758559717
4758567652
4758575342
4758581995
4758589319
4758597070
4758605310
4758614954
4758620935
4758629846
4758636560
4758643823
4758651880
4758660242
4758666711
4758676660
4758685632
4758694787
4758699609
4758708398
4758716577
4758723474
4758732629
4758737329
4758748681
4758753930
4758763086
4758772790
4758778955
4758788842
4758800012
4758807946
4758816247
4758826684
4758836694
4758846337
4758855309
4758861779
4758871057
4758879235
4758887536
4758894372
4758901391
4758910729
4758917565
4758924401
4758931359
4758939049
4758946313
4758952111
4758958276
4758970483
4758977990
4758987206
4758994347
4759002587
4759011254
4759017174
4759024498
4759029686
4759036339
4759042138
4759048607
4759053124
4759058129
4759063683
4759070336
4759076195
4759083336
4759089196
4759093651
4759100243
4759104760
4759109886
4759116539
4759121178
4759127953
4759135277
4759139916
4759145775
4759150963
4759156517
4759162865
4759168663
4759175438
4759181603
4759187401
4759193993
4759198387
4759205345
4759210167
4759217796
4759223778
4759234215
4759238914
4759243736
4759247520
4759253929
4759260094
4759267052
4759273155
4759278587
4759283165
4759288292
4759294029
4759299583
4759304588
4759312767
4759319237
4759324913
4759330162
4759335838
4759341575
4759347313
4759353538
4759359764
4759365257
4759374839
4759381248
4759392601
4759397239
4759404075
4759412437
4759416587
4759424827
4759430198
4759435935
4759440330
4759446983
4759451377
4759456443
4759464744
4759469138
4759477928
4759484092
4759490379
4759497581
4759504783
4759510215
4759518394
4759527549
4759534202
4759539024
4759543418
4759549338
4759553855
4759558982
4759563865
4759568931
4759572776
4759578086
4759583884
4759588035
4759594382
4759599692
4759604514
4759609397
4759614036
4759617637
4759625693
4759630088
4759636374
4759639731
4759645713
4759651511
4759657920
4759663291
4759669699
4759675498
4759679587
4759685019
4759690757
4759694419
4759700156
4759704856
4759712607
4759719565
4759723899
4759728293
4759734030
4759738120
4759744284
4759750632
4759754660
4759762412
4759766623
4759773581
4759778586
4759783896
4759788413
4759794821
4759801901
4759807394
4759812216
4759817892
4759822287
4759828818
4759833151
4759837973
4759844443
4759851279
4759856161
4759862692
4759867087
4759872153
4759878500
4759883505
4759890280
4759895834
4759902426
4759906820
4759913168
4759919638
4759924338
4759930319
4759936789
4759942953
4759947775
4759953817
4759958822
4759964193
4759970480
4759975607
4759980917
4759989645
4759999777
4760008932
4760017416
4760025411
4760033529
4760040853
4760047384
4760055807
4760065084
4760072897
4760078878
4760084982
4760090048
4760095174
4760100240
4760106344
4760111166
4760115987
4760121175
4760125326
4760130697
4760134420
4760139974
4760144491
4760148763
4760156026
4760160421
4760165304
4760171651
4760176595
4760182699
4760189107
4760193014
4760198934
4760204488
4760208700
4760214010
4760218709
4760223775
4760229818
4760236104
4760240133
4760246358
4760252401
4760258321
4760264058
4760268453
4760275533
4760281148
4760287740
4760293904
4760299947
4760305623
4760311177
4760317464
4760322652
4760329732
4760334981
4760341695
4760347798
4760352498
4760358052
4760364827
4760370137
4760375264
4760382039
4760388631
4760393025
4760400288
4760406514
4760414082
4760418660
4760425557
4760430806
4760435689
4760441121
4760446736
4760452840
4760460530
4760465169
4760471882
4760477864
4760483601
4760489461
4760494893
4760502949
4760510335
4760515584
4760520772
4760527668
4760532307
4760539143
4760545308
4760551716
4760557759
4760565083
4760570820
4760578755
4760582661
4760592182
4760598469
4760604573
4760609333
4760615742
4760622944
4760628559
4760633808
4760641072
4760644612
4760652912
4760657856
4760664631
4760669697
4760675373
4760681110
4760686848
4760692829
4760700153
4760705036
4760712482
4760718342
4760723591
4760728779
4760736286
4760740925
4760746052
4760751301
4760757954
4760764179
4760771320
4760777607
4760782978
4760789264
4760795124
4760801349
4760808124
4760814777
4760820331
4760826130
4760831134
4760837238
4760843403
4760849323
4760854633
4760860248
4760865497
4760871234
4760877094
4760882038
4760886676
4760894855
4760901508
4760908832
4760914630
4760921039
4760926959
4760934040
4760940082
4760946857
4760952472
4760959247
4760964801
4760972614
4760978107
4760985370
4760990741
4760998798
4761003986
4761009906
4761016071
4761023029
4761029071
4761035907
4761042621
4761046039
4761053485
4761060138
4761064776
4761070758
4761079059
4761084796
4761091449
4761096576
4761102496
4761108050
4761113971
4761120135
4761128863
4761134051
4761139422
4761145404
4761152240
4761158587
4761164202
4761171405
4761178668
4761185626
4761193438
4761198748
4761207598
4761213763
4761219927
4761225054
4761232745
4761238787
4761243365
4761248553
4761255145
4761259783
4761266619
4761272112
4761278277
4761285662
4761291888
4761297137
4761302386
4761307330
4761313006
4761321123
4761326739
4761331072
4761337054
4761344500
4761349688
4761353838
4761361040
4761368181
4761373675
4761379534
4761384661
4761390032
4761395159
4761401507
4761407244
4761413286
4761421831
4761427935
4761434038
4761439592
4761445635
4761452471
4761458696
4761466692
4761472856
4761476824
4761486895
4761491594
4761498430
4761503191
4761509966
4761516863
4761524553
4761529863
4761535967
4761542925
4761548235
4761553789
4761559953
4761565569
4761571123
4761580034
4761584856
4761592485
4761598344
4761603838
4761608659
4761614763
4761620561
4761629045
4761635088
4761641069
4761647050
4761651567
4761658464
4761664873
4761669816
4761678911
4761685380
4761689958
4761696184
4761704179
4761709733
4761715593
4761723283
4761728715
4761736894
4761742265
4761748124
4761755082
4761761064
4761768083
4761773942
4761779985
4761786576
4761793107
4761801530
4761807084
4761816728
4761823197
4761827897
4761836381
4761843034
4761849687
4761857560
4761863847
4761870194
4761876176
4761884477
4761890153
4761895768
4761901017
4761907365
4761912370
4761918656
4761925797
4761931718
4761935746
4761944108
4761949906
4761955887
4761961869
4761968461
4761974991
4761980973
4761986588
4761993363
4761998307
4762003312
4762010209
4762015580
4762022782
4762027237
4762033280
4762039689
4762046585
4762051773
4762058609
4762065323
4762069901
4762074723
4762082779
4762087479
4762094193
4762099076
4762105362
4762110672
4762116837
4762122452
4762128067
4762134171
4762141556
4762147171
4762155167
4762160111
4762165299
4762172562
4762179398
4762186661
4762192459
4762198868
4762208755
4762215347
4762221390
4762227737
4762233231
4762240066
4762246536
4762252579
4762259598
4762266311
4762271499
4762276871
4762283279
4762289505
4762294693
4762301468
4762307876
4762313003
4762318252
4762323501
4762329910
4762335159
4762342117
4762345779
4762356399
4762360672
4762368423
4762374038
4762380386
4762384536
4762391067
4762396133
4762400466
4762408889
4762414871
4762420608
4762426162
4762431777
4762438491
4762445632
4762449355
4762461929
4762467422
4762474075
4762479629
4762486282
4762489394
4762497878
4762504836
4762511245
4762516860
4762524978
4762530227
4762535293
4762542007
4762545974
4762553298
4762560073
4762565383
4762570754
4762576430
4762580459
4762586928
4762593276
4762599135
4762602553
4762612441
4762615676
4762622390
4762627089
4762634597
4762639602
4762644851
4762652053
4762658644
4762663710
4762668410
4762675063
4762681349
4762687026
4762692214
4762698744
4762704726
4762709242
4762713820
4762720656
4762725844
4762734023
4762738478
4762746352
4762751540
4762758009
4762763381
4762768813
4762776869
4762782057
4762787978
4762793837
4762800795
4762807753
4762812453
4762819105
4762825026
4762828505
4762836500
4762841994
4762848646
4762855055
4762861525
4762868849
4762874159
4762880202
4762887282
4762893812
4762898512
4762906263
4762911574
4762919203
4762926039
4762929945
4762936903
4762943983
4762949293
4762954786
4762960279
4762967482
4762973646
4762977613
4762985365
4762990065
4762996107
4763001356
4763008070
4763015272
4763021253
4763027540
4763033766
4763039198
4763043897
4763050977
4763056532
4763062574
4763068189
4763073927
4763078626
4763084791
4763090772
4763098707
4763105604
4763110670
4763118543
4763126661
4763133680
4763139844
4763146802
4763152784
4763158155
4763163953
4763169752
4763176649
4763181470
4763187024
4763192212
4763199292
4763203931
4763209058
4763214734
4763221021
4763228711
4763234876
4763240857
4763245740
4763251477
4763257215
4763263135
4763268750
4763275586
4763281201
4763285596
4763290052
4763298047
4763303235
4763308362
4763314832
4763320752
4763328382
4763332776
4763340283
4763345899
4763351514
4763356702
4763363294
4763369214
4763375867
4763381665
4763388562
4763391736
4763399854
4763404553
4763409863
4763416882
4763422436
4763427747
4763433362
4763439587
4763444836
4763450940
4763456372
4763460705
4763468274
4763473279
4763479809
4763485364
4763491528
4763498059
4763503308
4763510022
4763514660
4763519360
4763525647
4763531079
4763537121
4763542370
4763547985
4763554150
4763559094
4763564770
4763571972
4763577221
4763583752
4763588269
4763593823
4763601574
4763606335
4763611462
4763617016
4763624645
4763628735
4763634960
4763640637
4763647411
4763652905
4763658764
4763664196
4763672131
4763677746
4763683300
4763687023
4763695629
4763701183
4763707165
4763714672
4763723827
4763733532
4763743908
4763752209
4763758861
4763769054
4763779857
4763788402
4763801159
4763811168
4763818248
4763826427
4763833324
4763835460
4763848583
4763853038
4763861156
4763869152
4763879283
4763884532
4763892650
4763898937
4763905895
4763915172
4763923046
4763929454
4763935680
4763944103
4763951549
4763958751
4763965587
4763975719
4763983714
4763991466
4763996532
4764003734
4764013072
4764021373
4764028148
4764036693
4764045848
4764053294
4764058909
4764067943
4764078074
4764085093
4764092662
4764099864
4764107921
4764114573
4764124705
4764129222
4764140513
4764147471
4764156077
4764164012
4764170542
4764180308
4764185069
4764192759
4764203135
4764211192
4764216746
4764225108
4764231211
4764237986
4764246775
4764254344
4764259959
4764269541
4764276438
4764282053
4764292612
4764299693
4764307566
4764314402
4764323618
4764332835
4764339793
4764348093
4764355601
4764364023
4764370859
4764379893
4764387278
4764395456
4764402292
4764410715
4764418589
4764425364
4764431833
4764438364
4764447641
4764454233
4764460276
4764469065
4764475901
4764484995
4764492075
4764497141
4764507700
4764513559
4764522226
4764530222
4764540659
4764546213
4764556223
4764565317
4764571481
4764581735
4764589670
4764595712
4764605905
4764613534
4764623422
4764628366
4764637887
4764647592
4764653879
4764666330
4764674875
4764680795
4764693002
4764700143
4764708871
4764717660
4764728646
4764737313
4764744394
4764751352
4764759774
4764767404
4764773812
4764781259
4764788278
4764794869
4764798776
4764806710
4764811776
4764819650
4764824838
4764832711
4764837655
4764843392
4764850533
4764856637
4764862801
4764867562
4764873666
4764879098
4764887765
4764893197
4764899239
4764904977
4764911568
4764917062
4764923531
4764926766
4764933907
4764938302
4764946236
4764951058
4764957772
4764965340
4764970894
4764976327
4764981576
4764988656
4764991463
4765002083
4765007515
4765014107
4765017403
4765025216
4765030220
4765037056
4765043953
4765048897
4765056160
4765060433
4765067940
4765073921
4765080086
4765086800
4765092903
4765098641
4765109627
4765118172
4765126473
4765136055
4765144051
4765153877
4765161751
4765169441
4765178169
4765187813
4765198738
4765211067
4765219429
4765230293
4765237556
4765245613
4765251839
4765259834
4765266914
4765277595
4765284919
4765291816
4765298774
4765305549
4765312385
4765319160
4765325630
4765332466
4765340217
4765347175
4765354927
4765361702
4765368782
4765376655
4765383308
4765390754
4765399482
4765411018
4765420051
4765429023
4765437751
4765445503
4765454902
4765464301
4765474555
4765481147
4765487861
4765496223
4765504890
4765511054
4765521430
4765527961
4765537055
4765542853
4765554267
4765559943
4765566474
4765578437
4765585578
4765592597
4765599250
4765607917
4765614447
4765623298
4765630256
4765638373
4765646308
4765653937
4765662421
4765667975
4765676154
4765684394
4765693915
4765700568
4765709296
4765714850
4765723944
4765732489
4765740363
4765750067
4765757819
4765766486
4765776801
4765784003
4765793707
4765800543
4765810370
4765822455
4765829230
4765838507
4765849127
4765857611
4765864386
4765873419
4765883856
4765892645
4765901556
4765909674
4765918707
4765926458
4765934393
4765942083
4765950628
4765958258
4765966375
4765976263
4765988226
4765995489
4766002874
4766010259
4766017767
4766025823
4766033270
4766040472
4766047674
4766054693
4766062811
4766069524
4766078069
4766084600
4766092351
4766099554
4766106939
4766114141
4766121648
4766129217
4766137273
4766141546
4766152166
4766162664
4766172185
4766181890
4766192022
4766200567
4766209295
4766219182
4766227605
4766237554
4766246404
4766253423
4766261724
4766271611
4766279363
4766287175
4766295293
4766305242
4766311711
4766320378
4766327397
4766336308
4766343572
4766351933
4766359929
4766366399
4766376958
4766383000
4766391179
4766399419
4766407170
4766416264
4766423955
4766431889
4766439458
4766446477
4766454106
4766462163
4766469365
4766477543
4766485966
4766490910
4766495976
4766502140
4766506535
4766511235
4766517277
4766522465
4766527836
4766533451
4766538273
4766543827
4766547795
4766553776
4766559086
4766562809
4766568852
4766574162
4766579228
4766584965
4766590458
4766595524
4766601322
4766607914
4766614079
4766619511
4766624943
4766629276
4766634709
4766640568
4766647221
4766652775
4766658573
4766661991
4766667362
4766671452
4766678287
4766684269
4766692753
4766699161
4766707462
4766712345
4766718754
4766724552
4766730228
4766735233
4766741642
4766746342
4766751102
4766756046
4766761600
4766766117
4766771549
4766777042
4766783329
4766788517
4766794803
4766801761
4766806522
4766812748
4766819645
4766825199
4766832035
4766836673
4766845951
4766851688
4766856815
4766863956
4766868045
4766872928
4766879520
4766885196
4766889102
4766895938
4766900028
4766905338
4766909244
4766915714
4766919925
4766928836
4766935123
4766940372
4766945865
4766950626
4766956851
4766961490
4766965701
4766970828
4766976810
4766982059
4766986941
4766993228
4766997317
4767003787
4767009647
4767015994
4767021609
4767025455
4767031497
4767036441
4767040835
4767046145
4767051272
4767059512
4767064700
4767069522
4767075320
4767080264
4767084781
4767090152
4767094546
4767102969
4767107180
4767113467
4767117434
4767123233
4767128482
4767133914
4767138247
4767143252
4767149966
4767156985
4767161135
4767167300
4767171633
4767177127
4767183474
4767189150
4767195376
4767200137
4767205508
4767211184
4767216250
4767221560
4767228823
4767234316
4767241335
4767246706
4767253115
4767258974
4767263857
4767268374
4767275820
4767281191
4767287295
4767293703
4767298403
4767304507
4767310000
4767312990
4767319277
4767326113
4767334536
4767340517
4767346560
4767351504
4767357729
4767365481
4767371279
4767377443
4767385683
4767390139
4767398256
4767402285
4767409792
4767416750
4767421694
4767427675
4767434633
4767438784
4767444399
4767450624
4767454897
4767461977
4767467104
4767473513
4767478090
4767484682
4767489137
4767495790
4767501344
4767506410
4767511965
4767517702
4767523866
4767529726
4767535158
4767541444
4767546266
4767551820
4767558351
4767564516
4767570253
4767575624
4767580202
4767586183
4767590578
4767597353
4767604127
4767607606
4767615358
4767620485
4767626955
4767633058
4767639284
4767643678
4767650026
4767654909
4767661744
4767668763
4767674379
4767681154
4767686830
4767691774
4767696901
4767702272
4767708314
4767713807
4767719423
4767725648
4767731752
4767738710
4767744386
4767747316
4767754212
4767758607
4767766419
4767773194
4767778993
4767783937
4767790040
4767794557
4767800660
4767805055
4767810487
4767817628
4767824037
4767828492
4767834290
4767839600
4767846314
4767851991
4767858460
4767864259
4767870545
4767875733
4767882203
4767886414
4767892640
4767899598
4767905091
4767910279
4767917115
4767922730
