4992647680
4992653722
4992659337
4992664892
4992672094
4992676549
4992682226
4992688146
4992693761
4992699193
4992703710
4992710057
4992714452
4992720494
4992725988
4992731115
4992736180
4992739843
4992746678
4992751500
4992757360
4992763280
4992769994
4992775731
4992782506
4992789342
4992796056
4992804173
4992810582
4992817662
4992823277
4992831395
4992839024
4992847020
4992853917
4992861424
4992868138
4992874791
4992880528
4992889622
4992893590
4992902196
4992909276
4992915990
4992924534
4992930028
4992939366
4992944859
4992951878
4992958653
4992965489
4992971959
4992980320
4992988743
4992995518
4993002598
4993009068
4993015110
4993023899
4993031224
4993041111
4993046299
4993056065
4993062840
4993070225
4993078160
4993086460
4993095677
4993103367
4993110935
4993118260
4993125279
4993133030
4993140720
4993150059
4993156834
4993163670
4993168736
4993178318
4993186375
4993192600
4993200230
4993209202
4993216465
4993222935
4993230991
4993237522
4993247715
4993255222
4993263340
4993270237
4993275791
4993284275
4993290317
4993299045
4993305759
4993315036
4993322727
4993328220
4993335544
4993342502
4993350315
4993360019
4993366367
4993374118
4993384555
4993393283
4993397922
4993409213
4993417148
4993425510
4993433566
4993439975
4993447665
4993456271
4993464145
4993470981
4993480991
4993488681
4993496616
4993504184
4993510715
4993517490
4993525119
4993535373
4993543735
4993550448
4993559298
4993566318
4993573275
4993580417
4993588168
4993595370
4993603793
4993612033
4993619357
4993625949
4993630282
4993640841
4993647616
4993654818
4993663058
4993669223
4993676730
4993685519
4993692172
4993698580
4993707614
4993714022
4993722262
4993730258
4993738192
4993745516
4993754366
4993761630
4993769808
4993775973
4993784396
4993792086
4993800387
4993807284
4993815951
4993823153
4993831942
4993838534
4993847140
4993852511
4993863436
4993871248
4993878878
4993886751
4993893038
4993901827
4993909029
4993917147
4993927034
4993933626
4993941011
4993949434
4993960420
4993969698
4993979158
4993988741
4993997103
4994005342
4994013948
4994021394
4994027986
4994038301
4994046785
4994055269
4994061678
4994069490
4994078279
4994085359
4994094209
4994104097
4994112703
4994123079
4994126314
4994139741
4994148469
4994156526
4994166414
4994174959
4994182222
4994191133
4994199556
4994207551
4994214204
4994223603
4994232453
4994239289
4994247834
4994255281
4994262605
4994272187
4994279939
4994287263
4994296235
4994302949
4994309297
4994319550
4994329377
4994337617
4994343781
4994352448
4994359040
4994367158
4994374116
4994381867
4994388764
4994397980
4994403168
4994413911
4994422089
4994429719
4994438508
4994445099
4994452912
4994460419
4994469147
4994476349
4994486237
4994494660
4994503876
4994510163
4994518769
4994527680
4994535187
4994542511
4994548737
4994559601
4994568695
4994576996
4994584931
4994592133
4994600128
4994607880
4994617951
4994625397
4994634552
4994642120
4994650421
4994659576
4994666290
4994676727
4994686005
4994694244
4994702423
4994709930
4994716522
4994723114
4994732330
4994739410
4994747162
4994755401
4994761749
4994770294
4994778656
4994784881
4994792511
4994800201
4994809845
4994816803
4994824310
4994833404
4994840301
4994849456
4994856781
4994864349
4994871795
4994879058
4994886932
4994894378
4994901946
4994910552
4994916961
4994925445
4994932342
4994939544
4994947540
4994955901
4994963897
4994972625
4994979766
4994987579
4994994964
4995002227
4995009551
4995016692
4995024993
4995031402
4995040130
4995048430
4995056487
4995063689
4995071502
4995080108
4995087737
4995094939
4995102263
4995110381
4995118804
4995127227
4995137236
4995145110
4995150237
4995156157
4995161772
4995169097
4995176665
4995181914
4995188384
4995194548
4995200774
4995205351
4995212554
4995217131
4995223418
4995229887
4995235869
4995242522
4995247954
4995252959
4995258452
4995264677
4995269194
4995275481
4995281279
4995286528
4995293730
4995299040
4995306303
4995312712
4995318815
4995325224
4995332731
4995336516
4995344328
4995350004
4995355864
4995359404
4995366789
4995372526
4995378996
4995383879
4995389738
4995394133
4995400541
4995404081
4995410673
4995416288
4995422697
4995429167
4995433683
4995439421
4995444303
4995449613
4995454069
4995461943
4995468901
4995480314
4995484831
4995494901
4995502653
4995510404
4995516203
4995522001
4995528776
4995535551
4995541349
4995547086
4995551786
4995559537
4995563322
4995571317
4995577421
4995582975
4995588224
4995592496
4995598905
4995603055
4995609769
4995614408
4995620817
4995627469
4995633390
4995638090
4995644254
4995648893
4995654874
4995659818
4995666837
4995670194
4995677091
4995683011
4995688565
4995693448
4995699674
4995705289
4995711515
4995719083
4995725675
4995730924
4995737943
4995744351
4995750272
4995756314
4995762418
4995767850
4995774381
4995778348
4995783963
4995789762
4995794888
4995799588
4995806180
4995810574
4995816678
4995821805
4995826627
4995831143
4995837430
4995843106
4995849637
4995854886
4995860196
4995864407
4995869839
4995875638
4995881436
4995888028
4995892667
4995898892
4995905057
4995909817
4995915311
4995919888
4995924405
4995931485
4995937283
4995942715
4995948758
4995955044
4995961026
4995967373
4995972561
4995979153
4995985440
4995995449
4996001065
4996006741
4996013638
4996019375
4996029934
4996034085
4996041348
4996048428
4996054226
4996059536
4996068936
4996072598
4996079006
4996085293
4996091335
4996097195
4996102627
4996108303
4996115017
4996120388
4996123806
4996131924
4996135098
4996142483
4996148525
4996155117
4996160793
4996166164
4996172939
4996177639
4996182827
4996190029
4996196133
4996200222
4996205776
4996213039
4996217434
4996223842
4996228847
4996236294
4996241054
4996246608
4996253933
4996259182
4996265041
4996270290
4996276760
4996283046
4996288356
4996292385
4996300014
4996303066
4996311550
4996317470
4996323452
4996329616
4996334804
4996340602
4996346401
4996353176
4996357936
4996363674
4996369960
4996376064
4996381496
4996386501
4996393092
4996397731
4996403896
4996410487
4996415736
4996422511
4996427089
4996433803
4996440028
4996444118
4996450282
4996455165
4996462123
4996468837
4996474147
4996480312
4996485133
4996490565
4996497523
4996502162
4996510646
4996520534
4996526027
4996535182
4996542567
4996551234
4996557887
4996566188
4996573146
4996577418
4996583888
4996588282
4996594752
4996599818
4996606715
4996613002
4996618861
4996623378
4996630824
4996636256
4996641627
4996645594
4996652491
4996658229
4996663966
4996669947
4996675562
4996680995
4996685694
4996691798
4996696925
4996703761
4996708643
4996715479
4996718775
4996726099
4996732020
4996735987
4996742274
4996746424
4996752039
4996758387
4996763880
4996769984
4996776697
4996781336
4996788172
4996792811
4996798853
4996803675
4996810206
4996814966
4996820521
4996825220
4996831202
4996838343
4996842676
4996849756
4996855738
4996860254
4996864710
4996870386
4996874903
4996881800
4996886805
4996894312
4996897852
4996905664
4996911402
4996917139
4996923365
4996929163
4996935327
4996941492
4996948206
4996952783
4996959009
4996963220
4996970545
4996975672
4996981470
4996988489
4996992761
4996997156
4997003931
4997008936
4997014307
4997019556
4997024927
4997029627
4997034753
4997041528
4997047021
4997055627
4997064600
4997069849
4997078638
4997083704
4997092187
4997099512
4997105371
4997110620
4997116235
4997121240
4997126428
4997132593
4997137170
4997143762
4997148279
4997154199
4997158654
4997163965
4997168542
4997175073
4997180200
4997186731
4997192346
4997197778
4997201989
4997207421
4997214196
4997218530
4997224572
4997228967
4997237329
4997241113
4997248742
4997252282
4997260339
4997265283
4997270532
4997275842
4997281213
4997286950
4997293481
4997299706
4997304284
4997312219
4997318566
4997323876
4997328393
4997333764
4997339562
4997345666
4997351098
4997357018
4997362695
4997368249
4997373193
4997378991
4997384606
4997389611
4997396447
4997401452
4997409203
4997412682
4997419701
4997425744
4997431664
4997436791
4997441979
4997447655
4997456322
4997463036
4997468285
4997475792
4997479943
4997487450
4997492699
4997498864
4997504113
4997510399
4997515831
4997521996
4997527794
4997533715
4997540612
4997546227
4997550743
4997558556
4997565392
4997571861
4997579430
4997586632
4997593102
4997600853
4997610863
4997618675
4997627586
4997635643
4997641197
4997648216
4997653160
4997659447
4997665062
4997671043
4997676964
4997683922
4997689232
4997697044
4997704429
4997709740
4997717003
4997722496
4997726219
4997733787
4997739647
4997744346
4997751671
4997755943
4997761863
4997769066
4997776451
4997781822
4997787254
4997792259
4997798423
4997804649
4997809104
4997816490
4997821861
4997826988
4997833213
4997839134
4997843772
4997849571
4997858421
4997864341
4997870750
4997876914
4997881431
4997887290
4997893577
4997898765
4997905113
4997911277
4997917747
4997922446
4997927329
4997932273
4997939353
4997947532
4997952903
4997959434
4997964927
4997972495
4997979270
4997984092
4997991111
4997997520
4998001914
4998006736
4998013083
4998020225
4998025657
4998031943
4998038108
4998044639
4998050803
4998055564
4998062949
4998068808
4998074241
4998077903
4998085288
4998091819
4998100547
4998106955
4998113120
4998120749
4998127219
4998132590
4998138205
4998145835
4998153281
4998159506
4998164450
4998170920
4998176291
4998181723
4998187460
4998194235
4998199973
4998205954
4998209860
4998217551
4998222128
4998228049
4998233603
4998239218
4998245566
4998250876
4998257040
4998262289
4998269125
4998276572
4998281027
4998289084
4998294455
4998299887
4998306174
4998311362
4998320578
4998327841
4998332663
4998340658
4998347006
4998355002
4998360861
4998367025
4998372152
4998379416
4998386679
4998392904
4998399130
4998405539
4998412191
4998417990
4998425558
4998430563
4998437094
4998444540
4998451803
4998456991
4998464010
4998469076
4998475607
4998481771
4998486715
4998493490
4998500753
4998505819
4998513143
4998519491
4998523885
4998532369
4998539327
4998543600
4998551534
4998557516
4998564230
4998570821
4998575948
4998583333
4998590658
4998598226
4998605550
4998611410
4998617147
4998626241
4998632955
4998639425
4998646566
4998653524
4998659200
4998666219
4998670552
4998678365
4998684468
4998690084
4998696248
4998701741
4998708577
4998714498
4998720845
4998726277
4998733052
4998738362
4998743978
4998750264
4998755940
4998762288
4998768331
4998773763
4998780354
4998786031
4998790914
4998798238
4998803914
4998809651
4998816060
4998821614
4998828084
4998832356
4998839497
4998845662
4998851521
4998858723
4998864644
4998868672
4998875630
4998882649
4998888631
4998895039
4998899983
4998906880
4998911641
4998919026
4998925068
4998931172
4998938374
4998943135
4998951191
4998955586
4998961140
4998968892
4998974141
4998980671
4998986103
4998992024
4998997944
4999004292
4999010640
4999017353
4999024311
4999029621
4999035664
4999041645
4999048847
4999055256
4999060810
4999067341
4999074177
4999080403
4999087360
4999092793
4999099567
4999106709
4999112324
4999122578
4999131855
4999140095
4999146015
4999154316
4999160419
4999166096
4999173359
4999179401
4999186542
4999192585
4999198139
4999204670
4999209553
4999216327
4999222797
4999228351
4999235370
4999240925
4999246357
4999252582
4999258197
4999264362
4999269123
4999276569
4999282245
4999287677
4999293354
4999299152
4999306415
4999310932
4999317401
4999322406
4999328205
4999335224
4999341266
4999346149
4999352436
4999359516
4999364215
4999371662
4999377948
4999384052
4999390216
4999397907
4999403339
4999408954
4999414813
4999421893
4999428851
4999434528
4999441119
4999447711
4999453693
4999459125
4999465350
4999472064
4999476825
4999485187
4999490619
4999496478
4999503985
4999509784
4999515521
4999522052
4999526446
4999534320
4999538897
4999546954
4999552203
4999557818
4999564410
4999570880
4999577411
4999583697
4999590106
4999597491
4999602069
4999609576
4999615985
4999622149
4999628619
4999634661
4999641070
4999646502
4999656512
4999664263
4999670367
4999678362
4999685259
4999692034
4999698260
4999704852
4999712542
4999719073
4999726092
4999729693
4999735857
4999742205
4999747881
4999752581
4999757647
4999763140
4999767535
4999776446
4999781756
4999787066
4999792498
4999797808
4999804033
4999810503
4999817278
4999821856
4999828753
4999834063
4999839861
4999844927
4999851336
4999857256
4999862505
4999868853
4999874651
4999879961
4999885576
4999890642
4999896624
4999903093
4999908220
4999914507
4999917681
4999925310
4999930254
4999935808
4999941850
4999947466
4999965532
4999971941
4999980058
4999985429
4999991411
4999997759
5000002153
5000008257
5000013200
5000020586
5000026384
5000031511
5000036882
5000042314
5000049150
5000053239
5000060564
5000065080
5000072099
5000077104
5000083085
5000089189
5000094560
5000100969
5000108110
5000113176
5000118852
5000124589
5000131059
5000136735
5000142167
5000148332
5000154619
5000160173
5000165422
5000170549
5000175676
5000182206
5000188981
5000196244
5000201738
5000206254
5000214433
5000218400
5000225785
5000231523
5000239945
5000246781
5000251176
5000257646
5000262589
5000268693
5000275041
5000281266
5000287187
5000292802
5000297807
5000303483
5000309098
5000315202
5000322831
5000326249
5000334733
5000340165
5000345963
5000353898
5000358842
5000365739
5000370988
5000378190
5000384659
5000390641
5000395890
5000401993
5000408341
5000415299
5000421280
5000426774
5000432328
5000435563
5000444535
5000450272
5000456315
5000462235
5000466385
5000473832
5000479142
5000485611
5000491043
5000496537
5000502823
5000509720
5000515702
5000521744
5000525345
5000532120
5000537247
5000542984
5000550003
5000555985
5000561417
5000567398
5000573319
5000577286
5000584549
5000589249
5000595169
5000602249
5000607864
5000612991
5000620804
5000627640
5000633621
5000639481
5000644485
5000650711
5000655411
5000663345
5000670792
5000676590
5000683182
5000689285
5000695572
5000701065
5000708267
5000712600
5000721023
5000727188
5000733780
5000739395
5000746780
5000753311
5000759475
5000768692
5000775344
5000781509
5000787796
5000795181
5000802200
5000808609
5000813980
5000819656
5000826370
5000832656
5000837234
5000844436
5000849258
5000856460
5000862441
5000868057
5000873794
5000879470
5000885146
5000891006
5000896560
5000902969
5000909682
5000915725
5000921645
5000926894
5000933730
5000938552
5000945571
5000950332
5000956618
5000963454
5000969436
5000972976
5000981338
5000987746
5000993728
5000999465
5001005324
5001011306
5001017470
5001023452
5001029982
5001037063
5001042067
5001051528
5001055922
5001062453
5001068557
5001074111
5001080153
5001086684
5001092910
5001100295
5001106215
5001112197
5001118361
5001125258
5001131056
5001136489
5001142409
5001148085
5001153761
5001159499
5001165236
5001172499
5001177626
5001184950
5001189650
5001195937
5001200636
5001207167
5001212660
5001219252
5001224928
5001231215
5001238112
5001243849
5001249220
5001255690
5001263441
5001269484
5001274855
5001280897
5001285963
5001290968
5001297743
5001305433
5001312575
5001318495
5001324476
5001330641
5001337233
5001341566
5001349318
5001356215
5001363478
5001371412
5001376234
5001383375
5001389112
5001394483
5001399183
5001406202
5001414076
5001423597
5001431593
5001437147
5001446974
5001454481
5001461195
5001470594
5001479444
5001488111
5001496168
5001508192
5001516615
5001524366
5001532606
5001539686
5001548841
5001556715
5001565687
5001574964
5001583814
5001592054
5001599988
5001610669
5001619886
5001629590
5001638379
5001645887
5001653638
5001662061
5001670057
5001677442
5001685437
5001692823
5001702039
5001709424
5001718152
5001725843
5001733411
5001740979
5001749402
5001757398
5001762464
5001772107
5001779797
5001788403
5001795483
5001803357
5001811353
5001819775
5001828198
5001834607
5001843457
5001850720
5001858105
5001867505
5001875989
5001884106
5001889783
5001898999
5001905163
5001913891
5001920605
5001929944
5001937573
5001944958
5001953991
5001959729
5001968762
5001974438
5001987500
5001995190
5002003002
5002011059
5002020581
5002028454
5002035290
5002043896
5002050854
5002060681
5002069714
5002077892
5002086071
5002095226
5002102795
5002112133
5002120556
5002128063
5002138195
5002143383
5002155163
5002160351
5002172558
5002179272
5002186901
5002197521
5002205822
5002214489
5002225780
5002237194
5002245067
5002253063
5002262096
5002269970
5002278820
5002288280
5002296581
5002307323
5002315135
5002323924
5002332775
5002341442
5002350780
5002358409
5002367442
5002376048
5002385265
5002393687
5002402599
5002411754
5002420299
5002429149
5002436351
5002445628
5002452708
5002463389
5002471751
5002480113
5002488841
5002497996
5002506480
5002515757
5002523936
5002534251
5002542735
5002550670
5002558970
5002567637
5002576243
5002584910
5002593699
5002602061
5002610240
5002620738
5002629710
5002638255
5002645030
5002656321
5002663584
5002673838
5002679087
5002690257
5002699229
5002707529
5002716135
5002724924
5002735117
5002743601
5002750071
5002759775
5002767283
5002775828
5002782114
5002786936
5002794748
5002799936
5002805735
5002811228
5002816782
5002823252
5002829050
5002835459
5002841929
5002849070
5002854197
5002860361
5002867014
5002872385
5002876474
5002884348
5002889902
5002895151
5002901071
5002906809
5002912180
5002917795
5002924387
5002929087
5002936044
5002941294
5002946909
5002952707
5002958444
5002964243
5002969370
5002974985
5002980722
5002986276
5002992014
5002997751
5003002084
5003008310
5003012949
5003019785
5003024728
5003031137
5003036508
5003042001
5003048959
5003054513
5003060312
5003066232
5003072275
5003077218
5003083383
5003087716
5003094064
5003098520
5003105111
5003110055
5003116037
5003122018
5003127267
5003134530
5003139047
5003145089
5003150705
5003155954
5003161691
5003166818
5003171395
5003178414
5003182748
5003189096
5003194955
5003200204
5003205575
5003210824
5003216500
5003221871
5003228097
5003232553
5003240426
5003245065
5003251473
5003256234
5003263436
5003268990
5003274178
5003278878
5003285958
5003290658
5003296090
5003302254
5003308358
5003313851
5003319711
5003326241
5003331063
5003337167
5003342416
5003349984
5003355172
5003361519
5003365304
5003371529
5003377450
5003385323
5003391366
5003395699
5003401192
5003407052
5003412606
5003417061
5003423165
5003427681
5003436104
5003439949
5003446541
5003453072
5003458748
5003463631
5003469307
5003476204
5003481636
5003487801
5003493294
5003498665
5003502266
5003509468
5003514473
5003520210
5003526070
5003531929
5003537422
5003543526
5003549324
5003553841
5003561592
5003566841
5003572517
5003578377
5003583992
5003589241
5003594490
5003600838
5003606453
5003612434
5003619209
5003624580
5003629524
5003636848
5003642464
5003648567
5003654549
5003660225
5003666145
5003670967
5003677131
5003682991
5003689033
5003693855
5003700935
5003707527
5003712959
5003718757
5003724434
5003731514
5003737434
5003742561
5003748664
5003754768
5003759651
5003765449
5003771980
5003777900
5003783699
5003789009
5003795417
5003801643
5003806648
5003814277
5003820686
5003826484
5003832282
5003837776
5003842964
5003848518
5003853950
5003860664
5003867378
5003872566
5003877509
5003885566
5003888984
5003895942
5003902839
5003909064
5003915961
5003920722
5003927741
5003933539
5003938422
5003942817
5003951362
5003954963
5003962287
5003967353
5003973884
5003978644
5003984382
5003991340
5003997077
5004002021
5004008124
5004013556
5004020148
5004025824
5004032233
5004038031
5004043891
5004049384
5004054877
5004060431
5004065680
5004071295
5004077399
5004084113
5004089911
5004094916
5004102179
5004107916
5004113654
5004120490
5004126349
5004132208
5004138922
5004144782
5004149909
5004154486
5004160956
5004166754
5004172919
5004178229
5004184210
5004189948
5004195502
5004201605
5004208624
5004213873
5004220221
5004223395
5004231512
5004236761
5004242438
5004250006
5004255987
5004261847
5004267950
5004273810
5004278387
5004285101
5004291327
5004297308
5004303412
5004308722
5004314764
5004320929
5004325934
5004331732
5004338507
5004345282
5004349920
5004354254
5004360968
5004366400
5004372686
5004379461
5004385137
5004391546
5004397467
5004402349
5004408453
5004414923
5004419622
5004427984
5004431524
5004439398
5004444647
5004449896
5004456060
5004460516
5004467962
5004474371
5004479498
5004484319
5004491949
5004497747
5004503240
5004509649
5004515997
5004521551
5004526739
5004533453
5004538030
5004544134
5004548467
5004556402
5004561712
5004567876
5004572881
5004578191
5004584539
5004590093
5004595708
5004601201
5004607671
5004613530
5004618840
5004625432
5004630681
5004635747
5004643743
5004648442
5004654058
5004661077
5004666936
5004672124
5004676030
5004683477
5004688237
5004694036
5004700749
5004706731
5004712773
5004718083
5004722112
5004729680
5004736333
5004741948
5004747075
5004752568
5004757390
5004762944
5004769536
5004774724
5004780461
5004786076
5004791386
5004796758
5004802373
5004810246
5004816167
5004821965
5004826970
5004834050
5004839116
5004844548
5004850773
5004856572
5004862736
5004867863
5004873234
5004879033
5004884404
5004891484
5004898320
5004903813
5004909367
5004915043
5004921696
5004928410
5004932805
5004940861
5004947453
5004954960
5004960392
5004966862
5004973088
5004978398
5004984257
5004990238
5004996464
5005002568
5005008122
5005012760
5005019169
5005024174
5005031986
5005037968
5005043522
5005049015
5005054325
5005060673
5005064945
5005071659
5005077580
5005083805
5005088688
5005095646
5005100834
5005106022
5005111332
5005119511
5005124882
5005130131
5005135441
5005140690
5005147220
5005151615
5005159611
5005165043
5005170902
5005176517
5005181766
5005187320
5005193058
5005198551
5005205814
5005210697
5005216556
5005222477
5005227420
5005233524
5005240238
5005245670
5005252140
5005257816
5005263614
5005268924
5005273929
5005279117
5005286685
5005292057
5005297245
5005302005
5005306766
5005310489
5005314701
5005320987
5005325321
5005330509
5005335086
5005338016
5005343753
5005347232
5005352603
5005357303
5005361209
5005365787
5005370303
5005375003
5005378726
5005385928
5005390933
5005395389
5005399356
5005402652
5005408389
5005411258
5005417300
5005422610
5005427005
5005431705
5005436404
5005442752
5005447635
5005453433
5005458987
5005463443
5005468936
5005472842
5005479617
5005484500
5005490420
5005497928
5005505557
5005508792
5005515872
5005521731
5005526248
5005532412
5005536258
5005541873
5005546389
5005554263
5005558657
5005563540
5005568423
5005575076
5005580386
5005585513
5005590396
5005595584
5005600833
5005609561
5005614138
5005618533
5005625430
5005630129
5005635195
5005640749
5005645998
5005652407
5005656863
5005662112
5005666811
5005670779
5005675662
5005680666
5005685732
5005690859
5005695620
5005700869
5005705691
5005709780
5005715151
5005718813
5005724917
5005727785
5005733462
5005737795
5005743899
5005748598
5005753237
5005755923
5005762636
5005768618
5005772158
5005777163
5005781984
5005786562
5005789919
5005795595
5005799807
5005805300
5005810183
5005814455
5005819155
5005823793
5005829103
5005833986
5005839296
5005843935
5005848146
5005852846
5005858095
5005863039
5005869570
5005874330
5005878786
5005883242
5005888185
5005893373
5005900148
5005904421
5005910707
5005917970
5005923830
5005929933
5005935549
5005938234
5005945680
5005951357
5005957765
5005963258
5005969179
5005972780
5005977358
5005984071
5005989687
5005993349
5005997194
5006002748
5006007021
5006011964
5006014528
5006021608
5006024843
5006032045
5006037416
5006042665
5006046205
5006051027
5006056825
5006062074
5006067079
5006072023
5006077211
5006082094
5006086671
5006091798
5006093446
5006102174
5006108094
5006112062
5006117982
5006123231
5006127992
5006131654
5006138063
5006142457
5006148256
5006154603
5006160218
5006164552
5006171388
5006177857
5006184449
5006189210
5006195558
5006199586
5006205750
5006209779
5006215455
5006221131
5006227296
5006233766
5006238526
5006242616
5006248231
5006253541
5006258668
5006264405
5006270264
5006276307
5006282288
5006286866
5006293275
5006298707
5006303651
5006308106
5006311463
5006319764
5006325989
5006332215
5006337830
5006344483
5006349732
5006353821
5006361085
5006366700
5006372681
5006377808
5006384644
5006387574
5006394043
5006397095
5006405030
5006412537
5006416871
5006422486
5006428955
5006431580
5006442322
5006446106
5006456482
5006463318
5006467530
5006473267
5006478577
5006484619
5006489868
5006497437
5006503479
5006509155
5006514404
5006518616
5006524475
5006529724
5006533936
5006540650
5006546814
5006551148
5006555237
5006560974
5006566711
5006571594
5006575562
5006582336
5006588379
5006593750
5006597717
5006603577
5006607849
5006613159
5006618774
5006624817
5006630676
5006636230
5006641968
5006647339
5006652771
5006657654
5006662903
5006668030
5006674072
5006679504
5006685486
5006691040
5006697265
5006702697
5006709228
5006716858
5006721679
5006727661
5006732910
5006737426
5006743225
5006749633
5006754638
5006757934
5006767395
5006773498
5006778625
5006785156
5006789550
5006795104
5006801513
5006805541
5006815795
5006819763
5006827697
5006831298
5006838500
5006843566
5006848510
5006855468
5006862243
5006867858
5006873351
5006877868
5006884155
5006888366
5006894591
5006899413
5006906798
5006913390
5006918883
5006925292
5006931090
5006936828
5006942931
5006950927
5006957030
5006962157
5006969420
5006975951
5006982055
5006987487
5006995788
5007001220
5007009459
5007015807
5007022582
5007029784
5007036498
5007043578
5007049681
5007053099
5007062194
5007065856
5007076171
5007080992
5007088439
5007094481
5007100096
5007104918
5007111998
5007117308
5007123473
5007128417
5007134581
5007139403
5007145445
5007149901
5007158385
5007163145
5007168089
5007172667
5007178893
5007183287
5007188292
5007194884
5007201475
5007206541
5007212035
5007217039
5007223326
5007228270
5007233214
5007237425
5007244078
5007249937
5007254881
5007259031
5007264525
5007269957
5007275328
5007281675
5007286497
5007292357
5007299009
5007305357
5007312254
5007316649
5007323240
5007328245
5007331602
5007341551
5007348204
5007352903
5007359068
5007364683
5007370237
5007375364
5007380735
5007388365
5007394041
5007400633
5007405332
5007410398
5007415220
5007423033
5007427366
5007434019
5007438535
5007445005
5007450681
5007456358
5007461729
5007463804
5007472898
5007476316
5007485227
5007488889
5007496336
5007499876
5007507383
5007513364
5007517393
5007522336
5007529294
5007534849
5007541196
5007546750
5007552915
5007557798
5007564023
5007569089
5007574766
5007580808
5007587461
5007591733
5007598874
5007605954
5007612119
5007618833
5007624875
5007632444
5007640195
5007644712
5007650327
5007654416
5007659909
5007668210
5007676633
5007682859
5007688840
5007694516
5007699094
5007704770
5007709104
5007713071
5007721311
5007725644
5007732175
5007737058
5007742673
5007747250
5007754208
5007758298
5007764706
5007770688
5007776913
5007781003
5007786801
5007792233
5007797238
5007803647
5007809201
5007814511
5007820309
5007824643
5007830258
5007836056
5007841794
5007846310
5007852414
5007857358
5007860653
5007870419
5007876400
5007880978
5007887448
5007892086
5007899716
5007904965
5007910885
5007915646
5007922482
5007928402
5007932125
5007940365
5007942562
5007951779
5007956051
5007962643
5007967831
5007973751
5007979855
5007985043
5007989620
5007997311
5008002682
5008008053
5008013973
5008019406
5008025204
5008030209
5008036373
5008043087
5008049069
5008053036
5008060177
5008066647
5008072994
5008078182
5008083614
5008089046
5008097408
5008103084
5008108883
5008115475
5008120418
5008125790
5008129513
5008137020
5008141414
5008150631
5008154598
5008161861
5008168636
5008176693
5008180477
5008187923
5008193599
5008200496
5008210201
5008216488
5008222103
5008227108
5008234066
5008240963
5008243953
5008252437
5008255794
5008264095
5008271968
5008276119
5008280086
5008288448
5008294429
5008298580
5008304805
5008310665
5008315852
5008321040
5008326045
5008331355
5008333064
5008343318
5008348933
5008354976
5008360591
5008364497
5008367915
5008376277
5008379634
5008389888
5008395198
5008399715
5008402949
5008411128
5008414119
5008421321
5008424556
5008432429
5008436152
5008443294
5008446773
5008455195
5008460872
5008465938
5008470820
5008477229
5008483394
5008490107
5008496150
5008503352
5008509517
5008514399
5008519465
5008525996
5008532649
5008537959
5008544001
5008549617
5008555110
5008562312
5008566950
5008573847
5008581477
5008587580
5008593867
5008599665
5008604609
5008608210
5008615534
5008621638
5008627558
5008632746
5008639216
5008645808
5008651850
5008656550
5008662043
5008667475
5008676142
5008680720
5008686640
5008692255
5008695734
5008704706
5008708491
5008714777
5008724238
5008730158
5008735346
5008742426
5008748285
5008754511
5008760676
5008767450
5008771967
5008779291
5008784418
5008792780
5008797113
5008805780
5008810175
5008817621
5008823969
5008832758
5008836969
5008845758
5008850397
5008856073
5008862665
5008870417
5008877436
5008883905
5008886164
5008894159
5008897577
5008905634
5008909601
5008915338
5008918634
5008928888
5008932672
5008940180
5008945551
5008952692
5008957880
5008963373
5008968073
5008972772
5008977716
5008984003
5008989557
5008995599
5008999994
5009006341
5009010980
5009018487
5009023492
5009028680
5009035028
5009040887
5009045648
5009050775
5009057428
5009064813
5009069513
5009073358
5009082330
5009086297
5009093744
5009099603
5009106988
5009112359
5009118951
5009125665
5009130975
5009135919
5009143487
5009148370
5009155755
5009160516
5009167657
5009174615
5009179803
5009184625
5009188226
5009196771
5009202813
5009208734
5009214959
5009222894
5009229974
5009236016
5009240044
5009248589
5009254998
5009261346
5009266595
5009274834
5009280633
5009288018
5009292840
5009296563
5009305474
5009311455
5009317803
5009322869
5009329522
5009333245
5009339226
5009344597
5009350701
5009355156
5009361382
5009366570
5009374749
5009380913
5009385430
5009391289
5009395867
5009403130
5009407097
5009412835
5009419060
5009425530
5009430168
5009438652
5009444695
5009450859
5009458672
5009466118
5009469719
5009477349
5009482903
5009487480
5009493828
5009501885
5009505303
5009512810
5009518120
5009522514
5009527641
5009534172
5009539299
5009544609
5009549126
5009553764
5009559746
5009565849
5009571098
5009576103
5009580559
5009586723
5009591789
5009596916
5009601372
5009608208
5009614433
5009621574
5009625969
5009631889
5009637077
5009640678
5009649284
5009653373
5009662468
5009669426
5009676201
5009681083
5009686760
5009690727
5009699028
5009702568
5009712272
5009718742
5009725090
5009729240
5009735221
5009740715
5009746818
5009752189
5009758049
5009763847
5009770683
5009775993
5009780754
5009786918
5009791496
5009797843
5009803031
5009809074
5009814262
5009820670
5009825675
5009831474
5009834953
5009842765
5009846183
5009855399
5009859367
5009867301
5009870719
5009877799
5009882377
5009888114
5009893180
5009900626
5009906241
5009911124
5009915580
5009919852
5009927665
5009931693
5009937675
5009941031
5009950614
5009957084
5009962394
5009967154
5009973319
5009978385
5009984916
5009990104
5009997184
5010002738
5010009452
5010013053
5010019095
5010026541
5010032645
5010039176
5010047599
5010053641
5010060965
5010064871
5010071829
5010076712
5010082450
5010091300
5010098441
5010104300
5010109549
5010114005
5010119925
5010124442
5010131766
5010136404
5010142813
5010148001
5010154837
5010159232
5010165213
5010170157
5010173392
5010181876
5010185843
5010193899
5010198172
5010203665
5010208426
5010214102
5010219168
5010224722
5010229178
5010236502
5010241873
5010248037
5010252493
5010257742
5010262564
5010268545
5010274466
5010282339
5010287100
5010288992
5010298574
5010303030
5010308950
5010312429
5010320303
5010323782
5010332144
5010338369
5010343679
5010348501
5010353872
5010358999
5010366018
5010370901
5010378225
5010383230
5010388296
5010395010
5010400320
5010404775
5010408926
5010416311
5010419973
5010427480
5010433584
5010438039
5010443594
5010449148
5010452871
5010460134
5010465017
5010471242
5010476430
5010482961
5010487905
5010493825
5010498159
5010504140
5010509878
5010512014
5010520620
5010524343
5010533193
5010536916
5010545156
5010549123
5010556203
5010565908
5010574453
5010581533
5010587453
5010593923
5010605397
5010613576
5010619191
5010629079
5010637746
5010646840
5010654592
5010666616
5010672048
5010679555
5010688893
5010693715
5010705007
5010712636
5010721303
5010727834
5010733449
5010742848
5010749928
5010754994
5010760793
5010766530
5010773244
5010778065
5010785084
5010790639
5010796498
5010800893
5010808522
5010813588
5010822194
5010825917
5010831898
5010836903
5010841664
5010844716
5010851307
5010854603
5010862599
5010869130
5010873768
5010879628
5010885121
5010888661
5010896046
5010900196
5010908436
5010912403
5010919117
5010923695
5010929493
5010934010
5010939198
5010945545
5010952809
5010957569
5010962818
5010967335
5010972828
5010977833
5010983814
5010987904
5010996143
5011001148
5011007862
5011013294
5011018299
5011022755
5011028614
5011034840
5011040516
5011046436
5011051075
5011056873
5011060719
5011067005
5011070850
5011078358
5011081898
5011090992
5011094959
5011101612
5011107105
5011112537
5011116993
5011123096
5011129993
5011134571
5011140857
5011146106
5011151050
5011157276
5011163501
5011168628
5011174305
5011176502
5011184925
5011190113
5011196766
5011200550
5011208728
5011212390
5011219287
5011225635
5011233325
5011238941
5011243762
5011248767
5011255847
5011262256
5011269092
5011274402
5011286182
5011292407
5011297534
5011303699
5011308338
5011312244
5011318408
5011326892
5011333179
5011337695
5011343250
5011345386
5011352527
5011356128
5011362537
5011368884
5011374499
5011380176
5011384814
5011390979
5011395984
5011402759
5011408374
5011415027
5011419665
5011423999
5011431445
5011436389
5011441943
5011444018
5011450976
5011456164
5011462146
5011467944
5011472644
5011477343
5011482592
5011484546
5011491198
5011497790
5011503100
5011509204
5011514636
5011519091
5011524585
5011526782
5011533740
5011540393
5011545214
5011550402
5011554919
5011560168
5011564196
5011571154
5011575854
5011584399
5011591723
5011597216
5011603076
5011609789
5011614550
5011620226
5011625475
5011631396
5011636401
5011642260
5011647509
5011652819
5011657214
5011663500
5011667956
5011674914
5011679552
5011685656
5011690844
5011696154
5011700365
5011703600
5011710985
5011714892
5011722948
5011726793
5011733507
5011737230
5011745836
5011751330
5011760546
5011768419
5011781908
5011787035
5011799242
5011802843
5011810350
5011814440
5011821520
5011825487
5011833361
5011840624
5011845873
5011852831
5011859300
5011866930
5011874254
5011879686
5011884996
5011889940
5011895494
5011902391
5011907213
5011913011
5011917894
5011924608
5011929430
5011935167
5011940355
5011944688
5011949632
5011954515
5011958788
5011966173
5011971849
5011976366
5011980577
5011986131
5011991075
5011996019
5012002611
5012009752
5012015184
5012021226
5012026048
5012031236
5012036180
5012040574
5012046739
5012053270
5012058030
5012064744
5012069810
5012075608
5012079759
5012083055
5012090867
5012094773
5012101609
5012107103
5012113450
5012116868
5012122422
5012127549
5012133470
5012138475
5012145616
5012151231
5012156846
5012165757
5012171617
5012176377
5012181382
5012185960
5012192735
5012197556
5012204820
5012209763
5012215867
5012221360
5012226182
5012230393
5012239732
5012244431
5012250962
5012258164
5012264390
5012269944
5012275254
5012282700
5012289414
5012294236
5012300706
5012305161
5012312119
5012317307
5012320664
5012329697
5012335862
5012341294
5012348191
5012353440
5012359543
5012364792
5012368332
5012377427
5012381211
5012387436
5012392563
5012398789
5012403122
5012409653
5012415146
5012423752
5012429001
5012438034
5012442429
5012450669
5012454880
5012463730
5012467514
5012474899
5012482712
5012491623
5012498276
5012502243
5012507980
5012513474
5012516831
5012522873
5012528305
5012535263
5012541061
5012546371
5012551681
5012557236
5012562729
5012568405
5012575546
5012580917
5012585556
5012592331
5012596847
5012600754
5012609299
5012611130
5012620407
5012627060
5012633041
5012638778
5012643112
5012648727
5012653427
5012659530
5012663803
5012668747
5012676071
5012684494
5012691696
5012698837
5012707382
5012712814
5012721298
5012725997
5012730514
5012735397
5012739059
5012744430
5012749252
5012754135
5012759262
5012765060
5012769515
5012773849
5012778182
5012783553
5012788253
5012793136
5012799484
5012804488
5012809554
5012814254
5012820602
5012826217
5012830734
5012836227
5012842330
5012847091
5012853133
5012859420
5012864364
5012870406
5012875167
5012882308
5012887496
5012893111
5012899764
5012904769
5012909530
5012916244
5012924178
5012930587
5012936019
5012940474
5012945113
5012950850
5012955001
5012961654
5012969405
5012975631
5012983199
5012988692
5012996932
5013003096
5013010360
5013014266
5013022017
5013027816
5013033248
5013039473
5013045455
5013050276
5013055647
5013060591
5013065535
5013074812
5013079451
5013084334
5013087752
5013093916
5013100386
5013105635
5013111250
5013116316
5013120894
5013126204
5013131148
5013136031
5013141035
5013146712
5013151411
5013155074
5013160078
5013165388
5013170393
5013175703
5013183211
5013187849
5013193831
5013198469
5013204390
5013209700
5013213728
5013219099
5013222578
5013229292
5013234968
5013240645
5013244124
5013251509
5013255171
5013262495
5013267744
5013274336
5013278364
5013285322
5013290693
5013295698
5013302351
5013308027
5013312849
5013319258
5013325300
5013329817
5013335554
5013339399
5013346296
5013351057
5013357405
5013361128
5013368025
5013373457
5013379072
5013384443
5013389936
5013396284
5013402082
5013407087
5013415144
5013420271
5013426313
5013432233
5013438032
5013443098
5013448774
5013454633
5013459394
5013465559
5013471723
5013476240
5013482526
5013488019
5013493146
5013498578
5013505048
5013512128
5013517194
5013524457
5013528852
5013534711
5013539472
5013547345
5013553022
5013561994
5013566938
5013574628
5013580976
5013586469
5013591230
5013596662
5013602704
5013609174
5013617169
5013621808
5013628278
5013633222
5013637799
5013643720
5013648786
5013655805
5013661786
5013666791
5013671124
5013676557
5013682965
5013687604
5013692243
5013698651
5013705121
5013708783
5013715680
5013719098
5013725812
5013731488
5013737042
5013742352
5013748700
5013753522
5013758832
5013763898
5013771527
5013776410
5013782757
5013787640
5013795209
5013800030
5013805096
5013811627
5013817486
5013824383
5013828106
5013833966
5013840252
5013847882
5013853192
5013858319
5013864300
5013870953
5013875653
5013881024
5013888043
5013893597
5013899823
5013906231
5013911297
5013915203
5013923992
5013927960
5013935650
5013942364
5013948101
5013953533
5013959637
5013965496
5013970196
5013974713
5013980877
5013987408
5013994671
5014001019
5014004925
5014010296
5014016827
5014021648
5014026592
5014033001
5014039471
5014044109
5014050884
5014055828
5014060406
5014066021
5014070599
5014075725
5014081829
5014088787
5014094524
5014098736
5014103924
5014110210
5014115215
5014120464
5014125713
5014133037
5014138286
5014145488
5014149578
5014158672
5014165752
5014172344
5014179912
5014184429
5014192241
5014198650
5014207439
5014212444
5014217937
5014225017
5014230144
5014237041
5014242229
5014247356
5014252483
5014259136
5014264202
5014271587
5014277141
5014283122
5014288554
5014296367
5014301616
5014309673
5014315715
5014321696
5014326946
5014332011
5014337016
5014343364
5014347942
5014354900
5014360271
5014366435
5014371562
5014378581
5014385051
5014389873
5014394572
5014402324
5014408122
5014415812
5014424296
5014429118
5014434672
5014440471
5014447245
5014453105
5014457560
5014462321
5014469401
5014472758
5014480754
5014483866
5014490763
5014496012
5014501323
5014508830
5014515361
5014520793
5014527873
5014530924
5014537333
5014541911
5014547404
5014551737
5014558634
5014565959
5014570414
5014575236
5014581461
5014585917
5014591166
5014595133
5014601847
5014608073
5014612406
5014618327
5014622050
5014627238
5014632853
5014638102
5014643229
5014649515
5014655680
5014660380
5014667704
5014671671
5014677470
5014682169
5014689738
5014695231
5014699381
5014705424
5014711283
5014715677
5014723673
5014730143
5014739481
5014747110
5014754313
5014762003
5014767313
5014773722
5014778482
5014790934
5014796305
5014803385
5014807474
5014811869
5014818766
5014824320
5014833963
5014838785
5014843790
5014851236
5014853494
5014863260
5014867044
5014874552
5014879251
5014887369
5014891214
5014897684
5014902811
5014909525
5014914896
5014920450
5014925272
5014931802
5014936563
5014943643
5014949686
5014956155
5014961648
5014968545
5014974344
5014980386
5014986368
5014992166
5014997415
5015003763
5015009073
5015014993
5015021280
5015025552
5015032632
5015038797
5015046304
5015050027
5015056314
5015060098
5015069436
5015073831
5015082376
5015086221
5015093606
5015097940
5015104715
5015110391
5015116860
5015122537
5015129067
5015134439
5015140969
5015145608
5015152017
5015156350
5015161233
5015168740
5015173135
5015181802
5015185586
5015192300
5015196389
5015203713
5015209206
5015215615
5015222024
5015227761
5015232522
5015239175
5015243935
5015251199
5015256386
5015261025
5015267861
5015269936
5015280007
5015283913
5015291543
5015297524
5015303322
5015308571
5015315407
5015321267
5015327675
5015332436
5015339089
5015345131
5015351296
5015359291
5015364541
5015372963
5015375283
5015384743
5015388466
5015394570
5015398354
5015407448
5015411843
5015418007
5015424477
5015432289
5015437538
5015442177
5015446388
5015453530
5015458779
5015465431
5015470314
5015475563
5015482094
5015487587
5015494179
5015497902
5015504311
5015510048
5015516884
5015523659
5015530495
5015535622
5015541237
5015547157
5015552406
5015558632
5015560951
5015570351
5015577492
5015582130
5015589516
5015596046
5015598182
5015607643
5015612282
5015621315
5015629310
5015636268
5015641456
5015645851
5015651832
5015657875
5015663368
5015668922
5015674049
5015681495
5015685829
5015693275
5015698646
5015703712
5015709999
5015715003
5015719886
5015727943
5015734962
5015740455
5015744728
5015750770
5015756751
5015761451
5015767249
5015774329
5015780433
5015786170
5015790626
5015797706
5015802589
5015808082
5015814552
5015818519
5015825904
5015831886
5015837501
5015842628
5015849647
5015854896
5015859901
5015865760
5015872352
5015878028
5015884681
5015888587
5015894568
5015899146
5015905555
5015910499
5015915809
5015922034
5015928077
5015934302
5015940528
5015944129
5015951270
5015959082
5015966163
5015969825
5015977027
5015982154
5015989051
5015993750
5015999427
5016006995
5016014685
5016020789
5016025733
5016030493
5016037940
5016043006
5016048987
5016053931
5016060767
5016065894
5016071936
5016076819
5016083045
5016087622
5016093482
5016098914
5016105261
5016110449
5016116614
5016121191
5016127417
5016131934
5016137366
5016142981
5016150061
5016155371
5016162085
5016167395
5016173132
5016177466
5016182715
5016189062
5016195776
5016201941
5016207434
5016213110
5016218603
5016226477
5016231787
5016237707
5016245031
5016250036
5016257422
5016262487
5016268652
5016273108
5016279394
5016285437
5016287634
5016297827
5016301611
5016309484
5016313024
5016320043
5016324865
5016330969
5016337011
5016343115
5016348547
5016354101
5016359411
5016367040
5016371801
5016376196
5016382726
5016390661
5016396032
5016401464
5016407934
5016412023
5016417883
5016423559
5016429906
5016436864
5016443212
5016447668
5016457189
5016462499
5016468847
5016473241
5016479589
5016483434
5016491735
5016498998
5016503515
5016507482
5016518163
5016523046
5016529821
5016540136
5016545079
5016552648
5016558507
5016565526
5016570836
5016578527
5016585424
5016591832
5016597020
5016603795
5016608556
5016616429
5016623448
5016629552
5016634862
5016642369
5016651525
5016655553
5016662145
5016667394
5016672887
5016678380
5016683995
5016690099
5016694981
5016699742
5016706029
5016711705
5016716771
5016722203
5016728734
5016732884
5016738499
5016743504
5016749364
5016753453
5016759312
5016765355
5016770543
5016775365
5016781529
5016786107
5016790806
5016796849
5016802220
5016806614
5016814305
5016819188
5016825963
5016830418
5016835911
5016840001
5016846348
5016850438
5016856480
5016862706
5016867588
5016871678
5016878025
5016882054
5016887181
5016892491
5016898350
5016905247
5016911167
5016916722
5016922764
5016927098
5016933262
5016937718
5016945408
5016952610
5016958042
5016963169
5016970921
5016976719
5016981480
5016987705
5016994541
5017001133
5017007053
5017013401
5017019321
5017024326
5017030491
5017038547
5017045078
5017050571
5017055881
5017062168
5017067722
5017075718
5017080051
5017087681
5017094394
5017099277
5017105930
5017112156
5017117283
5017123691
5017128757
5017137729
5017145237
5017151096
5017158420
5017165195
5017171054
5017177829
5017184543
5017191440
5017198886
5017204929
5017210849
5017216342
5017222934
5017228183
5017234958
5017240024
5017246799
5017252109
5017258029
5017264560
5017266635
5017275974
5017283786
5017289951
5017296237
5017301608
5017307651
5017314243
5017319919
5017324924
5017331882
5017338351
5017344882
5017349521
5017356479
5017361789
5017365878
5017374362
5017382113
5017387362
5017392673
5017398044
5017404635
5017409518
5017415561
5017421359
5017426852
5017431918
5017437655
5017444735
5017450839
5017455783
5017462741
5017467929
5017477145
5017483309
5017488497
5017494845
5017499972
5017509921
5017514315
5017521212
5017527987
5017533908
5017540988
5017545809
5017549410
5017556735
5017562289
5017569491
5017575533
5017582858
5017588778
5017596346
5017602633
5017608248
5017614169
5017622042
5017628329
5017634920
5017642855
5017647738
5017652193
5017658053
5017664583
5017670016
5017674227
5017683565
5017689791
5017694979
5017701876
5017708834
5017714449
5017721834
5017726778
5017735933
5017741671
5017749727
5017754915
5017763826
5017769930
5017778170
5017784090
5017790804
5017796053
5017803072
5017809114
5017815401
5017822908
5017829378
5017833772
5017842439
5017847322
5017852449
5017856966
5017863069
5017867525
5017872347
5017878084
5017884432
5017889497
5017896028
5017901216
5017906343
5017911470
5017915742
5017922212
5017928865
5017933748
5017940034
5017944368
5017951021
5017954927
5017960786
5017968111
5017973176
5017979768
5017984224
5017990144
5017996309
5018001558
5018006379
5018014863
5018020051
5018024202
5018028535
5018034578
5018041841
5018048555
5018054719
5018060945
5018066682
5018072663
5018078218
5018084077
5018089753
5018095430
5018100740
5018108308
5018114656
5018120149
5018125337
5018130952
5018135591
5018141389
5018146211
5018153657
5018158662
5018165070
5018169526
5018175630
5018181428
5018187837
5018192902
5018200166
5018206879
5018208772
5018217194
5018221284
5018228425
5018231721
5018239350
5018243439
5018252595
5018259125
5018263520
5018266938
5018274994
5018278962
5018286774
5018291901
5018301728
5018303925
5018312104
5018316864
5018322297
5018327301
5018333832
5018340973
5018349579
5018357331
5018362824
5018367768
5018372467
5018377838
5018383271
5018392548
5018399567
5018404450
5018409821
5018415436
5018421845
5018426666
5018431000
5018438812
5018443878
5018449616
5018454559
5018460724
5018467194
5018471527
5018477448
5018483795
5018488617
5018495270
5018499786
5018505768
5018511566
5018516571
5018522675
5018528473
5018532867
5018539337
5018545868
5018550751
5018555267
5018562775
5018567657
5018575104
5018579986
5018585907
5018590912
5018597198
5018604583
5018611114
5018617584
5018623382
5018631012
5018634735
5018642669
5018647430
5018653717
5018658599
5018665252
5018671234
5018678924
5018685211
5018690521
5018695709
5018701141
5018707611
5018712493
5018717071
5018725067
5018729949
5018736175
5018742645
5018748382
5018753021
5018759002
5018764739
5018771453
5018776336
5018783050
5018787383
5018793670
5018797942
5018803252
5018809417
5018815520
5018823394
5018829436
5018836211
5018840850
5018848418
5018854217
5018860992
5018866179
5018875335
5018880828
5018886626
5018893645
5018900786
5018906463
5018911406
5018919524
5018924529
5018935454
5018939421
5018947722
5018954924
5018959807
5018966765
5018972258
5018977202
5018987212
5018992949
5018998564
5019002959
5019009551
5019017424
5019023406
5019029570
5019035979
5019041655
5019047270
5019053740
5019063323
5019069365
5019074553
5019082060
5019087981
5019093108
5019098845
5019104643
5019110869
5019115569
5019121733
5019127104
5019132963
5019137907
5019145170
5019151518
5019157683
5019161772
5019169890
5019174406
5019181914
5019188261
5019194609
5019199186
5019206328
5019211760
5019218351
5019223784
5019231047
5019236235
5019241362
5019248442
5019252470
5019261259
5019265593
5019272184
5019277861
5019284574
5019290129
5019296415
5019301603
5019308195
5019312956
5019318998
5019324247
5019332060
5019338957
5019340971
5019349394
5019354215
5019361845
5019367033
5019374174
5019380033
5019385465
5019390958
5019397611
5019402433
5019408964
5019413969
5019419218
5019423856
5019431974
5019436857
5019442777
5019449064
5019453519
5019459318
5019463895
5019471342
5019477994
5019484586
5019490079
5019495878
5019499479
5019506803
5019512906
5019517606
5019523343
5019529447
5019534879
5019540860
5019545743
5019551725
5019556974
5019563871
5019570035
5019580472
5019586331
5019592069
5019602078
5019607205
5019613370
5019618985
5019623929
5019631436
5019637174
5019643643
5019652677
5019655728
5019662991
5019668424
5019672574
5019678311
5019685513
5019690945
5019696011
5019701260
5019706387
5019711087
5019716458
5019720792
5019729886
5019736294
5019743436
5019747952
5019754178
5019758938
5019766263
5019771023
5019777554
5019782620
5019788662
5019793240
5019798794
5019805203
5019808743
5019816189
5019819973
5019827298
5019833462
5019838101
5019843106
5019849087
5019853787
5019860562
5019864834
5019872036
5019878140
5019883999
5019888516
5019892056
5019899990
5019905911
5019910488
5019916897
5019922451
5019927273
5019933132
5019937832
5019945034
5019949307
5019954983
5019961086
5019968350
5019973110
5019979092
5019983669
5019989895
5019996243
5019999599
5020006985
5020013637
5020018215
5020023220
5020029507
5020034939
5020041958
5020046779
5020054165
5020059109
5020065029
5020071560
5020075466
5020083523
5020087368
5020095180
5020100490
5020106350
5020111904
5020119655
5020124965
5020132412
5020137172
5020143886
5020149440
5020153102
5020160915
5020168056
5020174037
5020180019
5020186306
5020192043
5020199672
5020205226
5020213344
5020221889
5020228908
5020234645
5020239345
5020245448
5020250697
5020258510
5020266200
5020271022
5020278651
5020284633
5020289699
5020294887
5020301662
5020307399
5020313075
5020317958
5020324672
5020329738
5020334560
5020338954
5020344752
5020351832
5020356471
5020361598
5020369533
5020374660
5020380641
5020384852
5020391627
5020396144
5020399379
5020407008
5020411708
5020420131
5020424647
5020431178
5020434535
5020440333
5020445155
5020451686
5020455470
5020462611
5020468470
5020474147
5020477626
5020484278
5020488429
5020495082
5020500270
5020506007
5020511195
5020515711
5020520228
5020527125
5020531886
5020537135
5020541346
5020549403
5020554102
5020559290
5020565455
5020571009
5020575953
5020579981
5020586939
5020593409
5020597926
5020603663
5020608485
5020613978
5020619532
5020624232
5020629786
5020636072
5020642359
5020647913
5020654200
5020658777
5020665430
5020671045
5020676722
5020681849
5020686121
5020693812
5020699488
5020706080
5020711573
5020718226
5020724756
5020730066
5020735865
5020743006
5020749475
5020754908
5020759485
5020766077
5020771143
5020776941
5020782068
5020789453
5020796533
5020802820
5020810327
5020816187
5020821192
5020825464
5020830042
5020838770
5020844385
5020854212
5020859583
5020864893
5020871362
5020876978
5020882715
5020889673
5020894739
5020902612
5020908289
5020913538
5020919824
5020924463
5020930566
5020936609
5020941431
5020947229
5020953454
5020958948
5020963464
5020969812
5020975122
5020983423
5020989770
5020993676
5021000512
5021007715
5021012964
5021017358
5021024499
5021029687
5021036279
5021042932
5021045068
5021053735
5021057824
5021065148
5021070581
5021076989
5021083398
5021089624
5021095361
5021100610
5021105187
5021111474
5021116296
5021123376
5021128015
5021134179
5021139123
5021145104
5021151452
5021156884
5021161767
5021167199
5021171777
5021177453
5021185387
5021193444
5021198632
5021204125
5021211327
5021216820
5021221276
5021229272
5021235314
5021240563
5021247216
5021251671
5021257287
5021263695
5021268273
5021274376
5021281090
5021286278
5021292138
5021297936
5021301781
5021309105
5021313988
5021320214
5021326195
5021332787
5021338585
5021343895
5021350243
5021355309
5021360314
5021366478
5021370995
5021377037
5021383263
5021389000
5021393639
5021400292
5021407616
5021414818
5021423851
5021431603
5021436119
5021443810
5021448692
5021454552
5021460533
5021467918
5021473961
5021481834
5021523033
5021528099
5021532555
5021537193
5021541221
5021546226
5021551353
5021555076
5021560875
5021564781
5021568565
5021573692
5021578636
5021584068
5021588890
5021593956
5021598777
5021604271
5021608421
5021615989
5021620384
5021625206
5021630149
5021634422
5021640281
5021643760
5021649070
5021656395
5021661338
5021665245
5021669700
5021674522
5021678611
5021684043
5021689414
5021694602
5021699241
5021703514
5021707481
5021712119
5021716148
5021721153
5021725852
5021732566
5021737815
5021743980
5021751426
5021755210
5021761741
5021765220
5021777610
5021781699
5021787864
5021791160
5021797874
5021802573
5021807822
5021813071
5021817710
5021823325
5021827964
5021833030
5021837730
5021843406
5021847678
5021852927
5021857261
5021863303
5021866538
5021872825
5021878379
5021884726
5021889304
5021894126
5021898826
5021902732
5021907981
5021914206
5021920859
5021926291
5021931052
5021935324
5021938254
5021946250
5021951926
5021955954
5021962424
5021967124
5021970725
5021976889
5021981345
5021987692
5021991171
5021997763
5022003501
5022009970
5022015708
5022021079
5022025839
5022031638
5022036520
5022042624
5022048117
5022053061
5022058737
5022064475
5022068747
5022074912
5022079794
5022085776
5022090659
5022098044
5022102927
5022108420
5022114340
5022118613
5022124289
5022128866
5022134482
5022141745
5022146933
5022152365
5022157797
5022161398
5022168112
5022172995
5022178061
5022183127
5022190085
5022196249
5022202414
5022207296
5022213644
5022218405
5022223776
5022228476
5022237448
5022242269
5022248617
5022256491
5022265341
5022271200
5022280966
5022285910
5022295431
5022301901
5022307699
5022312704
5022318014
5022322164
5022330709
5022336691
5022343893
5022348104
5022353964
5022358297
5022363729
5022368673
5022374166
5022378072
5022383566
5022389242
5022393087
5022398336
5022402669
5022407857
5022411886
5022419027
5022425008
5022429769
5022436117
5022440755
5022446615
5022452352
5022457235
5022463399
5022470540
5022475484
5022478780
5022487752
5022491414
5022497518
5022502950
5022508321
5022514364
5022523275
5022527242
5022533712
5022538472
5022544088
5022548665
5022554341
5022560506
5022568379
5022573812
5022578816
5022584981
5022589742
5022595601
5022600911
5022605306
5022612691
5022618672
5022623494
5022628621
5022634725
5022639668
5022644673
5022651082
5022655782
5022663106
5022668538
5022675069
5022680257
5022685872
5022690144
5022696187
5022702779
5022708089
5022714863
5022720051
5022725056
5022731160
5022736897
5022741536
5022748250
5022754658
5022761250
5022767232
5022772236
5022775837
5022785237
5022789326
5022796345
5022802388
5022810078
5022814290
5022821431
5022826313
5022832173
5022837605
5022843525
5022848652
5022857624
5022863728
5022869892
5022875325
5022882710
5022889851
5022895710
5022900227
5022907002
5022912861
5022919758
5022926655
5022932331
5022936543
5022942707
5022948811
5022954609
5022959370
5022964924
5022970295
5022975483
5022980793
5022985798
