4768762816
4768773497
4768784361
4768793883
4768803038
4768810728
4768821226
4768829954
4768838804
4768846922
4768854246
4768863829
4768871458
4768878965
4768887388
4768895384
4768903685
4768914244
4768923582
4768933836
4768943907
4768957395
4768968016
4768977476
4768986753
4768997190
4769008787
4769018003
4769029600
4769038450
4769050352
4769059873
4769069517
4769080076
4769089719
4769098447
4769107847
4769118223
4769128110
4769138120
4769148008
4769158811
4769168638
4769179197
4769187925
4769196897
4769209287
4769218259
4769230710
4769239743
4769251462
4769261228
4769272763
4769281857
4769293393
4769301755
4769312680
4769323789
4769331662
4769343503
4769351376
4769365353
4769375119
4769384701
4769396054
4769406003
4769414792
4769427182
4769434933
4769447384
4769454709
4769467526
4769477292
4769489560
4769498532
4769509884
4769519101
4769530575
4769539303
4769550350
4769562008
4769569454
4769582211
4769590206
4769600216
4769609738
4769617245
4769624508
4769634274
4769640621
4769649349
4769654720
4769663570
4769671566
4769678280
4769686153
4769694393
4769700558
4769709164
4769715267
4769721798
4769732601
4769739681
4769748104
4769753475
4769762447
4769768551
4769776363
4769784908
4769790035
4769799556
4769806453
4769813594
4769820491
4769828792
4769836238
4769842830
4769851619
4769860774
4769866756
4769875972
4769883541
4769892757
4769902889
4769911434
4769919734
4769925411
4769935176
4769944331
4769951778
4769959224
4769966365
4769977656
4769984126
4769992366
4770001399
4770007930
4770016475
4770022700
4770031306
4770039973
4770047786
4770055720
4770061580
4770069941
4770078059
4770085139
4770092891
4770100093
4770107905
4770115229
4770121028
4770131221
4770139094
4770147273
4770159358
4770167658
4770174433
4770183161
4770192072
4770197810
4770205439
4770213679
4770221735
4770230769
4770238154
4770244929
4770253718
4770259638
4770266596
4770274287
4770281489
4770288813
4770295710
4770302485
4770311518
4770319514
4770325922
4770333124
4770341608
4770347895
4770357416
4770366022
4770372614
4770379267
4770386652
4770396112
4770402338
4770410578
4770417963
4770425531
4770431757
4770439569
4770446344
4770454767
4770461786
4770467523
4770475885
4770484247
4770491937
4770500665
4770508966
4770517511
4770524835
4770531488
4770538934
4770547601
4770555414
4770562006
4770572504
4770580621
4770587762
4770593988
4770602106
4770610223
4770620294
4770629693
4770637628
4770645562
4770652154
4770658868
4770665948
4770672845
4770681634
4770689508
4770698968
4770705011
4770713250
4770719293
4770726251
4770733880
4770740716
4770750054
4770758904
4770764581
4770772759
4770778558
4770784905
4770792230
4770801507
4770807610
4770815972
4770821526
4770829522
4770835687
4770843499
4770852044
4770859551
4770869439
4770876946
4770883843
4770891717
4770898553
4770905816
4770914422
4770921685
4770929741
4770937859
4770944939
4770951714
4770956597
4770966179
4770972527
4770980706
4770986565
4770993645
4771001458
4771008355
4771016777
4771024712
4771030388
4771038018
4771044487
4771051750
4771059502
4771066887
4771075005
4771083061
4771090752
4771099297
4771106499
4771113457
4771120537
4771128960
4771136772
4771143913
4771152824
4771157890
4771166740
4771175041
4771183403
4771191521
4771200310
4771207878
4771215202
4771223076
4771230766
4771238212
4771247062
4771255180
4771262443
4771269828
4771277824
4771284477
4771292656
4771300956
4771310783
4771320182
4771329399
4771338371
4771346061
4771355339
4771362663
4771370719
4771379203
4771388114
4771395927
4771403007
4771411674
4771418388
4771426139
4771433768
4771441581
4771447929
4771456412
4771464225
4771472648
4771482902
4771489677
4771496940
4771502555
4771512748
4771520743
4771528495
4771535514
4771542594
4771551566
4771557670
4771566398
4771575065
4771580985
4771590201
4771596610
4771607779
4771615836
4771623831
4771630484
4771639884
4771648734
4771655509
4771662345
4771668326
4771675406
4771681387
4771687979
4771693961
4771700614
4771706778
4771713553
4771719473
4771726492
4771731741
4771739127
4771744681
4771751883
4771757498
4771763113
4771769766
4771775381
4771782156
4771787405
4771794180
4771800406
4771805227
4771813284
4771820425
4771826163
4771831717
4771839651
4771844961
4771852774
4771858694
4771864126
4771870474
4771877249
4771882559
4771889151
4771895987
4771902761
4771907827
4771914419
4771919180
4771925161
4771931631
4771937979
4771944021
4771950430
4771957754
4771964224
4771972402
4771978018
4771985098
4771989980
4771995107
4772001455
4772008291
4772013296
4772022085
4772026296
4772032339
4772039358
4772044851
4772050283
4772055654
4772060354
4772068410
4772075002
4772081350
4772086477
4772092641
4772097768
4772104055
4772110280
4772116018
4772122671
4772127981
4772133413
4772139333
4772144765
4772149648
4772156423
4772161489
4772168325
4772173696
4772179982
4772185109
4772191518
4772198659
4772203603
4772210256
4772214894
4772221852
4772228261
4772233266
4772240041
4772246511
4772252614
4772258412
4772264028
4772270253
4772275746
4772280995
4772288503
4772293630
4772300038
4772306325
4772310475
4772317983
4772325185
4772331532
4772337453
4772343617
4772348744
4772355031
4772359853
4772365834
4772372304
4772379018
4772385121
4772390248
4772395314
4772402333
4772408314
4772415761
4772422535
4772427113
4772433827
4772439808
4772444020
4772452137
4772458180
4772463490
4772470143
4772475148
4772480397
4772488087
4772495533
4772501210
4772508046
4772513600
4772521534
4772527394
4772533375
4772539601
4772544178
4772550709
4772557118
4772563709
4772568958
4772574818
4772579579
4772585438
4772592213
4772597645
4772604725
4772610035
4772616627
4772623096
4772629261
4772634937
4772640125
4772645924
4772651661
4772656727
4772662464
4772669910
4772674732
4772681202
4772686451
4772692310
4772697498
4772703541
4772710071
4772716053
4772722034
4772727405
4772733021
4772738025
4772743824
4772750477
4772754627
4772761646
4772767994
4772774830
4772780445
4772786792
4772792774
4772798999
4772806140
4772809070
4772818225
4772823963
4772830860
4772835987
4772842273
4772848194
4772854724
4772861194
4772865711
4772873218
4772878833
4772885364
4772891345
4772896045
4772902393
4772908618
4772913074
4772919360
4772927295
4772934131
4772939746
4772945789
4772951465
4772957263
4772964038
4772968433
4772975513
4772981677
4772988025
4772992908
4772999255
4773005603
4773009814
4773016345
4773023059
4773028552
4773033923
4773041613
4773048266
4773053454
4773060351
4773067065
4773073901
4773077807
4773084399
4773088427
4773094714
4773101489
4773109057
4773114123
4773119860
4773125292
4773130786
4773135790
4773142138
4773148425
4773156054
4773160876
4773165331
4773171435
4773177111
4773182971
4773189074
4773193713
4773201708
4773206286
4773212756
4773217577
4773223986
4773230395
4773235033
4773241747
4773246081
4773253649
4773258837
4773263903
4773270556
4773277758
4773283556
4773289660
4773294237
4773301501
4773306994
4773312975
4773319811
4773324083
4773330248
4773335924
4773342211
4773346239
4773353441
4773359728
4773365465
4773371813
4773377001
4773383654
4773389147
4773395189
4773401659
4773408007
4773413561
4773419359
4773426012
4773431871
4773437181
4773444628
4773450609
4773455065
4773461473
4773467638
4773473924
4773478990
4773484850
4773491502
4773496751
4773502977
4773506944
4773513902
4773519640
4773525255
4773531053
4773538560
4773543382
4773549425
4773555467
4773560228
4773566514
4773575242
4773580614
4773588121
4773592576
4773600755
4773608385
4773614732
4773620469
4773624498
4773631090
4773638658
4773644029
4773649766
4773654649
4773660691
4773666368
4773671373
4773678025
4773684373
4773689378
4773695176
4773701280
4773707261
4773713365
4773718675
4773724229
4773730516
4773736619
4773741380
4773747422
4773753770
4773759812
4773765000
4773770432
4773776048
4773782456
4773787156
4773793321
4773799424
4773805528
4773810410
4773816331
4773823045
4773829087
4773834763
4773840012
4773846421
4773850327
4773858079
4773862229
4773868027
4773875779
4773880723
4773887192
4773892502
4773899338
4773906846
4773913437
4773918747
4773925522
4773932114
4773937485
4773943772
4773949448
4773954941
4773961411
4773967453
4773973069
4773979172
4773986008
4773993149
4773997605
4774004929
4774010605
4774015915
4774022812
4774028183
4774033921
4774039475
4774045212
4774052292
4774057663
4774063767
4774068772
4774074997
4774081406
4774087387
4774092697
4774098496
4774103928
4774109665
4774117111
4774122116
4774129929
4774135666
4774143600
4774149338
4774155868
4774159958
4774166244
4774171860
4774179001
4774185470
4774191757
4774197189
4774202499
4774209335
4774214157
4774220810
4774225204
4774235885
4774241501
4774246017
4774252609
4774258957
4774263961
4774270004
4774276352
4774282943
4774288742
4774294052
4774300338
4774305954
4774311752
4774318466
4774323471
4774330306
4774335861
4774342147
4774348800
4774354354
4774361923
4774367416
4774372726
4774377792
4774384567
4774390853
4774395919
4774402206
4774408614
4774413253
4774419723
4774424667
4774430831
4774437789
4774442062
4774449081
4774454818
4774460128
4774466720
4774471664
4774476852
4774483321
4774489852
4774494185
4774501998
4774507857
4774513106
4774518783
4774524154
4774531051
4774537276
4774541793
4774548079
4774554671
4774560164
4774565780
4774572554
4774579024
4774583541
4774589522
4774595809
4774601119
4774607894
4774614119
4774619246
4774626326
4774630599
4774636946
4774643599
4774649031
4774656539
4774661910
4774671858
4774678206
4774685286
4774690474
4774696944
4774705306
4774710432
4774718123
4774723677
4774730635
4774736433
4774741377
4774747847
4774754317
4774759932
4774764143
4774770735
4774777388
4774783125
4774790388
4774797224
4774803145
4774808027
4774813887
4774820173
4774825789
4774832197
4774838301
4774844343
4774849775
4774854048
4774861982
4774866926
4774873884
4774878340
4774884932
4774889753
4774896589
4774901106
4774907759
4774913069
4774919355
4774924909
4774931318
4774937544
4774943586
4774948896
4774953169
4774960798
4774965315
4774972700
4774977461
4774984419
4774989301
4774995954
4775000837
4775008344
4775014570
4775020918
4775025678
4775032087
4775038068
4775044111
4775049360
4775055463
4775062726
4775068281
4775074506
4775079694
4775085859
4775091291
4775097272
4775104780
4775110212
4775116254
4775121259
4775127485
4775133283
4775139386
4775146711
4775151227
4775157453
4775162214
4775169721
4775175214
4775181256
4775187848
4775194928
4775200360
4775205854
4775212689
4775219098
4775225934
4775232160
4775238263
4775244245
4775250531
4775256146
4775261151
4775268414
4775275922
4775281110
4775287946
4775292279
4775299115
4775303326
4775311322
4775320172
4775326825
4775332867
4775338849
4775345135
4775350751
4775357587
4775362042
4775369549
4775375836
4775381146
4775387433
4775393536
4775397992
4775403790
4775409649
4775417218
4775422223
4775426312
4775433392
4775438641
4775443707
4775450360
4775455304
4775461468
4775467389
4775471661
4775477642
4775483380
4775489849
4775496319
4775501629
4775509014
4775514263
4775520123
4775524884
4775531048
4775538922
4775545147
4775550518
4775555828
4775562359
4775567181
4775573467
4775579205
4775585491
4775591473
4775598492
4775605145
4775610149
4775616558
4775622845
4775629131
4775636028
4775640362
4775647259
4775653911
4775658855
4775664898
4775671001
4775677166
4775683269
4775688457
4775694073
4775699444
4775706585
4775712383
4775718853
4775724224
4775729900
4775735271
4775740886
4775747722
4775753582
4775760845
4775770671
4775776043
4775783184
4775790020
4775796916
4775802715
4775806865
4775813640
4775821269
4775827556
4775834697
4775839763
4775847698
4775854350
4775862590
4775868999
4775874919
4775882793
4775886882
4775894878
4775899516
4775906047
4775913676
4775919048
4775926433
4775932170
4775939555
4775946025
4775951640
4775956767
4775962993
4775971232
4775977641
4775985942
4775993327
4776001811
4776009318
4776017497
4776027079
4776034404
4776043559
4776052653
4776061259
4776068583
4776076884
4776083476
4776090312
4776096049
4776102214
4776107585
4776115092
4776123881
4776131144
4776137858
4776145365
4776151957
4776158915
4776165568
4776172160
4776178568
4776184367
4776190043
4776196757
4776201395
4776207743
4776215739
4776220805
4776227274
4776233683
4776239786
4776246989
4776254984
4776260844
4776265848
4776272013
4776277811
4776285135
4776290690
4776297220
4776303263
4776309244
4776315043
4776320780
4776327799
4776336710
4776343546
4776350748
4776357401
4776363443
4776369974
4776379007
4776385843
4776390421
4776395548
4776401895
4776408731
4776414652
4776420877
4776427408
4776433512
4776439493
4776444986
4776451151
4776456644
4776462381
4776468912
4776475321
4776480325
4776486429
4776492593
4776497354
4776503641
4776509805
4776516214
4776521585
4776527200
4776533792
4776538492
4776545267
4776550333
4776557107
4776561624
4776568338
4776574197
4776580484
4776586465
4776592508
4776598062
4776604593
4776610147
4776616189
4776621499
4776627481
4776632852
4776638040
4776644693
4776651040
4776655984
4776661233
4776667337
4776673806
4776680459
4776687600
4776692483
4776698587
4776705300
4776709390
4776716409
4776722268
4776728860
4776733865
4776739846
4776745889
4776751199
4776757546
4776762307
4776770791
4776775308
4776781533
4776787637
4776793191
4776800027
4776805215
4776811929
4776816872
4776822854
4776829507
4776833535
4776840676
4776845925
4776852822
4776858803
4776864175
4776874489
4776879006
4776887490
4776893410
4776900246
4776905617
4776911965
4776920388
4776924599
4776930520
4776937600
4776943825
4776949440
4776954201
4776960671
4776968117
4776974526
4776979531
4776983986
4776990395
4776995766
4777001747
4777007546
4777014443
4777019509
4777026039
4777031105
4777037880
4777043923
4777048256
4777053871
4777060097
4777066444
4777070839
4777077004
4777081520
4777086586
4777091835
4777098244
4777104469
4777109657
4777115272
4777121315
4777125709
4777131569
4777137001
4777143104
4777149269
4777153908
4777158790
4777165138
4777170997
4777177284
4777182472
4777186683
4777193031
4777197426
4777203895
4777209083
4777214393
4777222023
4777228431
4777234047
4777239906
4777246559
4777252601
4777257911
4777264198
4777271217
4777277198
4777283119
4777289833
4777295143
4777301673
4777308814
4777313148
4777319984
4777326393
4777331520
4777337013
4777343543
4777347938
4777354774
4777361244
4777367408
4777373390
4777379493
4777384803
4777392127
4777397865
4777405738
4777413795
4777422279
4777427405
4777433631
4777438636
4777444739
4777451881
4777458777
4777465735
4777471290
4777477637
4777481910
4777488318
4777495154
4777503699
4777510047
4777516700
4777521827
4777528846
4777534827
4777540198
4777545386
4777551551
4777557776
4777563269
4777569617
4777574683
4777582312
4777587805
4777591895
4777598975
4777603430
4777610327
4777615821
4777622229
4777626807
4777632727
4777638403
4777645606
4777650916
4777655615
4777662146
4777668433
4777674170
4777679236
4777684851
4777690710
4777696265
4777702429
4777708899
4777712988
4777719519
4777726172
4777731116
4777735998
4777742590
4777747839
4777753577
4777759070
4777765356
4777771216
4777777014
4777783179
4777789221
4777793432
4777800390
4777806372
4777813391
4777817724
4777823889
4777830603
4777834631
4777841894
4777847143
4777852942
4777859350
4777865576
4777871008
4777876806
4777881689
4777887487
4777893896
4777898840
4777905310
4777912145
4777919287
4777926916
4777935156
4777942724
4777947668
4777954382
4777963293
4777970495
4777978307
4777985265
4777991491
4777996740
4778003942
4778009130
4778016515
4778023717
4778029638
4778034887
4778040685
4778046667
4778051427
4778057287
4778064123
4778068395
4778075597
4778081457
4778086095
4778091771
4778098058
4778103429
4778109899
4778114782
4778120214
4778126500
4778130529
4778136571
4778144811
4778149144
4778156713
4778160985
4778167211
4778173803
4778178746
4778185887
4778190648
4778196752
4778202489
4778207738
4778212926
4778218785
4778226171
4778232213
4778237523
4778243627
4778248631
4778255467
4778259801
4778267064
4778273167
4778278233
4778284337
4778289525
4778295628
4778301244
4778307835
4778312840
4778319127
4778324132
4778330113
4778336217
4778340062
4778348546
4778353917
4778361546
4778368260
4778373875
4778378514
4778384251
4778391575
4778396885
4778402867
4778407628
4778415257
4778422276
4778429600
4778435154
4778444798
4778450474
4778454930
4778462437
4778468113
4778475193
4778481541
4778487828
4778493016
4778499790
4778504673
4778512547
4778518894
4778525486
4778531651
4778537876
4778544224
4778550083
4778557469
4778562779
4778569676
4778574680
4778583347
4778589268
4778594944
4778602146
4778606724
4778613010
4778621006
4778627476
4778632969
4778639988
4778643955
4778650120
4778655857
4778660740
4778667393
4778673191
4778679416
4778683506
4778690159
4778695530
4778700718
4778707554
4778714267
4778719577
4778725620
4778730869
4778736606
4778742038
4778747654
4778753452
4778760715
4778765659
4778770481
4778776584
4778780918
4778787265
4778793186
4778799289
4778804111
4778810214
4778816440
4778822360
4778827243
4778832675
4778839267
4778844150
4778850559
4778855319
4778861057
4778866245
4778872409
4778879245
4778884311
4778890720
4778895602
4778901645
4778906894
4778911410
4778917270
4778923495
4778930942
4778936557
4778944614
4778951572
4778955600
4778963107
4778969150
4778976108
4778982028
4778987582
4778994540
4779001254
4779005649
4779011325
4779016452
4779022677
4779028476
4779034945
4779040988
4779047396
4779053195
4779059420
4779064059
4779069308
4779075289
4779079928
4779086825
4779092745
4779098849
4779104098
4779109713
4779114901
4779121737
4779127169
4779133212
4779138522
4779144686
4779150607
4779156649
4779162386
4779166476
4779172640
4779177401
4779184237
4779190829
4779195345
4779201876
4779206759
4779212008
4779217745
4779224764
4779228854
4779236239
4779242647
4779247713
4779253206
4779259310
4779265291
4779271029
4779278292
4779284029
4779289400
4779294283
4779300814
4779306856
4779313509
4779319246
4779323702
4779329012
4779335176
4779341219
4779346468
4779352144
4779356539
4779364351
4779369173
4779374056
4779379183
4779385469
4779390474
4779398897
4779402986
4779408785
4779414095
4779420076
4779425691
4779429842
4779437654
4779443208
4779448213
4779453706
4779458772
4779464204
4779471468
4779478914
4779485689
4779491792
4779497957
4779503206
4779508638
4779513643
4779519807
4779527132
4779534090
4779538911
4779544710
4779549287
4779554658
4779560762
4779567659
4779573335
4779579194
4779585237
4779590181
4779595369
4779601899
4779608491
4779613374
4779618318
4779624116
4779628938
4779634736
4779641023
4779647371
4779652742
4779658357
4779664582
4779669892
4779675202
4779681611
4779687959
4779694490
4779700654
4779706452
4779711946
4779716889
4779722932
4779728059
4779734895
4779740266
4779745759
4779752107
4779756379
4779762605
4779767609
4779773591
4779781037
4779785310
4779791840
4779798371
4779803742
4779808503
4779814851
4779822053
4779828522
4779833466
4779839265
4779845124
4779849457
4779856537
4779861603
4779868622
4779873200
4779879487
4779884797
4779890717
4779895478
4779901703
4779906891
4779912873
4779918549
4779924530
4779929474
4779935212
4779940277
4779946015
4779952729
4779958344
4779964142
4779969025
4779975251
4779981171
4779985321
4779993378
4779997772
4780005890
4780011566
4780018646
4780023285
4780030121
4780037323
4780041596
4780048065
4780052460
4780061371
4780066925
4780073151
4780079376
4780086090
4780091400
4780097198
4780101166
4780106964
4780113312
4780119965
4780127106
4780132599
4780137543
4780142975
4780147919
4780153168
4780159576
4780165191
4780171661
4780178009
4780182281
4780189117
4780192962
4780199127
4780204864
4780210174
4780215423
4780221710
4780227691
4780232696
4780239044
4780244964
4780251251
4780255828
4780262786
4780266998
4780273223
4780278411
4780283477
4780289092
4780295623
4780301666
4780307891
4780312713
4780318389
4780322967
4780328826
4780335845
4780342132
4780347015
4780353118
4780358123
4780363128
4780369720
4780376067
4780382476
4780387115
4780393096
4780399017
4780403045
4780408904
4780415008
4780422271
4780427276
4780433501
4780437530
4780443938
4780449431
4780456023
4780461455
4780467864
4780473662
4780477569
4780484710
4780489287
4780495635
4780501738
4780510955
4780517058
4780522979
4780527190
4780533171
4780540374
4780544463
4780552581
4780559111
4780564238
4780569731
4780576140
4780581877
4780588225
4780595000
4780599639
4780607024
4780612090
4780618254
4780623198
4780630095
4780635588
4780641936
4780648161
4780655486
4780660979
4780666716
4780673308
4780681487
4780685759
4780692351
4780697966
4780704619
4780709807
4780716276
4780722624
4780729094
4780735869
4780740324
4780747771
4780752714
4780759062
4780765898
4780774016
4780779570
4780784758
4780791472
4780796904
4780802092
4780808744
4780814726
4780821745
4780827116
4780832792
4780838530
4780844023
4780851103
4780855436
4780862638
4780867033
4780874418
4780880094
4780886442
4780891874
4780896696
4780903227
4780909757
4780915373
4780921781
4780926969
4780933378
4780939359
4780945158
4780951444
4780956632
4780962125
4780968595
4780976041
4780981229
4780986417
4780992216
4780999235
4781003934
4781011198
4781017911
4781023221
4781029508
4781035367
4781043607
4781050382
4781056180
4781062406
4781069364
4781074369
4781081388
4781087064
4781093534
4781100553
4781106595
4781110990
4781116971
4781123929
4781128263
4781136441
4781141629
4781149076
4781154630
4781162076
4781167081
4781173246
4781179654
4781186368
4781192960
4781197782
4781204190
4781209744
4781214200
4781219571
4781225553
4781230863
4781237088
4781241910
4781247464
4781252286
4781258084
4781264676
4781270840
4781276822
4781281155
4781286832
4781293057
4781297391
4781303921
4781309903
4781316373
4781321194
4781327908
4781332059
4781338406
4781343167
4781349270
4781355435
4781361661
4781367154
4781372708
4781378567
4781383877
4781389859
4781396145
4781404263
4781409268
4781415371
4781420437
4781426358
4781430935
4781437100
4781443936
4781449612
4781454983
4781460171
4781466275
4781471829
4781476284
4781482571
4781488735
4781494412
4781499478
4781505154
4781510586
4781515469
4781521633
4781528652
4781533413
4781538540
4781543911
4781550503
4781556118
4781562161
4781568508
4781573452
4781580044
4781585598
4781590664
4781595913
4781602627
4781608730
4781615688
4781620937
4781627285
4781634182
4781638820
4781644802
4781650844
4781657802
4781662380
4781670192
4781675380
4781681179
4781686794
4781691005
4781699367
4781704250
4781710781
4781717067
4781722438
4781727199
4781733486
4781739589
4781753017
4781759243
4781764980
4781772792
4781781215
4781786769
4781792995
4781797756
4781803188
4781810085
4781815517
4781820339
4781826381
4781831447
4781837550
4781841762
4781847743
4781852260
4781859462
4781865382
4781870998
4781876979
4781882106
4781887172
4781892726
4781898341
4781903895
4781909816
4781916652
4781921779
4781927577
4781932216
4781938869
4781943263
4781949855
4781956019
4781961696
4781967738
4781972804
4781977931
4781984462
4781990199
4781995692
4782002467
4782007716
4782012538
4782018397
4782023341
4782030543
4782036525
4782040797
4782048915
4782054835
4782060389
4782065638
4782071131
4782078822
4782084376
4782090296
4782096766
4782102198
4782107264
4782112452
4782118434
4782124476
4782129664
4782136927
4782142970
4782149561
4782156397
4782161341
4782168787
4782175379
4782180384
4782186488
4782190394
4782198023
4782205408
4782210902
4782216395
4782221522
4782228663
4782233546
4782240320
4782245081
4782251978
4782257654
4782263819
4782269800
4782276331
4782282068
4782286829
4782292933
4782297083
4782303370
4782309107
4782314722
4782321314
4782326441
4782331873
4782338709
4782344629
4782350244
4782355188
4782360437
4782365686
4782371240
4782376551
4782382654
4782388269
4782394922
4782399378
4782404810
4782409509
4782415186
4782422205
4782426782
4782432947
4782438318
4782443750
4782449060
4782455652
4782461572
4782468225
4782474451
4782479822
4782486536
4782490930
4782497156
4782501855
4782507776
4782514978
4782520166
4782526025
4782531946
4782537805
4782544214
4782550134
4782554773
4782561059
4782565759
4782571740
4782576562
4782582971
4782589013
4782593774
4782600427
4782604516
4782610009
4782615503
4782621179
4782626489
4782631555
4782637292
4782644311
4782650109
4782654565
4782659814
4782666345
4782674157
4782679528
4782687585
4782694299
4782700952
4782707726
4782712670
4782718713
4782723962
4782731225
4782738854
4782744714
4782748803
4782755761
4782760461
4782765771
4782772363
4782778710
4782785241
4782791039
4782796410
4782802514
4782806969
4782813195
4782819298
4782825280
4782830590
4782836693
4782842614
4782848961
4782854516
4782859398
4782865563
4782870446
4782876671
4782882287
4782889000
4782893273
4782899804
4782905175
4782910851
4782916588
4782920800
4782927513
4782930504
4782938073
4782943077
4782950218
4782954674
4782960900
4782966149
4782970970
4782975670
4782982384
4782988243
4782992394
4782999291
4783004906
4783010521
4783014794
4783019859
4783026451
4783032066
4783038414
4783043114
4783047813
4783054771
4783062218
4783069969
4783077293
4783083092
4783089683
4783095665
4783101341
4783106712
4783112205
4783119652
4783125206
4783131004
4783136680
4783143577
4783149071
4783155967
4783161949
4783166771
4783172752
4783177391
4783183922
4783189659
4783195274
4783201805
4783206627
4783212974
4783219261
4783226463
4783231041
4783238365
4783244346
4783250389
4783255760
4783262229
4783268211
4783273887
4783279563
4783285789
4783292625
4783297569
4783303428
4783308067
4783313682
4783319480
4783324302
4783332603
4783336814
4783343040
4783348716
4783353538
4783360252
4783365073
4783372398
4783376731
4783384177
4783389854
4783395530
4783399558
4783406943
4783411948
4783418601
4783424216
4783430320
4783436057
4783440879
4783446311
4783452292
4783459495
4783464866
4783469809
4783474997
4783480063
4783485923
4783490928
4783497825
4783504050
4783508506
4783515036
4783520285
4783526694
4783532981
4783539511
4783544944
4783550193
4783556967
4783562949
4783568869
4783573752
4783580161
4783585898
4783591696
4783596640
4783601767
4783608420
4783613486
4783619833
4783626364
4783631186
4783636923
4783643210
4783649252
4783654746
4783659628
4783663901
4783671347
4783676718
4783682700
4783687033
4783693747
4783698324
4783704367
4783709372
4783716086
4783722800
4783726767
4783732321
4783737875
4783743857
4783751547
4783758932
4783764547
4783771505
4783776388
4783783102
4783788900
4783795553
4783800863
4783805136
4783812643
4783818563
4783824789
4783830099
4783836935
4783842489
4783848898
4783854391
4783859640
4783865927
4783871847
4783876242
4783882284
4783887960
4783893881
4783899069
4783904318
4783910116
4783916158
4783923910
4783929159
4783934225
4783939291
4783945882
4783950643
4783957052
4783963033
4783967306
4783973531
4783979757
4783984701
4783989767
4783994955
4784000875
4784006734
4784011739
4784018026
4784022909
4784028890
4784034078
4784039205
4784046163
4784053487
4784058736
4784063619
4784068807
4784075338
4784080220
4784085164
4784090352
4784096090
4784102987
4784108358
4784114583
4784119283
4784125692
4784132161
4784136800
4784144551
4784149495
4784154561
4784160848
4784166707
4784173543
4784179952
4784185384
4784191609
4784196248
4784202352
4784207723
4784213948
4784219502
4784226338
4784232198
4784236836
4784243794
4784248921
4784255574
4784261739
4784266927
4784272053
4784278950
4784284810
4784291707
4784298482
4784303242
4784310750
4784317464
4784324605
4784329121
4784335835
4784340474
4784347981
4784353962
4784361043
4784367146
4784373982
4784378560
4784384968
4784391743
4784397114
4784403035
4784409321
4784417134
4784423420
4784428547
4784433064
4784439228
4784444416
4784451008
4784457234
4784463459
4784469074
4784475178
4784480122
4784485432
4784492329
4784497639
4784502827
4784507832
4784514973
4784520771
4784527241
4784532673
4784537617
4784542561
4784548603
4784554646
4784559223
4784566425
4784571003
4784577534
4784584370
4784590778
4784598163
4784607258
4784612690
4784622394
4784629780
4784638935
4784647602
4784655109
4784662250
4784671528
4784677448
4784682392
4784690265
4784695942
4784701679
4784707050
4784712421
4784717792
4784724079
4784730487
4784735981
4784741718
4784747333
4784753437
4784759296
4784765216
4784771564
4784777545
4784784076
4784788715
4784795368
4784801349
4784806354
4784811176
4784818500
4784824420
4784829730
4784836627
4784842059
4784847064
4784854510
4784861774
4784869098
4784876300
4784880878
4784889484
4784894000
4784900653
4784906512
4784913470
4784919147
4784925982
4784931170
4784936969
4784941119
4784947589
4784954669
4784960040
4784966205
4784972796
4784977801
4784983966
4784988665
4784994952
4785001239
4785007220
4785012774
4785018206
4785024249
4785029193
4785034686
4785041278
4785046221
4785053607
4785059161
4785065508
4785069537
4785075640
4785083880
4785089556
4785094500
4785100726
4785105853
4785111102
4785117999
4785123431
4785129717
4785136553
4785140948
4785149310
4785154986
4785161211
4785167132
4785173540
4785180559
4785186602
4785191973
4785198626
4785204302
4785211016
4785216265
4785222613
4785227617
4785232622
4785239641
4785245440
4785251970
4785256487
4785262652
4785268694
4785274553
4785279863
4785286455
4785291399
4785298357
4785304949
4785308733
4785314959
4785321367
4785327471
4785331316
4785337419
4785344866
4785349932
4785355059
4785360796
4785367327
4785372576
4785380022
4785385332
4785391618
4785398027
4785404741
4785411577
4785417741
4785425676
4785430437
4785437761
4785444597
4785450212
4785455888
4785462053
4785468034
4785475603
4785481584
4785488481
4785493852
4785499406
4785505388
4785511003
4785518327
4785524797
4785531633
4785538041
4785542680
4785549272
4785553422
4785559404
4785566057
4785571794
4785576799
4785582719
4785588884
4785595536
4785601152
4785608293
4785613176
4785619157
4785623368
4785630143
4785636735
4785643022
4785648637
4785654130
4785659196
4785664018
4785669511
4785675736
4785682389
4785691056
4785696732
4785703263
4785710221
4785715897
4785722062
4785727921
4785733292
4785740434
4785745499
4785751847
4785757767
4785764725
4785771256
4785776749
4785782059
4785790055
4785795426
4785801285
4785807084
4785812516
4785819291
4785825638
4785830643
4785836564
4785844437
4785850541
4785855179
4785862320
4785866532
4785873246
4785877640
4785885575
4785891556
4785897355
4785903031
4785909989
4785915177
4785922135
4785928421
4785934586
4785941910
4785946610
4785952835
4785958573
4785965225
4785971695
4785978958
4785984207
4785991532
4785999161
4786005631
4786011612
4786016434
4786023575
4786030899
4786036819
4786043289
4786048660
4786054031
4786061172
4786067459
4786073746
4786078995
4786085586
4786093460
4786097732
4786104935
4786109817
4786117447
4786122391
4786129043
4786134109
4786139480
4786146682
4786152115
4786158889
4786164993
4786169754
4786176101
4786181228
4786187820
4786193069
4786200759
4786206314
4786213272
4786218765
4786224441
4786230117
4786236770
4786243423
4786249343
4786255447
4786261123
4786267471
4786273940
4786280349
4786285964
4786291946
4786297317
4786303603
4786309036
4786315322
4786320571
4786326003
4786332900
4786338515
4786345168
4786350234
4786356399
4786363479
4786368056
4786375136
4786381057
4786387649
4786393142
4786400161
4786404067
4786412002
4786417434
4786421645
4786428359
4786434035
4786441115
4786446547
4786453322
4786457595
4786464248
4786470046
4786476577
4786483229
4786487502
4786493727
4786500441
4786506179
4786512587
4786519240
4786525161
4786532363
4786539382
4786548293
4786555739
4786561110
4786568617
4786573683
4786579787
4786586379
4786592482
4786600417
4786606398
4786613051
4786618666
4786626479
4786630995
4786636732
4786646193
4786651991
4786655714
4786665358
4786671767
4786679091
4786683668
4786691481
4786697035
4786703261
4786708143
4786713820
4786718275
4786724440
4786729750
4786735121
4786742262
4786748366
4786753492
4786757521
4786763380
4786768507
4786773695
4786780714
4786786695
4786792067
4786798780
4786802687
4786810072
4786815809
4786820021
4786825880
4786830152
4786836317
4786844068
4786849989
4786856947
4786867262
4786872694
4786879591
4786885694
4786891615
4786897047
4786904127
4786910108
4786915723
4786922315
4786928602
4786934339
4786939588
4786945631
4786952283
4786957532
4786962598
4786966871
4786973279
4786978712
4786985425
4786989881
4786995862
4787000257
4787006421
4787010694
4787016492
4787022413
4787027845
4787033643
4787039197
4787045179
4787051770
4787057447
4787062391
4787070081
4787078565
4787087354
4787093579
4787099866
4787106824
4787112317
4787118238
4787127088
4787133496
4787138990
4787145215
4787152600
4787157483
4787163892
4787169812
4787178723
4787185071
4787190869
4787196607
4787204175
4787209729
4787214246
4787220349
4787225171
4787230054
4787236646
4787241772
4787248425
4787254346
4787260388
4787265393
4787270520
4787277173
4787282483
4787288098
4787293896
4787300427
4787305432
4787311535
4787317029
4787322705
4787327893
4787333447
4787339184
4787345044
4787351086
4787356640
4787363598
4787368359
4787375012
4787380688
4787385144
4787391003
4787395703
4787401196
4787409008
4787414257
4787419751
4787425671
4787432202
4787437939
4787442944
4787449597
4787455029
4787460644
4787466198
4787472729
4787477368
4787484081
4787490795
4787496777
4787501782
4787505871
4787512768
4787517468
4787522900
4787529186
4787535107
4787541393
4787546520
4787552624
4787557262
4787562023
4787567943
4787572643
4787579723
4787584179
4787588878
4787593944
4787602978
4787610485
4787616710
4787626232
4787631786
4787637706
4787643871
4787649547
4787656933
4787662975
4787669628
4787673778
4787680248
4787684764
4787691234
4787697826
4787706615
4787713146
4787719005
4787723094
4787729259
4787734813
4787739940
4787744518
4787750377
4787756969
4787763683
4787768932
4787775768
4787781322
4787786327
4787791210
4787797130
4787802928
4787807628
4787813609
4787820445
4787826122
4787830882
4787838878
4787843761
4787849376
4787854625
4787860545
4787866710
4787871654
4787876720
4787883739
4787889171
4787895946
4787901073
4787907176
4787910960
4787916820
4787921824
4787940135
4787946177
4787953135
4787958934
4787964915
4787971446
4787976817
4787983470
4787987559
4787993785
4787998301
4788005259
4788010630
4788015940
4788021006
4788026377
4788031565
4788036997
4788042369
4788049082
4788054392
4788059825
4788065928
4788070262
4788077036
4788082408
4788089182
4788094615
4788098643
4788105601
4788110789
4788118296
4788122813
4788130137
4788135142
4788144785
4788150706
4788159617
4788165903
4788172678
4788177805
4788183176
4788191599
4788197886
4788203318
4788209604
4788216135
4788223704
4788228037
4788234690
4788244028
4788249033
4788254526
4788260508
4788266489
4788272287
4788277720
4788283579
4788290110
4788294504
4788300730
4788305857
4788311533
4788316782
4788320993
4788327341
4788333750
4788339792
4788345712
4788351389
4788356027
4788362314
4788367624
4788372324
4788377573
4788383676
4788387888
4788394602
4788399912
4788406686
4788411264
4788417795
4788423776
4788429514
4788435190
4788441598
4788446664
4788451181
4788457590
4788463083
4788468881
4788473886
4788480173
4788484811
4788490732
4788496530
4788500863
4788506051
4788510568
4788515451
4788521005
4788526376
4788529367
4788534860
4788540719
4788544992
4788549447
4788554147
4788558725
4788563607
4788567209
4788571176
4788577462
4788582223
4788586679
4788591439
4788596139
4788600534
4788605600
4788610726
4788615121
4788619821
4788625375
4788631845
4788636910
4788642892
4788647897
4788653085
4788656991
4788662484
4788666146
4788673165
4788678903
4788683724
4788687753
4788693673
4788698922
4788706979
4788712228
4788717721
4788724129
4788729501
4788733651
4788738107
4788742318
4788746224
4788752999
4788758431
4788762948
4788766915
4788770943
4788776314
4788780770
4788785226
4788790536
4788796090
4788799874
4788804635
4788810128
4788814156
4788819344
4788824715
4788828988
4788834725
4788839058
4788843880
4788848580
4788853280
4788859749
4788864571
4788869942
4788873299
4788878304
4788884163
4788889595
4788892891
4788898445
4788903633
4788909188
4788913216
4788917366
4788921822
4788926216
4788930916
4788936531
4788940682
4788946236
4788950691
4788956551
4788960396
4788964668
4788969063
4788972908
4788979683
4788983955
4788989327
4788993111
4789000923
4789005562
4789011055
4789016609
4789020088
4789025337
4789031075
4789036629
4789040291
4789047188
4789052803
4789058235
4789064033
4789068428
4789072273
4789078621
4789086555
4789092415
4789098030
4789103157
4789108650
4789114143
4789120064
4789125740
4789131355
4789137153
4789142708
4789148079
4789153816
4789157844
4789163948
4789171089
4789175666
4789181465
4789185432
4789193122
4789198677
4789204780
4789209236
4789215950
4789221321
4789225654
4789230781
4789236518
4789243415
4789248786
4789254585
4789261360
4789265327
4789270820
4789276801
4789282844
4789288886
4789295051
4789300117
4789305427
4789309638
4789316108
4789320564
4789326240
4789332221
4789337775
4789343024
4789348579
4789353828
4789358893
4789364326
4789371039
4789376288
4789382331
4789387458
4789393195
4789398932
4789404181
4789410224
4789415473
4789422309
4789428779
4789435798
4789441169
4789447883
4789453742
4789460761
4789467658
4789474433
4789479621
4789486518
4789489936
4789496222
4789502692
4789510321
4789515814
4789522467
4789527716
4789532599
4789538642
4789544013
4789548834
4789555853
4789560004
4789565619
4789572638
4789577643
4789584723
4789590643
4789594794
4789601752
4789608527
4789613593
4789619879
4789626105
4789632330
4789638556
4789644842
4789650641
4789657782
4789664191
4789670782
4789677313
4789683966
4789688482
4789697211
4789704962
4789709967
4789715216
4789721319
4789728949
4789734320
4789740728
4789746100
4789752142
4789757696
4789763861
4789769049
4789775396
4789780401
4789786932
4789793341
4789800238
4789804754
4789811773
4789816534
4789823919
4789830084
4789836492
4789842169
4789847723
4789853399
4789858282
4789864080
4789869573
4789873663
4789878545
4789885442
4789890447
4789897283
4789901922
4789907476
4789912969
4789917791
4789924444
4789931097
4789937261
4789942022
4789947393
4789951665
4789957525
4789962347
4789967718
4789974065
4789981084
4789986150
4789991704
4789996465
4790002874
4790005864
4790011114
4790016668
4790022954
4790027959
4790036199
4790043035
4790050054
4790054326
4790064153
4790068608
4790078252
4790084478
4790091802
4790098821
4790101140
4790112737
4790118108
4790127141
4790136174
4790146855
4790153142
4790160161
4790169499
4790176701
4790182927
4790191228
4790198369
4790206242
4790212590
4790220158
4790228093
4790236272
4790242009
4790249516
4790254704
4790263005
4790270390
4790278874
4790288212
4790296391
4790304814
4790316105
4790324284
4790333195
4790340336
4790345829
4790358647
4790366032
4790375126
4790383915
4790390568
4790400883
4790408085
4790417485
4790421879
4790429142
4790437443
4790444401
4790453068
4790459355
4790465214
4790471745
4790478581
4790486759
4790495487
4790502323
4790508305
4790519535
4790523930
4790533329
4790539677
4790547550
4790553348
4790557987
4790570438
4790576115
4790584781
4790592655
4790601017
4790607731
4790614383
4790623111
4790631351
4790633609
4790646549
4790653934
4790664127
4790672672
4790682010
4790688175
4790696414
4790703922
4790711124
4790718326
4790728214
4790735111
4790744937
4790749576
4790758670
4790767093
4790773563
4790783084
4790788028
4790795963
4790805362
4790817447
4790823123
4790831363
4790838504
4790845340
4790853274
4790860843
4790866702
4790875247
4790885562
4790892337
4790899295
4790907779
4790915713
4790922366
4790928286
4790935672
4790942080
4790952395
4790959109
4790966555
4790972842
4790980593
4790987246
4790992251
4790999575
4791008364
4791016421
4791023562
4791032534
4791040469
4791046206
4791054507
4791063784
4791069949
4791074770
4791086245
4791093935
4791102663
4791110537
4791117129
4791126406
4791133669
4791139284
4791147219
4791154177
4791164370
4791174135
4791181521
4791189272
4791196779
4791204592
4791212221
4791222231
4791227541
4791237368
4791247011
4791257387
4791266848
4791275698
4791282228
4791286745
4791299379
4791306154
4791314089
4791320192
4791332643
4791340212
4791344728
4791354677
4791362062
4791368654
4791376466
4791383791
4791392519
4791401918
4791408632
4791415468
4791424257
4791430055
4791437929
4791443971
4791448549
4791455385
4791461305
4791467287
4791472841
4791478395
4791482667
4791488527
4791493226
4791500368
4791506776
4791514039
4791518861
4791523683
4791530092
4791534303
4791541078
4791545900
4791551454
4791557740
4791562989
4791568483
4791573854
4791578675
4791585817
4791591188
4791597413
4791603273
4791612001
4791618775
4791626344
4791631532
4791638307
4791643556
4791650697
4791654420
4791662171
4791667542
4791673890
4791679688
4791684876
4791692017
4791696900
4791703553
4791710450
4791717591
4791724732
4791728455
4791735169
4791741212
4791745301
4791751893
4791759217
4791764832
4791770875
4791774842
4791781129
4791787964
4791793641
4791800660
4791805970
4791814271
4791823365
4791828736
4791838868
4791846497
4791853394
4791861451
4791868958
4791875306
4791884888
4791892273
4791901123
4791906311
4791915589
4791920044
4791931885
4791939026
4791947632
4791953919
4791963257
4791972595
4791978272
4791987610
4791997681
4792003967
4792013794
4792022400
4792029175
4792038879
4792048950
4792055237
4792060852
4792069702
4792076660
4792085266
4792093200
4792098205
4792106384
4792112365
4792121032
4792126892
4792134643
4792138794
4792147522
4792156677
4792165893
4792171569
4792179321
4792188232
4792194091
4792200439
4792206298
4792212402
4792219299
4792226013
4792231689
4792240661
4792245971
4792253539
4792259887
4792267150
4792273132
4792280761
4792284850
4792294494
4792300903
4792311706
4792317809
4792324584
4792331298
4792336059
4792343749
4792352233
4792356994
4792366027
4792373473
4792383788
4792388488
4792397338
4792401488
4792413390
4792420531
4792426879
4792435424
4792445556
4792452575
4792457335
4792467101
4792475157
4792481749
4792491088
4792496092
4792504576
4792514159
4792521971
4792531249
4792535948
4792546263
4792553343
4792559142
4792568968
4792573912
4792580748
4792591429
4792598875
4792606627
4792614928
4792621275
4792627684
4792633787
4792641600
4792648192
4792657652
4792664793
4792671324
4792678587
4792685118
4792696165
4792701353
4792710325
4792715208
4792726011
4792734312
4792742369
4792749205
4792754210
4792766661
4792773741
4792780455
4792786619
4792796080
4792803099
4792811521
4792820127
4792828062
4792834776
4792843870
4792852415
4792858701
4792868772
4792875364
4792885679
4792895322
4792902341
4792909116
4792919553
4792925840
4792933652
4792941038
4792947935
4792954221
4792962583
4792970823
4792979185
4792987180
4792993345
4792999753
4793006101
4793012693
4793018735
4793025815
4793032346
4793040097
4793044370
4793050901
4793054929
4793061338
4793066953
4793072446
4793079709
4793084226
4793089048
4793095456
4793100461
4793106076
4793111203
4793117002
4793122678
4793128903
4793132993
4793138242
4793144589
4793150388
4793153439
4793159726
4793165646
4793171689
4793177060
4793183225
4793188168
4793194394
4793199033
4793204587
4793210507
4793217160
4793222592
4793229672
4793236508
4793243344
4793249814
4793254391
4793261044
4793271298
4793278622
4793284360
4793288388
4793294980
4793301449
4793307309
4793314145
4793318844
4793324215
4793330441
4793336056
4793341305
4793345700
4793351803
4793358334
4793362301
4793368161
4793374264
4793380795
4793387387
4793393551
4793400631
4793407528
4793414364
4793420468
4793428341
4793432003
4793436947
4793442867
4793449825
4793455258
4793459774
4793465939
4793472347
4793479122
4793492489
4793502316
4793510250
4793521542
4793528927
4793540157
4793549557
4793557308
4793569271
4793579159
4793587337
4793594295
4793602779
4793610164
4793617428
4793625606
4793635677
4793644832
4793651302
4793658809
4793665950
4793674190
4793681758
4793690364
4793697811
4793706539
4793713558
4793720699
4793728328
4793734493
4793745784
4793753047
4793760738
4793769588
4793776546
4793784602
4793791805
4793799373
4793808162
4793814937
4793822322
4793830012
4793838435
4793844295
4793852412
4793859859
4793869075
4793878230
4793882258
4793893367
4793900264
4793907832
4793915400
4793923396
4793930903
4793940181
4793947566
4793954707
4793961482
4793971186
4793978633
4793987300
4793993952
4794000788
4794007868
4794016474
4794024409
4794030634
4794040095
4794049494
4794056880
4794063288
4794070612
4794078791
4794086604
4794093806
4794103449
4794110224
4794118891
4794124689
4794133295
4794140742
4794148615
4794156916
4794167109
4794175776
4794182551
4794192072
4794198969
4794209162
4794215387
4794224848
4794231745
4794241327
4794247858
4794257685
4794266779
4794275202
4794283014
4794292658
4794298883
4794310358
4794319147
4794326532
4794334528
4794343195
4794362726
4794381464
4794400140
4794418390
4794439081
4794460077
4794478998
4794498712
4794518914
4794538873
4794550714
4794560052
4794569757
4794584527
4794598016
4794613030
4794627252
4794642449
4794652581
4794660577
4794668755
4794675835
4794684991
4794692742
4794700433
4794706963
4794715264
4794723321
4794730706
4794738274
4794745049
4794753533
4794760064
4794767998
4794776055
4794783501
4794791741
4794800591
4794808465
4794816460
4794824761
4794832817
4794841057
4794848442
4794855522
4794864800
4794870720
4794880547
4794888115
4794895745
4794902825
4794911247
4794918083
4794925408
4794934075
4794942864
4794948845
4794958611
4794965935
4794971123
4794980400
4794986992
4794997490
4795001701
4795010246
4795014702
4795019829
4795024223
4795030266
4795036003
4795040214
4795045524
4795050651
4795056022
4795059868
4795065849
4795070549
4795078239
4795082206
4795088920
4795093986
4795101249
4795110588
4795116203
4795121391
4795127006
4795133476
4795138359
4795143364
4795147697
4795153495
4795159782
4795164238
4795170951
4795176139
4795182060
4795187065
4795192192
4795196403
4795200920
4795206291
4795210990
4795217033
4795222038
4795226188
4795229911
4795235160
4795239005
4795243156
4795247672
4795253349
4795257560
4795263175
4795266776
4795272819
4795276237
4795285392
4795289481
4795293082
4795296928
4795301322
4795306815
4795310660
4795316398
4795323234
4795327689
4795331351
4795336295
4795340018
4795345389
4795350150
4795356315
4795361320
4795365775
4795370231
4795373710
4795378165
4795382926
4795386527
4795392875
4795396964
4795400687
4795406302
4795410758
4795417289
4795421744
4795427665
4795435416
4795439383
4795445792
4795449271
4795454642
4795458365
4795465323
4795468924
4795476187
4795481070
4795485526
4795491568
4795496268
4795502066
4795506156
4795510245
4795519034
4795525137
4795529105
4795534903
4795539603
4795547232
4795553030
4795560111
4795566092
4795572012
4795576895
4795581778
4795586111
4795591299
4795597281
4795603628
4795610525
4795618460
4795626150
4795631888
4795639273
4795644888
4795650870
4795660391
4795665091
4795669974
4795674795
4795679312
4795686636
4795692312
4795697928
4795702078
4795708914
4795713797
4795718802
4795723013
4795727774
4795732595
4795739737
4795747000
4795752066
4795757193
4795762197
4795768728
4795775015
4795778311
4795785574
4795790640
4795797170
4795803579
4795809744
4795813162
4795820181
4795826956
4795833669
4795838796
4795846914
4795851797
4795859304
4795862966
4795869314
4795876577
4795881033
4795888540
4795892385
4795900137
4795906179
4795912527
4795918630
4795924062
4795928579
4795935659
4795941701
4795947561
4795952077
4795957509
4795962575
4795967519
4795971914
4795977712
4795985158
4795991018
4795996694
4796003408
4796008046
4796012746
4796018544
4796023732
4796032094
4796037831
4796043508
4796049001
4796054860
4796059560
4796067800
4796072072
4796078420
4796083180
4796088857
4796094716
4796100148
4796107472
4796111928
4796116567
4796124074
4796128224
4796136281
4796140920
4796146169
4796152394
4796158986
4796164418
4796168385
4796174733
4796182790
4796186879
4796194203
4796201100
4796207448
4796213978
4796220082
4796227467
4796233143
4796238698
4796241933
4796249318
4796255360
4796262440
4796267872
4796273427
4796278737
4796284596
4796289113
4796294728
4796300160
4796306202
4796312184
4796316151
4796323536
4796328907
4796333119
4796338002
4796344593
4796349293
4796356373
4796360279
4796367054
4796371876
4796376637
4796382008
4796387562
4796393849
4796398487
4796403858
4796410084
4796416554
4796422291
4796427113
4796432484
4796437367
4796443287
4796449452
4796455921
4796462025
4796468800
4796473804
4796479542
4796484669
4796492115
4796496937
4796501453
4796509022
4796514149
4796519276
4796524769
4796531177
4796535999
4796541736
4796547474
4796553089
4796560474
4796564869
4796569935
4796577564
4796583912
4796587879
4796595325
4796599964
4796608020
4796613392
4796619312
4796626148
4796633167
4796638355
4796644458
4796649402
4796658191
4796661975
4796668872
4796675220
4796681079
4796686084
4796692981
4796698902
4796703418
4796708423
4796714588
4796719592
4796725757
4796731555
4796738452
4796744312
4796749683
4796755420
4796761096
4796767993
4796773364
4796779041
4796784351
4796789844
4796795215
4796804431
4796810962
4796818225
4796822131
4796830859
4796836474
4796842151
4796847949
4796854175
4796861011
4796867053
4796874499
4796879077
4796884509
4796891345
4796897570
4796903674
4796908618
4796918078
4796923693
4796929126
4796934741
4796940478
4796944934
4796950854
4796958972
4796963366
4796970263
4796975268
4796980822
4796987170
4796991870
4797000231
4797004382
4797011279
4797016528
4797021594
4797026232
4797032275
4797038928
4797044848
4797050219
4797056200
4797062182
4797066393
4797072497
4797078905
4797083361
4797087817
4797096361
4797102526
4797106860
4797113512
4797118212
4797124987
4797130541
4797135424
4797144762
4797150072
4797156969
4797161547
4797167895
4797174914
4797181139
4797186632
4797192614
4797197802
4797204027
4797210558
4797215502
4797219957
4797228502
4797233446
4797239366
4797244982
4797250841
4797253771
4797261095
4797268480
4797272020
4797279100
4797285387
4797291673
4797295824
4797302233
4797306749
4797314195
4797318895
4797324754
4797330858
4797337633
4797343004
4797349107
4797354356
4797359850
4797365038
4797371202
4797375475
4797381761
4797390550
4797395921
4797399522
4797407152
4797412584
4797421251
4797426378
4797432908
4797442186
4797447191
4797452989
4797459154
4797464036
4797469896
4797477525
4797482225
4797488145
4797494371
4797500230
4797504869
4797510728
4797516038
4797521592
4797528611
4797534410
4797541185
4797547593
4797551866
4797558274
4797562730
4797570237
4797574815
4797580186
4797585374
4797591233
4797599473
4797604295
4797611375
4797616197
4797621201
4797625657
4797631516
4797638108
4797643784
4797649217
4797654588
4797660386
4797666123
4797671311
4797675401
4797681931
4797688157
4797692796
4797699876
4797706101
4797709702
4797716050
4797721848
4797728562
4797733506
4797738572
4797744675
4797751938
4797756699
4797763535
4797768723
4797775315
4797779892
4797787217
4797792832
4797798630
4797803513
4797809372
4797814133
4797821946
4797825302
4797833969
4797839829
4797843918
4797849716
4797855271
4797860398
4797866196
4797874253
4797880295
4797886521
4797891037
4797897263
4797902634
4797908554
4797913681
4797919846
4797926987
4797931748
4797936813
4797941818
4797947189
4797953049
4797959091
4797964157
4797972336
4797976974
4797982590
4797988144
4797993271
4797998947
4798004806
4798011581
4798018417
4798029892
4798034286
4798040146
4798046371
4798050583
4798058456
4798065536
4798070663
4798076400
4798082992
4798088058
4798093979
4798100631
4798106430
4798112960
4798118942
4798124984
4798130477
4798136398
4798141464
4798147506
4798153610
4798159591
4798163986
4798170883
4798175888
4798181991
4798186386
4798191879
4798200302
4798206100
4798210433
4798215865
4798222579
4798227584
4798232528
4798237533
4798244003
4798249496
4798255538
4798260238
4798268417
4798273177
4798278548
4798283065
4798289413
4798297469
4798303634
4798309981
4798315902
4798320602
4798326034
4798330672
4798336959
4798344100
4798350448
4798354720
4798360152
4798366988
4798374068
4798379073
4798384505
4798389815
4798396041
4798401473
4798407088
4798412703
4798417830
4798423323
4798428145
4798436141
4798440596
4798446822
4798453170
4798459822
4798464400
4798469954
4798474227
4798480879
4798487410
4798494307
4798500777
4798506575
4798511092
4798516402
4798522139
4798528853
4798534224
4798540450
4798546370
4798550520
4798555159
4798561568
4798566634
4798571700
4798578047
4798591719
4798596724
4798603621
4798610335
4798617415
4798627424
4798633772
4798639204
4798643660
4798649153
4798655134
4798661421
4798667647
4798673323
4798678755
4798684858
4798690535
4798696333
4798701765
4798707563
4798711897
4798717634
4798725447
4798731306
4798735884
4798743452
4798747785
4798753767
4798758833
4798763777
4798769880
4798775251
4798782575
4798787763
4798792646
4798797163
4798803144
4798809126
4798815717
4798821027
4798827375
4798830122
4798837324
4798843061
4798849104
4798853681
4798860029
4798868635
4798872785
4798879926
4798885114
4798892133
4798897077
4798904890
4798910322
4798917036
4798923994
4798929487
4798933637
4798939802
4798945905
4798951948
4798958600
4798963849
4798971784
4798975812
4798982770
4798987836
4798995649
4799000165
4799005658
4799012311
4799018720
4799023114
4799030439
4799035749
4799043012
4799047834
4799054486
4799058209
4799065534
4799072675
4799077313
4799082318
4799088849
4799093915
4799101239
4799105695
4799113385
4799121564
4799124493
4799131024
4799134625
4799141095
4799147015
4799153546
4799159100
4799167035
4799171796
4799177838
4799182721
4799187360
4799194562
4799202313
4799210919
4799216656
4799225445
4799232037
4799235394
4799242230
4799247479
4799254864
4799261639
4799266705
4799273724
4799280438
4799285870
4799292889
4799297406
4799305951
4799311200
4799316510
4799323468
4799330914
4799338116
4799344158
4799350201
4799355206
4799360150
4799365582
4799370587
4799376324
4799381207
4799386761
4799392254
4799398663
4799405438
4799412151
4799417767
4799422039
4799426861
4799434918
4799439617
4799443951
4799451702
4799455730
4799464153
4799469219
4799476910
4799481182
4799487225
4799492290
4799499309
4799505352
4799511150
4799515667
4799521892
4799527996
4799533977
4799538555
4799543194
4799552410
4799557598
4799563030
4799568584
4799574932
4799579509
4799586712
4799591594
4799598919
4799603557
4799609172
4799615032
4799620769
4799625469
4799631816
4799637004
4799643047
4799649761
4799655193
4799660442
4799666851
4799672466
4799678020
4799683452
4799689006
4799695781
4799700725
4799706462
4799710918
4799716228
4799721111
4799727519
4799733379
4799740459
4799745952
4799751994
4799756938
4799764934
4799768901
4799777141
4799780803
4799788066
4799795390
4799801311
4799805827
4799813640
4799818400
4799825908
4799832255
4799838542
4799844462
4799851420
4799858317
4799864421
4799870646
4799877971
4799882914
4799889567
4799895854
4799902018
4799907328
4799912944
4799918559
4799923014
4799928263
4799935771
4799941813
4799948649
4799953166
4799959330
4799964518
4799971720
4799976481
4799981852
4799988993
4799995585
4800001627
4800006327
4800014018
4800019572
4800024760
4800029765
4800037333
4800042948
4800047160
4800054301
4800059794
4800065165
4800070841
4800076029
4800080790
4800089152
4800093912
4800099039
4800105265
4800111918
4800117289
4800122416
4800127543
4800135660
4800141215
4800146647
4800151590
4800157450
4800163553
4800169535
4800174784
4800179728
4800186014
4800192423
4800196939
4800201639
4800208780
4800215372
4800220743
4800225870
4800231790
4800237589
4800243570
