4703809369
4703814435
4703819318
4703824200
4703828900
4703838971
4703844525
4703849591
4703854718
4703860028
4703864972
4703871197
4703876324
4703881146
4703887494
4703892376
4703898053
4703902203
4703908490
4703913739
4703920025
4703925335
4703930829
4703937970
4703944195
4703950482
4703955914
4703961346
4703966961
4703971966
4703979107
4703985882
4703992535
4703999188
4704006573
4704013226
4704020306
4704027142
4704033001
4704041302
4704046124
4704053753
4704062054
4704067730
4704075176
4704081585
4704089153
4704095257
4704102825
4704110699
4704118084
4704124798
4704130352
4704137920
4704143658
4704150616
4704158733
4704165630
4704172222
4704179485
4704186443
4704192302
4704201030
4704208111
4704216228
4704221599
4704229656
4704237224
4704244060
4704252178
4704260723
4704267559
4704273723
4704280559
4704289226
4704298015
4704306438
4704314739
4704321269
4704327800
4704336711
4704344829
4704352702
4704359538
4704368510
4704375224
4704384868
4704390910
4704398906
4704405864
4704413493
4704420756
4704429729
4704436626
4704444377
4704451640
4704457072
4704466716
4704473979
4704482036
4704489421
4704496928
4704505778
4704513835
4704522319
4704530803
4704538493
4704547953
4704554545
4704562602
4704570719
4704577494
4704587199
4704594706
4704601786
4704609294
4704614787
4704623759
4704631388
4704643168
4704651957
4704659220
4704666239
4704673258
4704681071
4704690226
4704697428
4704704508
4704712687
4704719584
4704728251
4704736185
4704743876
4704751383
4704758829
4704766886
4704773417
4704781473
4704787882
4704796976
4704802408
4704811441
4704818338
4704824381
4704832315
4704842936
4704853495
4704857584
4704870279
4704876444
4704884622
4704893045
4704900369
4704907389
4704915811
4704922281
4704931009
4704938455
4704944925
4704950906
4704959329
4704966592
4704972940
4704979105
4704987100
4704994363
4705001260
4705009317
4705018594
4705024087
4705031717
4705039346
4705045511
4705053689
4705063516
4705072061
4705079446
4705087320
4705094095
4705101968
4705106302
4705117715
4705122110
4705132730
4705136880
4705146218
4705153115
4705161172
4705169900
4705178689
4705186135
4705194375
4705198525
4705207986
4705214822
4705225259
4705229531
4705239663
4705247353
4705255349
4705261086
4705270181
4705274758
4705283852
4705292458
4705300820
4705309182
4705317300
4705321572
4705333230
4705340737
4705348427
4705355752
4705363564
4705371865
4705381936
4705388833
4705395669
4705401955
4705411049
4705416787
4705424721
4705433205
4705439858
4705446205
4705455483
4705462746
4705469887
4705477883
4705485512
4705492653
4705502480
4705509316
4705516396
4705522621
4705531471
4705538368
4705545509
4705554176
4705560890
4705567970
4705576332
4705581215
4705590858
4705599037
4705605934
4705612587
4705621437
4705628700
4705639259
4705646644
4705653480
4705660377
4705669105
4705676674
4705685707
4705692238
4705701515
4705707191
4705716652
4705723182
4705732643
4705740089
4705747840
4705753517
4705762001
4705766761
4705775611
4705782630
4705789649
4705798255
4705807105
4705812538
4705821266
4705829078
4705834876
4705841834
4705850745
4705858741
4705866615
4705874915
4705882484
4705889808
4705897437
4705904761
4705913245
4705919654
4705927161
4705933692
4705940040
4705947303
4705954017
4705960975
4705969153
4705976966
4705984290
4705992347
4705999976
4706007605
4706014808
4706023108
4706027198
4706037085
4706045386
4706051551
4706060767
4706067725
4706074500
4706079993
4706090369
4706096594
4706104895
4706111914
4706117835
4706126685
4706132422
4706144019
4706149085
4706156165
4706164710
4706172034
4706177405
4706186560
4706193030
4706202368
4706209387
4706216833
4706222876
4706230261
4706239599
4706245825
4706254126
4706262488
4706273596
4706281836
4706289404
4706295019
4706302771
4706307959
4706316320
4706321447
4706329138
4706336950
4706342871
4706347509
4706355566
4706360876
4706366674
4706371618
4706379553
4706386694
4706391943
4706398535
4706403845
4706410436
4706415624
4706421667
4706428381
4706435278
4706440588
4706447302
4706452612
4706458715
4706465490
4706470983
4706477941
4706484106
4706490514
4706496984
4706501928
4706509557
4706514257
4706521398
4706527379
4706533910
4706538793
4706546178
4706551488
4706555517
4706563085
4706568639
4706576207
4706582128
4706589086
4706594823
4706601964
4706607457
4706614537
4706621495
4706627599
4706633580
4706639440
4706645177
4706650914
4706656652
4706663549
4706668798
4706672765
4706680516
4706686009
4706693028
4706697362
4706703954
4706708775
4706715062
4706720433
4706727086
4706733922
4706739781
4706743932
4706751988
4706757665
4706762120
4706769994
4706775243
4706780858
4706786839
4706792088
4706798009
4706804845
4706810399
4706816380
4706821751
4706826451
4706832188
4706838414
4706842869
4706848912
4706855443
4706861424
4706867528
4706873448
4706879490
4706883702
4706891514
4706895604
4706902195
4706905003
4706912754
4706918126
4706924107
4706931004
4706935215
4706941197
4706946995
4706953526
4706957493
4706964024
4706971836
4706976475
4706984471
4706989964
4706996556
4707000950
4707007542
4707013462
4707019932
4707025181
4707031162
4707035374
4707041477
4707047703
4707053501
4707059971
4707065342
4707070652
4707076817
4707082188
4707087376
4707093845
4707100071
4707105015
4707111362
4707117954
4707125217
4707130344
4707137852
4707147068
4707152866
4707162998
4707171055
4707177280
4707182773
4707187534
4707195957
4707202121
4707206760
4707211399
4707217075
4707221958
4707228061
4707235447
4707239658
4707245517
4707251499
4707256870
4707260837
4707268222
4707274326
4707280612
4707285251
4707290988
4707296482
4707302036
4707308139
4707312229
4707318942
4707324802
4707330112
4707336093
4707340610
4707346164
4707351779
4707358615
4707363986
4707368625
4707373752
4707378940
4707383884
4707389377
4707395114
4707402682
4707408908
4707413974
4707420627
4707425693
4707431064
4707437167
4707444369
4707450473
4707455539
4707458224
4707467074
4707472934
4707477878
4707484408
4707490390
4707496859
4707501193
4707508639
4707512973
4707520968
4707526889
4707531710
4707536959
4707543124
4707548373
4707554965
4707560275
4707566561
4707572238
4707577487
4707584139
4707589938
4707594882
4707602328
4707607150
4707614535
4707618990
4707625582
4707631442
4707636324
4707642855
4707649447
4707655062
4707661959
4707669222
4707674715
4707681856
4707685885
4707695162
4707700838
4707707552
4707714022
4707719515
4707725802
4707730135
4707736788
4707743441
4707749056
4707755648
4707760348
4707765963
4707772005
4707776888
4707783541
4707790804
4707795076
4707803072
4707808138
4707813631
4707819857
4707824862
4707830904
4707838472
4707842318
4707848482
4707854341
4707860262
4707865694
4707872591
4707878328
4707884249
4707890352
4707895113
4707901277
4707907686
4707914034
4707919344
4707924898
4707930147
4707936067
4707941499
4707948213
4707954683
4707958955
4707965059
4707970735
4707976289
4707982088
4707987215
4707993928
4707998201
4708004732
4708010225
4708016145
4708022249
4708027315
4708033845
4708040925
4708047700
4708052400
4708059236
4708064851
4708070161
4708075715
4708082124
4708087556
4708093599
4708099519
4708104890
4708110505
4708116182
4708121736
4708127595
4708133271
4708139314
4708147126
4708152619
4708158296
4708164155
4708169343
4708176179
4708180879
4708186799
4708191682
4708197968
4708204865
4708209992
4708216706
4708224397
4708231538
4708237336
4708246186
4708250825
4708257539
4708261811
4708269746
4708274262
4708280732
4708285432
4708292451
4708297822
4708304047
4708309052
4708315156
4708321015
4708326630
4708332551
4708338349
4708342988
4708348542
4708355622
4708361054
4708365937
4708371796
4708376252
4708382355
4708387177
4708393097
4708399140
4708404694
4708409882
4708415680
4708421112
4708426850
4708431061
4708438690
4708444672
4708449555
4708455414
4708459992
4708464508
4708470612
4708476532
4708482758
4708487702
4708493500
4708499298
4708504730
4708510346
4708514801
4708523163
4708525971
4708533783
4708537994
4708544159
4708549530
4708555450
4708562531
4708567841
4708572906
4708578217
4708584015
4708588165
4708594452
4708601044
4708606293
4708611236
4708617523
4708621734
4708627960
4708633026
4708638946
4708646026
4708650177
4708657440
4708662994
4708668426
4708674408
4708679229
4708683746
4708690155
4708696685
4708702606
4708706756
4708712432
4708717559
4708723968
4708732330
4708737823
4708744842
4708751373
4708757293
4708764007
4708771087
4708777496
4708783477
4708790069
4708795928
4708800994
4708806732
4708813323
4708820159
4708824676
4708831817
4708836822
4708843414
4708848907
4708855926
4708860625
4708866973
4708873077
4708878997
4708885528
4708890227
4708896819
4708902984
4708908599
4708912627
4708918731
4708924468
4708930511
4708935576
4708943145
4708948150
4708953887
4708959868
4708964568
4708969878
4708977507
4708982085
4708988433
4708993560
4708999480
4709004424
4709010466
4709016753
4709022368
4709028899
4709033660
4709039580
4709045256
4709050566
4709055266
4709061125
4709067168
4709072661
4709078459
4709082915
4709088652
4709094634
4709100493
4709105681
4709110686
4709116789
4709122832
4709127654
4709132536
4709138945
4709146208
4709151457
4709157317
4709161955
4709168303
4709174406
4709178740
4709185149
4709191801
4709196562
4709202421
4709208220
4709213042
4709219755
4709227263
4709231657
4709237517
4709244352
4709256498
4709262480
4709269499
4709274321
4709282744
4709290068
4709297636
4709302702
4709308744
4709314726
4709321501
4709327604
4709333952
4709340666
4709346342
4709352140
4709356474
4709364469
4709370634
4709376554
4709381071
4709387846
4709394254
4709400236
4709405607
4709411527
4709416776
4709422880
4709429350
4709436186
4709440763
4709447416
4709452055
4709458402
4709463712
4709468229
4709475431
4709480741
4709486051
4709491727
4709496793
4709500638
4709508329
4709516324
4709521879
4709526945
4709532377
4709537504
4709543241
4709548368
4709555509
4709561551
4709565763
4709571805
4709578397
4709583463
4709589139
4709595609
4709601590
4709606473
4709612149
4709617520
4709622831
4709628812
4709635526
4709640103
4709646085
4709651944
4709656888
4709662137
4709667813
4709673306
4709679776
4709685575
4709690457
4709695767
4709701627
4709707730
4709712003
4709719998
4709725675
4709731473
4709737210
4709743253
4709748257
4709754056
4709762051
4709767300
4709775174
4709781399
4709787625
4709797208
4709803128
4709810025
4709816373
4709822232
4709828335
4709834744
4709841580
4709847561
4709853238
4709858792
4709865017
4709869473
4709876187
4709881497
4709888028
4709892971
4709899014
4709905667
4709911404
4709918850
4709926907
4709932766
4709937405
4709944119
4709949795
4709955471
4709963528
4709968350
4709976223
4709980374
4709987332
4709993252
4709998074
4710005276
4710011135
4710017422
4710021816
4710029812
4710034573
4710041225
4710047451
4710053616
4710057766
4710063869
4710069790
4710074795
4710080959
4710085781
4710093471
4710097866
4710104458
4710110439
4710115261
4710121364
4710125942
4710131313
4710137783
4710143703
4710148769
4710153591
4710158779
4710164760
4710171413
4710176967
4710183315
4710187893
4710193752
4710199367
4710203395
4710209682
4710216457
4710222255
4710227321
4710232387
4710238430
4710243923
4710248989
4710255641
4710262172
4710266017
4710272243
4710278285
4710285304
4710292751
4710299709
4710307094
4710313930
4710320339
4710328395
4710335536
4710340846
4710347743
4710359218
4710367763
4710373012
4710379603
4710386012
4710391688
4710396388
4710401515
4710407496
4710412807
4710419459
4710424769
4710430934
4710436732
4710442042
4710448146
4710452723
4710459681
4710468104
4710472926
4710479457
4710484340
4710489711
4710493983
4710500941
4710507472
4710513819
4710519313
4710524379
4710530726
4710535121
4710544947
4710550074
4710558131
4710565089
4710569666
4710576808
4710581568
4710586451
4710593470
4710599452
4710604701
4710611292
4710617335
4710622523
4710628626
4710635035
4710639979
4710645594
4710651270
4710656458
4710662501
4710666285
4710672449
4710680689
4710684840
4710690821
4710696375
4710702967
4710707606
4710714075
4710719324
4710725550
4710731043
4710737147
4710741480
4710747095
4710752955
4710759180
4710765650
4710770411
4710775599
4710782251
4710787195
4710793238
4710797815
4710803370
4710812098
4710818628
4710825037
4710831262
4710836939
4710845117
4710854944
4710861536
4710867700
4710872644
4710878748
4710885034
4710893030
4710898462
4710904566
4710910791
4710914880
4710921106
4710927515
4710933801
4710939050
4710945032
4710950586
4710955286
4710962671
4710968957
4710975610
4710981958
4710986536
4710991785
4710998010
4711002832
4711009118
4711013452
4711020288
4711026025
4711031213
4711036279
4711042383
4711046655
4711054284
4711060449
4711065454
4711072900
4711078027
4711084741
4711090234
4711094445
4711101525
4711107080
4711113122
4711118005
4711123559
4711128869
4711134667
4711140771
4711147180
4711152185
4711158105
4711162744
4711167809
4711174218
4711180261
4711186486
4711191552
4711196862
4711203515
4711208337
4711215905
4711223229
4711228967
4711235009
4711240624
4711244958
4711252587
4711259362
4711266320
4711272118
4711278039
4711283715
4711289330
4711294091
4711300316
4711305565
4711311547
4711316918
4711325585
4711332909
4711339074
4711345665
4711353234
4711359704
4711367333
4711372704
4711379418
4711385399
4711391808
4711397789
4711402184
4711408409
4711414452
4711419396
4711424767
4711430809
4711436302
4711441735
4711446373
4711451500
4711457787
4711463585
4711469444
4711474022
4711479637
4711486290
4711491478
4711496544
4711502586
4711508690
4711512657
4711518456
4711524986
4711528587
4711534813
4711541893
4711547752
4711553551
4711558495
4711563621
4711567711
4711575645
4711581444
4711587547
4711592186
4711597557
4711603844
4711608970
4711614952
4711622276
4711628685
4711634300
4711640037
4711646934
4711652672
4711657432
4711663414
4711669761
4711675377
4711679588
4711687400
4711692283
4711697593
4711705162
4711710716
4711716270
4711720542
4711726402
4711731834
4711737998
4711744224
4711749107
4711754661
4711760703
4711765708
4711771140
4711778098
4711784141
4711789329
4711794883
4711801597
4711810996
4711818870
4711826987
4711833091
4711842063
4711853233
4711865562
4711883079
4711895835
4711904746
4711912009
4711921653
4711930808
4711939780
4711948752
4711959250
4711967734
4711975974
4711983847
4711994040
4712003012
4712012351
4712021262
4712028525
4712037924
4712046408
4712056174
4712063132
4712073691
4712083457
4712092795
4712101401
4712109763
4712118430
4712127219
4712137167
4712144980
4712159018
4712168356
4712176352
4712186239
4712198630
4712202902
4712215231
4712223471
4712233053
4712240439
4712250021
4712260458
4712268148
4712278402
4712285177
4712294943
4712305014
4712314169
4712322348
4712329672
4712339926
4712347677
4712357260
4712365866
4712374471
4712383688
4712391805
4712399984
4712409689
4712416891
4712426168
4712435629
4712445089
4712451315
4712462423
4712466695
4712478597
4712486776
4712496541
4712503621
4712512777
4712518392
4712527852
4712535726
4712545736
4712554891
4712563802
4712572591
4712579183
4712588155
4712596334
4712604695
4712619771
4712634358
4712643148
4712650838
4712659017
4712668355
4712677632
4712685872
4712696004
4712704915
4712712605
4712721211
4712729634
4712739156
4712747456
4712755391
4712765034
4712774312
4712782796
4712789998
4712800191
4712810017
4712819600
4712827290
4712836934
4712845906
4712854268
4712863301
4712872151
4712881855
4712891072
4712901142
4712908161
4712917134
4712927143
4712933857
4712943989
4712952900
4712960713
4712969929
4712977924
4712987934
4712997822
4713003925
4713015766
4713023701
4713032063
4713040424
4713049702
4713057575
4713066303
4713076313
4713083637
4713094257
4713102314
4713112263
4713120258
4713130085
4713140033
4713148639
4713157062
4713165119
4713172992
4713180988
4713189106
4713200519
4713207477
4713215412
4713221942
4713227863
4713233051
4713238910
4713244953
4713252643
4713256854
4713262958
4713268573
4713273212
4713278522
4713284808
4713291461
4713296954
4713302448
4713307941
4713313312
4713318683
4713325214
4713331378
4713338702
4713345172
4713353107
4713360553
4713365741
4713373065
4713378863
4713385577
4713391803
4713396991
4713402301
4713407489
4713413409
4713420123
4713425555
4713429889
4713436603
4713441302
4713447406
4713450030
4713458087
4713466266
4713471759
4713476336
4713481524
4713487689
4713491534
4713497821
4713501910
4713510455
4713516009
4713522479
4713527239
4713533404
4713540728
4713546466
4713551837
4713559222
4713568682
4713577227
4713583636
4713592303
4713600970
4713609148
4713617083
4713624346
4713632647
4713639117
4713645159
4713651324
4713657915
4713664568
4713670672
4713675677
4713682757
4713688433
4713694781
4713700274
4713705828
4713712420
4713717730
4713724444
4713730486
4713736773
4713742998
4713749285
4713752092
4713760149
4713765947
4713772234
4713777300
4713784441
4713791094
4713797197
4713802751
4713808428
4713815142
4713819475
4713825945
4713832781
4713838640
4713843279
4713850725
4713855425
4713862261
4713867327
4713874223
4713879717
4713885942
4713891008
4713897234
4713902666
4713910173
4713917192
4713924211
4713929948
4713934770
4713942277
4713948808
4713954851
4713960222
4713967363
4713972612
4713979204
4713984697
4713991228
4713996660
4714003312
4714009050
4714015153
4714019792
4714026323
4714032487
4714038530
4714045182
4714051469
4714056718
4714061601
4714069108
4714073503
4714080095
4714084733
4714091325
4714097306
4714102372
4714109269
4714114518
4714119828
4714127641
4714133012
4714138505
4714144242
4714149980
4714156144
4714160783
4714167863
4714172013
4714178117
4714184586
4714191422
4714197648
4714204362
4714209428
4714214310
4714219559
4714225785
4714232438
4714238236
4714244462
4714250504
4714254777
4714261491
4714267411
4714273453
4714279984
4714286698
4714292008
4714296158
4714302811
4714307084
4714314591
4714317521
4714325882
4714331864
4714338517
4714344437
4714349991
4714355729
4714361832
4714366532
4714373001
4714380692
4714386612
4714391190
4714397477
4714403336
4714408524
4714416519
4714421829
4714425858
4714433670
4714438919
4714447708
4714452835
4714459854
4714467545
4714472733
4714479752
4714486466
4714493301
4714499832
4714506424
4714513321
4714520096
4714526505
4714530594
4714538834
4714544815
4714550796
4714555069
4714562454
4714568375
4714572464
4714578750
4714583694
4714589371
4714597549
4714602005
4714607010
4714612747
4714617630
4714623611
4714628982
4714634353
4714640396
4714646682
4714651626
4714657730
4714663162
4714666946
4714672927
4714679519
4714684951
4714691665
4714695694
4714702468
4714705154
4714713088
4714719741
4714725173
4714731338
4714735183
4714741043
4714745132
4714753127
4714758743
4714764541
4714768569
4714775466
4714780105
4714785354
4714790908
4714795791
4714802078
4714807571
4714813491
4714818862
4714825393
4714830093
4714837295
4714842666
4714847854
4714854385
4714860610
4714865798
4714873244
4714879531
4714885573
4714891189
4714897109
4714902907
4714909682
4714914138
4714918654
4714925918
4714931899
4714938735
4714944106
4714951857
4714958083
4714963820
4714969252
4714974868
4714980178
4714987014
4714993849
4715000991
4715006301
4715013320
4715019179
4715026686
4715032790
4715037184
4715043166
4715049452
4715055373
4715061293
4715066725
4715071913
4715076796
4715083510
4715089308
4715095351
4715099318
4715104994
4715110854
4715115736
4715121291
4715127638
4715132826
4715138808
4715143751
4715149428
4715156569
4715162550
4715167555
4715173659
4715177809
4715184035
4715190565
4715196181
4715202650
4715208876
4715212477
4715218031
4715224379
4715228834
4715235182
4715243422
4715248488
4715255201
4715259901
4715266554
4715271437
4715276197
4715282301
4715288465
4715293165
4715300795
4715306227
4715311842
4715317945
4715324049
4715330152
4715336073
4715340711
4715350355
4715356214
4715361524
4715367689
4715372022
4715378492
4715382642
4715388807
4715393873
4715399000
4715405225
4715410780
4715415113
4715423109
4715427869
4715436414
4715441968
4715447767
4715453626
4715459119
4715465589
4715471754
4715478162
4715485486
4715496229
4715502515
4715509534
4715516675
4715528272
4715533948
4715540662
4715546155
4715552808
4715559217
4715565625
4715570203
4715575574
4715580884
4715587049
4715592786
4715599073
4715604505
4715610059
4715616284
4715620008
4715626172
4715632459
4715638928
4715645825
4715650830
4715656873
4715662366
4715668347
4715674573
4715680859
4715686963
4715693555
4715699902
4715704175
4715711499
4715716077
4715721753
4715725781
4715732983
4715739087
4715745679
4715750867
4715756238
4715762097
4715766980
4715773511
4715780102
4715784985
4715790417
4715796582
4715802624
4715808301
4715814221
4715819165
4715825940
4715831372
4715835583
4715841626
4715847607
4715854870
4715861828
4715867138
4715872692
4715878125
4715884289
4715888989
4715896496
4715902844
4715908215
4715913281
4715919201
4715925549
4715932263
4715938488
4715943615
4715949352
4715953930
4715960156
4715968701
4715975170
4715982616
4715991283
4715998852
4716005077
4716011242
4716016857
4716022411
4716029003
4716035534
4716041454
4716047192
4716052318
4716058605
4716065441
4716070324
4716076366
4716081188
4716087230
4716093334
4716098949
4716105114
4716109386
4716119335
4716124218
4716132030
4716139843
4716145641
4716151561
4716158153
4716163280
4716168163
4716174511
4716180065
4716186779
4716192394
4716198864
4716204051
4716209911
4716216075
4716220836
4716226695
4716235118
4716240672
4716247936
4716253795
4716258922
4716264232
4716271068
4716276500
4716282604
4716288097
4716294627
4716300365
4716305614
4716312022
4716317577
4716323619
4716329845
4716335033
4716340526
4716344493
4716352305
4716359447
4716365855
4716371532
4716379039
4716384349
4716389537
4716394664
4716400767
4716407176
4716411815
4716417552
4716422618
4716429820
4716435008
4716439952
4716447703
4716453013
4716457713
4716462657
4716468882
4716474070
4716480723
4716487620
4716492259
4716502024
4716509715
4716516368
4716523692
4716530833
4716536997
4716542552
4716548106
4716553111
4716558604
4716563548
4716570506
4716577464
4716582041
4716586985
4716594126
4716598521
4716603403
4716609934
4716615916
4716620493
4716626353
4716632151
4716637095
4716642832
4716651255
4716655588
4716660715
4716666270
4716673838
4716678843
4716685740
4716692087
4716697397
4716704050
4716708933
4716714304
4716719919
4716726084
4716731882
4716736765
4716742319
4716748301
4716753611
4716760324
4716766245
4716771189
4716777842
4716783029
4716788584
4716794443
4716800302
4716807932
4716812998
4716819162
4716824350
4716829416
4716836435
4716841135
4716846994
4716854013
4716859750
4716864206
4716870004
4716876047
4716881296
4716887888
4716893320
4716898630
4716903757
4716909006
4716917368
4716922983
4716928903
4716932992
4716939767
4716944894
4716950571
4716958017
4716962839
4716969308
4716975534
4716983713
4716990487
4716997140
4717003671
4717011545
4717017831
4717023752
4717032968
4717040048
4717046701
4717052133
4717057870
4717064279
4717068917
4717075143
4717080331
4717085885
4717093331
4717100167
4717103646
4717110116
4717114450
4717122445
4717127450
4717134164
4717139596
4717143258
4717150155
4717156014
4717160897
4717167062
4717172982
4717178231
4717183602
4717190682
4717195565
4717202767
4717208321
4717213448
4717217599
4717225167
4717230172
4717237130
4717242135
4717247933
4717252999
4717257760
4717264351
4717270211
4717276375
4717281746
4717287667
4717292428
4717298714
4717302987
4717310067
4717316414
4717322213
4717326912
4717332955
4717337960
4717344613
4717351265
4717356026
4717361641
4717367257
4717372567
4717379891
4717384285
4717389900
4717396065
4717401253
4717407723
4717412850
4717417855
4717425057
4717430123
4717435677
4717440743
4717447334
4717454109
4717460457
4717465706
4717473457
4717479317
4717485725
4717491707
4717498116
4717505318
4717510323
4717516182
4717523323
4717528267
4717532905
4717540413
4717545662
4717551155
4717556709
4717563362
4717567879
4717573311
4717580025
4717584785
4717590584
4717596626
4717602424
4717607063
4717611519
4717617805
4717626045
4717632148
4717638374
4717644661
4717649299
4717655464
4717661323
4717667610
4717674446
4717680122
4717685005
4717690864
4717697456
4717703193
4717707710
4717713447
4717719062
4717724128
4717729255
4717735114
4717740363
4717745490
4717752082
4717757881
4717764045
4717769660
4717775886
4717782844
4717787238
4717793342
4717798347
4717803535
4717810310
4717815437
4717821479
4717825507
4717832465
4717838508
4717844001
4717849189
4717855598
4717860786
4717866157
4717871955
4717878180
4717882941
4717887946
4717894599
4717898871
4717904426
4717910468
4717915107
4717922126
4717927253
4717933234
4717937812
4717944159
4717948676
4717954901
4717959357
4717967475
4717976874
4717982978
4717991706
4718001715
4718009894
4718016547
4718022528
4718029242
4718034491
4718041205
4718046271
4718053778
4718058844
4718064337
4718070868
4718074774
4718080634
4718086859
4718094672
4718100714
4718104803
4718111395
4718116766
4718122565
4718127570
4718134039
4718139838
4718145819
4718150763
4718153876
4718162420
4718167303
4718174750
4718180609
4718186102
4718192999
4718197760
4718202948
4718208929
4718214727
4718220099
4718224066
4718231390
4718236639
4718243475
4718247442
4718254522
4718259527
4718265142
4718270513
4718275762
4718281561
4718287603
4718293585
4718299505
4718304083
4718308599
4718315374
4718321722
4718327337
4718333074
4718338079
4718343878
4718349310
4718354681
4718361150
4718366277
4718371710
4718378545
4718384039
4718389043
4718393926
4718399725
4718404485
4718409734
4718416387
4718421575
4718427068
4718432928
4718439336
4718444829
4718449346
4718454656
4718462102
4718467290
4718477483
4718485723
4718493596
4718499700
4718509832
4718515874
4718523870
4718529912
4718534673
4718541387
4718548772
4718554204
4718559453
4718564824
4718570378
4718576116
4718581975
4718588933
4718594243
4718601628
4718607854
4718614812
4718622075
4718628728
4718634831
4718640080
4718646489
4718651738
4718657658
4718664128
4718670781
4718677312
4718682744
4718688298
4718694585
4718701054
4718706975
4718711919
4718718205
4718723271
4718729741
4718737431
4718743535
4718748418
4718754704
4718759404
4718767094
4718772893
4718779851
4718784672
4718790654
4718797246
4718802800
4718808415
4718814946
4718820988
4718826847
4718831791
4718838749
4718843266
4718849064
4718853154
4718860722
4718866520
4718872868
4718877018
4718882511
4718888493
4718893803
4718899967
4718904972
4718911198
4718917973
4718923527
4718928898
4718935002
4718940617
4718945622
4718951969
4718954960
4718962956
4718968693
4718973759
4718981388
4718986942
4718998234
4719005253
4719011295
4719020573
4719026310
4719033207
4719038578
4719044620
4719050480
4719055118
4719060856
4719066898
4719072330
4719077152
4719083317
4719089115
4719096805
4719101017
4719109134
4719114505
4719121097
4719125858
4719131046
4719136295
4719142459
4719148624
4719153812
4719160648
4719165042
4719169986
4719174747
4719180423
4719187870
4719193973
4719199588
4719204532
4719210575
4719215091
4719220035
4719228153
4719234195
4719238468
4719244998
4719251285
4719256473
4719261783
4719268008
4719273196
4719278873
4719283328
4719291324
4719296024
4719303409
4719309451
4719314395
4719320254
4719326907
4719332400
4719338321
4719344241
4719350528
4719355411
4719360843
4719366336
4719372500
4719376712
4719384463
4719389651
4719395511
4719401126
4719408023
4719411197
4719418582
4719424014
4719430972
4719436221
4719441653
4719447268
4719453555
4719458987
4719463931
4719470523
4719476138
4719483767
4719491946
4719498232
4719504092
4719513430
4719519717
4719528628
4719535220
4719539004
4719545596
4719551882
4719557314
4719562624
4719568362
4719573794
4719578860
4719586550
4719592776
4719598635
4719604494
4719610659
4719615481
4719621218
4719627199
4719632632
4719637697
4719642397
4719649416
4719654665
4719660280
4719666262
4719672365
4719678042
4719683230
4719689577
4719695559
4719701967
4719706057
4719712221
4719719423
4719724978
4719730654
4719735903
4719741640
4719746218
4719753359
4719760134
4719764040
4719770082
4719776186
4719781496
4719786501
4719794741
4719801760
4719807314
4719812441
4719818239
4719824037
4719829897
4719836061
4719841493
4719847170
4719853578
4719858461
4719865114
4719871217
4719877809
4719883546
4719889955
4719896303
4719900880
4719906557
4719910646
4719917177
4719923097
4719929933
4719938112
4719942384
4719948427
4719953126
4719961244
4719967592
4719972841
4719978151
4719983034
4719989564
4719995179
4720003907
4720012819
4720019532
4720026551
4720036439
4720043580
4720049928
4720056153
4720060182
4720065431
4720072328
4720079530
4720084291
4720090394
4720095704
4720101441
4720108766
4720115174
4720119874
4720126283
4720130738
4720138062
4720143372
4720149537
4720154298
4720161622
4720167298
4720172364
4720178468
4720183595
4720189149
4720194825
4720201966
4720206483
4720212037
4720217835
4720224061
4720229737
4720234681
4720240296
4720246644
4720252320
4720256531
4720263245
4720269288
4720274354
4720280823
4720286255
4720292969
4720296814
4720304444
4720309998
4720315613
4720322510
4720326661
4720334656
4720340027
4720346009
4720352051
4720359253
4720363526
4720370545
4720377259
4720383606
4720389588
4720395935
4720403504
4720410279
4720414978
4720421814
4720427796
4720434754
4720442566
4720449890
4720455505
4720462036
4720466492
4720473389
4720478088
4720482544
4720489197
4720495300
4720501221
4720507385
4720514160
4720520569
4720527099
4720533752
4720539184
4720546081
4720551758
4720558716
4720562805
4720568970
4720574829
4720580017
4720586731
4720591247
4720598022
4720602539
4720610534
4720614746
4720621276
4720626831
4720631652
4720636840
4720643432
4720649536
4720654968
4720660461
4720667053
4720672607
4720678527
4720683471
4720689636
4720695617
4720701049
4720706787
4720712158
4720720275
4720725952
4720731445
4720736755
4720744506
4720751159
4720755859
4720760925
4720767455
4720773498
4720778564
4720784240
4720790588
4720796691
4720802184
4720807922
4720813476
4720818847
4720823241
4720830749
4720836364
4720844054
4720849731
4720857299
4720861999
4720867248
4720872741
4720879882
4720884032
4720890563
4720896178
4720902282
4720907348
4720913390
4720917723
4720925536
4720932006
4720936278
4720942748
4720947081
4720954100
4720958373
4720967101
4720969969
4720978392
4720984374
4720990965
4720996764
4721001830
4721007567
4721013671
4721018309
4721024352
4721030455
4721035948
4721041441
4721047362
4721054320
4721061766
4721069029
4721075926
4721083617
4721089598
4721097227
4721102232
4721111693
4721118956
4721124022
4721130858
4721136717
4721143492
4721149412
4721155333
4721161619
4721168638
4721174132
4721179686
4721186461
4721192381
4721198973
4721205076
4721210814
4721217161
4721224119
4721230955
4721236204
4721243467
4721250486
4721256346
4721260374
4721266722
4721274046
4721280210
4721285581
4721292784
4721299742
4721304319
4721310789
4721315916
4721322202
4721327818
4721333860
4721340757
4721346677
4721352232
4721358152
4721363279
4721368955
4721375913
4721381589
4721387876
4721393491
4721400205
4721407102
4721413694
4721419004
4721424009
4721430784
4721437375
4721442197
4721447629
4721453794
4721460752
4721465574
4721472898
4721478635
4721484006
4721488157
4721495847
4721502073
4721508603
4721514219
4721519834
4721525937
4721531552
4721537839
4721543515
4721548825
4721556699
4721564817
4721573422
4721583737
4721592587
4721599301
4721605893
4721611447
4721617124
4721627438
4721632871
4721639157
4721645993
4721654782
4721659909
4721667966
4721673764
4721684384
4721689755
4721699582
4721705502
4721711484
4721718381
4721724423
4721730954
4721736264
4721742795
4721748654
4721755246
4721760922
4721766354
4721772885
4721777157
4721784543
4721790402
4721796505
4721802182
4721807797
4721813290
4721819027
4721825497
4721831540
4721836666
4721840878
4721848019
4721852597
4721859310
4721864132
4721869625
4721877072
4721882076
4721889096
4721894345
4721900143
4721906002
4721911801
4721917965
4721924191
4721930233
4721935360
4721941708
4721946957
4721952572
4721959469
4721965084
4721971127
4721976742
4721982235
4721987118
4721992367
4721998165
4722003841
4722011715
4722017147
4722021969
4722028560
4722035213
4722041683
4722048458
4722054806
4722060116
4722067074
4722071468
4722077450
4722082454
4722090694
4722096065
4722102047
4722108150
4722113399
4722118404
4722122371
4722129207
4722133174
4722140438
4722145687
4722151790
4722157039
4722161739
4722167903
4722175350
4722181453
4722188106
4722195186
4722203975
4722210750
4722217952
4722224239
4722229854
4722234859
4722238887
4722246028
4722251460
4722257259
4722262874
4722269283
4722274471
4722280940
4722285884
4722292293
4722297053
4722303889
4722308894
4722314326
4722318538
4722325313
4722331477
4722337520
4722343257
4722347590
4722353816
4722358149
4722363337
4722369563
4722374202
4722379817
4722385798
4722391108
4722396479
4722401973
4722408259
4722414668
4722418940
4722425288
4722429438
4722434993
4722441279
4722447077
4722451899
4722458674
4722463801
4722470637
4722475642
4722480403
4722485285
4722492121
4722498469
4722504084
4722510066
4722516352
4722521662
4722525996
4722532038
4722537714
4722543330
4722547968
4722553889
4722560603
4722565974
4722570795
4722575861
4722580805
4722585932
4722592829
4722599055
4722605097
4722610468
4722616511
4722620356
4722627131
4722630854
4722638666
4722643976
4722647883
4722655573
4722660151
4722666315
4722671503
4722676874
4722682306
4722688410
4722693171
4722701960
4722708063
4722714350
4722723322
4722729303
4722735224
4722745294
4722752619
4722756952
4722765009
4722767938
4722776789
4722782343
4722788385
4722794367
4722799982
4722805536
4722811579
4722818353
4722822321
4722829645
4722834589
4722840875
4722843439
4722851434
4722856805
4722862970
4722869196
4722874628
4722880121
4722885431
4722891962
4722897821
4722905145
4722910577
4722918329
4722924615
4722929254
4722937250
4722942193
4722948724
4722954278
4722960321
4722965753
4722970880
4722974481
4722981500
4722988214
4722994134
4722999322
4723005426
4723010919
4723016534
4723023065
4723029657
4723034661
4723038690
4723044427
4723049737
4723055169
4723062493
4723069146
4723075433
4723079766
4723085748
4723092217
4723097527
4723102349
4723107842
4723114007
4723121087
4723127252
4723131951
4723139886
4723147637
4723153313
4723158990
4723165215
4723169976
4723175347
4723180352
4723185418
4723192010
4723199151
4723203484
4723210076
4723215142
4723220025
4723226189
4723231316
4723239007
4723245415
4723252434
4723259270
4723265496
4723273552
4723280877
4723287407
4723292962
4723299004
4723305474
4723310845
4723317681
4723324028
4723328301
4723334038
4723340508
4723344841
4723350945
4723355950
4723362175
4723366692
4723374687
4723379753
4723385308
4723390007
4723395622
4723399956
4723406426
4723413445
4723416741
4723422051
4723425469
4723430107
4723433952
4723438957
4723444084
4723447136
4723451836
4723456841
4723461723
4723466240
4723471123
4723475883
4723482292
4723486381
4723490715
4723494865
4723498527
4723503960
4723507316
4723512443
4723516838
4723521416
4723524528
4723528190
4723533012
4723537956
4723541801
4723545158
4723550041
4723553825
4723558342
4723561943
4723567436
4723571647
4723576835
4723581474
4723586052
4723589348
4723594474
4723599479
4723606071
4723610649
4723615043
4723619499
4723623405
4723628898
4723631095
4723638298
4723642509
4723647697
4723652214
4723656364
4723660819
4723664848
4723669364
4723675712
4723679252
4723683830
4723688102
4723693595
4723698905
4723703117
4723709098
4723713798
4723718070
4723722892
4723729118
4723733878
4723740653
4723744376
4723749992
4723755119
4723758414
4723764091
4723767631
4723772819
4723776420
4723782279
4723786735
4723791923
4723795951
4723801139
4723805656
4723809318
4723813102
4723818229
4723822989
4723827994
4723832633
4723837455
4723841849
4723845756
4723852958
4723857596
4723863028
4723866691
4723871451
4723875235
4723880545
4723885245
4723889640
4723894767
4723900199
4723904837
4723909293
4723912955
4723918814
4723925467
4723929557
4723934500
4723939139
4723942984
4723948538
4723951895
4723957999
4723963675
4723968009
4723971915
4723977469
4723982291
4723986441
4723991019
4723996146
4724000784
4724005911
4724009635
4724014456
4724018363
4724023062
4724029410
4724034476
4724039298
4724043509
4724048148
4724052542
4724056570
4724060721
4724066275
4724070547
4724077444
4724081534
4724087454
4724092581
4724097098
4724101797
4724107901
4724112478
4724119070
4724123648
4724129324
4724134756
4724139944
4724145010
4724150625
4724157522
4724165884
4724171805
4724178152
4724183706
4724190298
4724197134
4724203787
4724209463
4724214895
4724221365
4724226004
4724231680
4724238638
4724242971
4724247244
4724251455
4724257009
4724262930
4724268789
4724274404
4724279653
4724285635
4724290457
4724296865
4724302725
4724306448
4724312856
4724317007
4724326528
4724332204
4724336721
4724343130
4724347890
4724351980
4724359670
4724365285
4724371389
4724377615
4724383779
4724387990
4724392324
4724398794
4724402944
4724409475
4724416067
4724421499
4724428152
4724432546
4724438100
4724442556
4724447378
4724455129
4724460012
4724466054
4724470693
4724475942
4724480764
4724487355
4724491506
4724498647
4724505117
4724511586
4724515981
4724522084
4724528249
4724534536
4724543386
4724548696
4724557668
4724561818
4724568837
4724575002
4724580678
4724585195
4724591237
4724596120
4724603505
4724609670
4724615834
4724622609
4724626820
4724632375
4724637074
4724645924
4724649586
4724657277
4724662038
4724668996
4724675099
4724680897
4724685170
4724691029
4724695973
4724701649
4724707875
4724712025
4724718373
4724723744
4724729481
4724736378
4724742116
4724748768
4724757985
4724764210
4724769825
4724775197
4724781544
4724788075
4724794423
4724799794
4724804127
4724811451
4724816151
4724822132
4724828053
4724832447
4724838612
4724843190
4724848439
4724856190
4724860462
4724866993
4724871205
4724878407
4724883412
4724888783
4724894276
4724900135
4724905506
4724911488
4724916248
4724921925
4724928089
4724933460
4724937855
4724944447
4724950306
4724957447
4724961719
4724967396
4724972584
4724977344
4724983814
4724988270
4724996754
4725001758
4725007557
4725011829
4725018604
4725021717
4725029041
4725035023
4725039356
4725046497
4725051136
4725057422
4725061451
4725068226
4725072681
4725077747
4725083606
4725092334
4725097278
4725102527
4725107227
4725112964
4725119434
4725125232
4725130054
4725135669
4725141651
4725148853
4725153980
4725159412
4725165271
4725174182
4725180774
4725187061
4725193225
4725197498
4725202625
4725209216
4725213367
4725219775
4725223621
4725231067
4725236011
4725241077
4725246143
4725252917
4725259387
4725265124
4725268298
4725276965
4725283923
4725288745
4725295581
4725299670
4725307361
4725314258
4725319018
4725327563
4725334033
4725343799
4725352588
4725359363
4725365588
4725378405
4725383654
4725397265
4725403430
4725412768
4725424304
4725434191
4725441577
4725449877
4725456408
4725464099
4725470629
4725478442
4725485461
4725494860
4725500170
4725507861
4725516772
4725525195
4725531847
4725537035
4725547411
4725555468
4725562121
4725571093
4725577135
4725583605
4725590868
4725598803
4725606676
4725611193
4725623705
4725630907
4725637438
4725647509
4725653551
4725662706
4725669603
4725677782
4725684923
4725690660
4725700548
4725707750
4725713121
4725724474
4725731981
4725739427
4725745226
4725754015
4725762194
4725769396
4725776293
4725780870
4725790331
4725797044
4725805895
4725813280
4725820543
4725827989
4725836107
4725842455
4725849779
4725856004
4725867418
4725873765
4725882371
4725887071
4725896776
4725903856
4725911302
4725921678
4725927537
4725936509
4725941575
4725952501
4725958848
4725964097
4725973497
4725979417
4725987535
4725994737
4725999986
4726012925
4726018357
4726026292
4726030748
4726041917
4726048142
4726053269
4726062791
4726067918
4726076402
4726083848
4726092210
4726098252
4726104844
4726111253
4726116685
4726125230
4726131944
4726138291
4726152940
4726159653
4726167405
4726173142
4726181931
4726188340
4726197312
4726204514
4726210374
4726221421
4726229600
4726237473
4726241746
4726252671
4726260483
4726270859
4726278855
4726286545
4726295639
4726301987
4726310959
4726321701
4726328110
4726334641
4726344712
4726350144
4726355149
4726363388
4726368576
4726375656
4726380051
4726386643
4726391647
4726397202
4726401962
4726408310
4726414597
4726420822
4726426254
4726431870
4726436630
4726442795
4726447494
4726453415
4726460495
4726465866
4726471603
4726476486
4726483078
4726487717
4726492721
4726498520
4726505661
4726511276
4726518051
4726522262
4726527206
4726532882
4726538925
4726543564
4726551193
4726556747
4726564804
4726570541
4726576278
4726581894
4726589340
4726595443
4726603012
4726608749
4726616012
4726623153
4726629013
4726634201
4726638351
4726645919
4726649948
4726659225
4726663864
4726670394
4726676315
4726681381
4726686385
4726691451
4726697494
4726702071
4726708480
4726713241
4726718185
4726724776
4726729476
4726734054
4726740585
4726746017
4726752303
4726757308
4726765182
4726770675
4726777328
4726783431
4726790328
4726797530
4726803512
4726810409
4726814864
4726820357
4726825850
4726830001
4726836348
4726840011
4726847396
4726851973
4726858443
4726861983
4726868758
4726874312
4726879317
4726883712
4726892562
4726902144
4726909346
4726916915
4726923201
4726929183
4726935652
4726943221
4726949629
4726959029
4726964217
4726971297
4726974166
4726980940
4726986373
4726992659
4726997359
4727004439
4727009688
4727015425
4727018172
4727024580
4727028853
4727035017
4727041487
4727047163
4727053084
4727057112
4727061385
4727068648
4727072920
4727078841
4727085310
4727089644
4727095625
4727100935
4727105147
4727110090
4727115584
4727121565
4727127974
4727134627
4727140059
4727145308
4727149885
4727155867
4727160627
4727164473
4727172102
4727177107
4727183516
4727186995
4727193464
4727199018
4727205488
4727209883
4727215803
4727224592
4727228681
4727234114
4727239546
4727246015
4727253401
4727258528
4727265241
4727272260
4727276838
4727282758
4727288740
4727294843
4727299909
4727306135
4727310651
4727321211
4727328901
4727334455
4727339155
4727345808
4727350202
4727355634
4727362043
4727366132
4727372968
4727378828
4727383588
4727389081
4727394086
4727399579
4727405500
4727410810
4727416669
4727421552
4727428937
4727434064
4727440290
4727446088
4727451398
4727455854
4727462079
4727467206
4727474714
4727479352
4727484601
4727490949
4727497602
4727503034
4727509198
4727518109
4727523725
4727531171
4727536542
4727545148
4727551190
4727557050
4727562360
4727568341
4727572309
4727578046
4727582501
4727588300
4727593366
4727598248
4727601239
4727609235
4727614301
4727620648
4727624738
4727631390
4727635785
4727643109
4727647565
4727654584
4727661420
4727667645
4727671857
4727677228
4727683270
4727688885
4727693158
4727700543
4727708172
4727712811
4727718182
4727724103
4727729046
4727735394
4727740948
4727745831
4727751812
4727754803
4727763409
4727766522
4727774395
4727780011
4727784161
4727790448
4727794842
4727801983
4727806256
4727813153
4727817425
4727823834
4727829693
4727835247
4727839764
4727847332
4727851299
4727856732
4727862591
4727868572
4727873821
4727879315
4727883587
4727889629
4727896160
4727902386
4727908001
4727911968
4727918377
4727922710
4727929302
4727934551
4727941326
4727947185
4727951397
4727957317
4727963055
4727969707
4727974590
4727980327
4727988262
4727995525
4727999920
4728006328
4728012676
4728018230
4728022808
4728029766
4728034404
4728040813
4728047344
4728053753
4728058574
4728064251
4728068828
4728076702
4728082256
4728091167
4728098003
4728104412
4728108867
4728115642
4728120708
4728126384
4728137126
4728145122
4728150188
4728157085
4728160076
4728166973
4728173320
4728180217
4728185466
4728191387
4728196574
4728202678
4728206950
4728213115
4728217754
4728224773
4728229106
4728235759
4728242229
4728246318
4728252666
4728256877
4728263957
4728269939
4728275676
4728281108
4728287944
4728291606
4728298564
4728302287
4728309672
4728312480
4728320292
4728325053
4728332255
4728337077
4728342631
4728348979
4728353251
4728359721
4728363505
4728370890
4728376262
4728383708
4728387675
4728393840
4728400981
4728406901
4728410136
4728421611
4728427226
4728433085
4728436198
4728445841
4728450297
4728457255
4728462870
4728466776
4728474894
4728480998
4728486796
4728490824
4728497538
4728503275
4728508707
4728514140
4728520304
4728526163
4728532877
4728537028
4728542765
4728548380
4728554423
4728557169
4728566019
4728571818
4728582255
4728586832
4728592264
4728597941
4728601908
4728608866
4728613321
4728620340
4728624857
4728631083
4728636026
4728642923
4728647928
4728652872
4728657511
4728664225
4728668558
4728675455
4728680094
4728687967
4728693277
4728698465
4728704874
4728711588
4728716654
4728725199
4728730203
4728739176
4728744425
4728750223
4728756937
4728763223
4728771341
4728777689
4728783731
4728789041
4728793680
4728799905
4728804849
4728811380
4728818094
4728823953
4728828226
4728832864
4728839761
4728845132
4728850076
4728855752
4728862466
4728868875
4728873758
4728878458
4728883951
4728888528
4728895303
4728900247
4728904886
4728913003
4728919046
4728924600
4728930276
4728936441
4728942422
4728946878
4728953714
4728959878
4728963662
4728970071
4728975015
4728980447
4728985879
4728991494
4728997232
4729003274
4729008096
4729018777
4729024392
4729031167
4729035623
4729043130
4729044778
4729055947
4729061318
4729067605
4729072305
4729079629
4729084695
4729092263
4729097207
4729105935
4729113442
4729121499
4729130532
4729136575
4729145241
4729154092
4729163125
4729171670
4729181374
4729188393
4729195840
4729203225
4729210732
4729219399
4729221779
4729234597
4729239418
4729249794
4729257546
4729265664
4729274636
4729279885
4729291176
4729296669
4729307534
4729315224
4729324501
4729336464
4729339089
4729351296
4729358315
4729366982
4729374794
4729377113
4729387795
4729395485
4729401833
4729414223
4729420692
4729431435
4729437172
4729449745
4729458107
4729464821
4729473427
4729478676
4729491920
4729499916
4729511085
4729518287
4729525306
4729532509
4729538429
4729546180
4729552955
4729558387
4729568946
4729574379
4729583717
4729590797
4729595985
4729602088
4729609779
4729615821
4729623390
4729632179
4729638832
4729646156
4729650794
4729659767
4729666480
4729672828
4729680335
4729684547
4729694801
4729699622
4729710242
4729716163
4729723182
4729730506
4729735145
4729745521
4729753577
4729761207
4729770789
4729777076
4729785377
4729792457
4729797706
4729805091
4729812537
4729820960
4729825354
4729835730
4729845984
4729850684
4729861182
4729866309
4729875281
4729881934
4729886878
4729895056
4729901343
4729914466
4729921485
4729927405
4729934119
4729941382
4729951514
4729953711
4729965125
4729971350
4729981299
4729987708
4729993384
4730000952
4730008765
4730016394
4730020483
4730030127
4730036414
4730043127
4730052527
4730058752
4730066504
4730071448
4730080359
4730087012
4730092566
4730101477
4730106726
4730116369
4730120886
4730131506
4730138586
4730146521
4730152868
4730158850
4730166784
4730171240
4730181799
4730189062
4730196264
4730204809
4730210913
4730221044
4730228124
4730233435
4730242895
4730251013
4730258215
4730266027
4730276098
4730284033
4730291601
4730299535
4730304723
4730317052
4730326208
4730332799
4730345922
4730355321
4730364660
4730373693
4730380468
4730384313
4730394384
4730400426
4730408422
4730415258
4730421544
4730428258
4730432714
4730439245
4730443761
4730449315
4730456151
4730463597
4730469030
4730474584
4730481908
4730492711
4730497289
4730503820
4730508397
4730515538
4730519933
4730527135
4730531774
4730538487
4730543492
4730548436
4730553258
4730560094
4730567296
4730573033
4730575902
4730583470
4730588719
4730593846
4730598241
4730603856
4730610326
4730616429
4730620946
4730625829
4730632115
4730636204
4730642918
4730647557
4730653905
4730660557
4730665196
4730671116
4730675389
4730679967
4730684971
4730690404
4730696263
4730701695
4730707615
4730712376
4730718297
4730722691
4730729100
4730732823
4730737156
4730743809
4730749730
4730755284
4730760655
4730765599
4730770359
4730776402
4730781407
4730788426
4730794407
4730799290
4730804966
4730809788
4730814915
4730819493
4730824131
4730832432
4730838169
4730843418
4730847264
4730855564
4730860874
4730866612
4730869663
4730880222
4730883701
4730891087
4730896092
4730900608
4730907688
4730912266
4730918064
4730922520
4730930942
4730935459
4730943943
4730949802
4730955723
4730961399
4730966587
4730972812
4730979587
4730985996
4730990757
4730996555
4731002842
4731007969
4731014316
4731019626
4731025364
4731028415
4731035495
4731040928
4731047031
4731050205
4731057163
4731061374
4731067478
4731071811
4731077793
4731082614
4731086826
4731092136
4731098423
4731103366
4731106235
4731114597
4731117954
4731125827
4731131259
4731134860
4731138950
4731144931
4731150302
4731155246
4731161228
4731166965
4731171359
4731177951
4731182834
4731187289
4731193271
4731198276
4731206943
4731212802
4731218478
4731223788
4731228366
4731233798
4731238803
4731241550
4731252475
4731257663
4731262424
4731267367
4731272494
4731278537
4731284762
4731288852
4731295566
4731301974
4731307528
4731312472
4731317477
4731321994
4731328280
4731332553
4731338473
4731344699
4731350924
4731355502
4731361483
4731365878
4731370883
4731377352
4731381869
4731387057
4731392794
4731399569
4731402926
4731409335
4731415316
4731420931
4731426425
4731431918
4731440096
4731445773
4731454012
4731458529
4731468112
4731473910
4731481478
4731485934
4731493929
4731502657
4731508334
4731518282
4731520357
4731531710
4731538302
4731546541
4731553683
4731561556
4731570650
4731581637
4731590365
4731595003
4731604525
4731611849
4731621004
4731628512
4731634737
4731644564
4731651705
4731658113
4731664034
4731672274
4731677706
4731683748
4731689058
4731694979
4731704012
4731707552
4731714937
4731719148
4731725557
4731730684
4731736238
4731740450
4731744478
4731752962
4731756746
4731762666
4731767793
4731773409
4731778230
4731782991
4731788057
4731795015
4731799043
4731804414
4731809908
4731815523
4731820222
4731825838
4731831270
4731837129
4731843538
4731847505
4731852205
4731858736
4731863130
4731868318
4731872957
4731877778
4731885286
4731890779
4731895967
4731901521
4731906709
4731911104
4731916780
4731921541
4731927766
4731932954
4731938325
4731941072
4731948213
4731953096
4731957551
4731963960
4731969026
4731975251
4731980256
4731985627
4731989289
4731996919
4732000947
4732008027
4732014009
4732022737
4732028657
4732032990
4732038423
4732045991
4732051972
4732059113
4732065827
4732070710
4732081696
4732086823
4732094697
4732103303
4732111359
4732117158
4732122041
4732130585
4732138520
4732148225
4732159272
4732161957
4732173249
4732180207
4732187653
4732195588
4732197907
4732209260
4732216889
4732225922
4732238007
4732245331
4732252961
4732258637
4732270172
4732277802
4732285004
4732293549
4732302887
4732313751
4732319489
4732330475
4732337494
4732344513
4732352326
4732357025
4732368439
4732372955
4732380463
4732390900
4732397186
4732403473
4732411224
4732416962
4732423920
4732433136
4732439789
4732444549
4732453522
4732461212
4732468841
4732473419
4732483429
4732489898
4732492035
4732503570
4732508209
4732516937
4732530975
4732538177
4732543975
4732551178
4732559845
4732567169
4732574554
4732582794
4732589630
4732596649
4732606231
4732612945
4732620330
4732625396
4732634551
4732641204
4732647796
4732655792
4732663421
4732673187
4732677581
4732687347
4732694671
4732702239
4732709441
4732713409
4732723174
4732729278
4732737029
4732745574
4732753509
4732758819
4732765533
4732774016
4732780608
4732788482
4732796294
4732801482
4732810515
4732818633
4732824614
4732831206
4732838347
4732845733
4732850188
4732860808
4732867034
4732874297
4732885039
4732891143
4732898650
4732904265
4732912078
4732919036
4732924040
4732932097
4732937651
4732947661
4732956267
4732962248
4732970793
4732975676
4732983855
4732988005
4732999602
4733006743
4733013518
4733025236
4733031950
4733038542
4733046477
4733052275
4733059172
4733067595
4733074248
4733080595
4733088896
4733097136
4733103056
4733109892
4733117094
4733127287
4733131865
4733140532
4733148527
4733160124
4733165007
4733176359
4733183439
4733190397
4733199980
4733205107
4733213224
4733220365
4733227934
4733235197
4733242033
4733248869
4733253141
4733257292
4733263822
4733270048
4733273527
4733280546
4733285734
4733292387
4733298063
4733302763
4733308500
4733313688
4733318265
4733326444
4733330350
4733336881
4733342252
4733347196
4733350065
4733357389
4733361722
4733370206
4733375455
4733383329
4733388212
4733396756
4733401395
4733406949
4733412504
4733417081
4733424711
4733429044
4733435453
4733441434
4733446622
4733452420
4733458890
4733462064
4733468045
4733475736
4733482755
4733487454
4733491361
4733497525
4733502408
4733509976
4733514310
4733521512
4733527188
4733533048
4733538663
4733544705
4733550015
4733554776
4733559659
4733565213
4733570462
4733575345
4733582852
4733588712
4733593716
4733599820
4733604520
4733612515
4733618008
4733624295
4733629544
4733635525
4733640591
4733646207
4733650052
4733659268
4733665372
4733671963
4733676358
4733680081
4733686734
4733691006
4733697964
4733702603
4733709378
4733713955
4733720669
4733724881
4733730862
4733736111
4733743679
4733747525
4733757168
4733763882
4733771084
4733780728
4733786892
4733794216
4733800015
4733808010
4733813992
4733822720
4733829861
4733838101
4733844814
4733851162
4733857937
4733864163
4733869900
4733874477
4733880337
4733884365
4733889736
4733895046
4733901089
4733906155
4733914333
4733920010
4733926174
4733932400
4733937527
4733943325
4733947109
4733953884
4733959682
4733964870
4733968777
4733975429
4733981045
4733986904
4733991359
4733999294
4734005336
4734010219
4734014736
4734021267
4734025783
4734032253
4734036220
4734043300
4734049892
4734054287
4734059658
4734064968
4734070949
4734076564
4734082668
4734089321
4734095363
4734100246
4734105312
4734111171
4734117092
4734123012
4734127834
4734135463
4734141261
4734146694
4734152431
4734156825
4734161342
4734167812
4734173915
4734178371
4734185512
4734189662
4734195949
4734200710
4734207790
4734212306
4734217311
4734222438
4734230861
4734237453
4734242702
4734248256
4734253383
4734259730
4734265040
4734271022
4734275905
4734283107
4734290187
4734294703
4734300258
4734305751
4734312465
4734317592
4734322963
4734329799
4734336268
4734341273
4734346705
4734351222
4734356105
4734364161
4734370448
4734379298
4734385157
4734393458
4734396205
4734404688
4734412013
4734419154
4734423731
4734430689
4734436915
4734440699
4734446131
4734451807
4734456507
4734463099
4734467432
4734472559
4734479151
4734484705
4734489466
4734495325
4734500391
4734505274
4734510767
4734515589
4734523646
4734527979
4734534205
4734538782
4734546046
4734551050
4734555628
4734562281
4734567591
4734574427
4734578577
4734583643
4734590174
4734594813
4734600000
4734606165
4734610621
4734616358
4734620874
4734627588
4734633509
4734637781
4734644129
4734649256
4734654077
4734660303
4734666407
4734673731
4734679285
4734684412
4734689966
4734695337
4734700830
4734705347
4734711450
4734718408
4734723169
4734729151
4734734155
4734740015
4734744165
4734751306
4734755457
4734763940
4734770593
4734774805
4734779993
4734785486
4734792139
4734797082
4734802698
4734808557
4734814600
4734819543
4734824426
4734830774
4734835596
4734841577
4734844507
4734853906
4734859826
4734864770
4734869409
4734875635
4734879846
4734886560
4734892358
4734897485
4734903528
4734909875
4734915918
4734922143
4734926477
4734931237
4734937890
