4671203373
4671208317
4671213871
4671219609
4671225041
4671230351
4671235844
4671241520
4671247257
4671253666
4671259159
4671265568
4671271916
4671278446
4671285099
4671291325
4671298222
4671304508
4671311466
4671319462
4671326237
4671332035
4671340153
4671349064
4671358341
4671365543
4671373905
4671379398
4671386295
4671395084
4671404239
4671411503
4671419376
4671425724
4671432254
4671440311
4671448673
4671455631
4671462528
4671468082
4671476932
4671484134
4671491458
4671498477
4671507328
4671515384
4671523807
4671532291
4671541141
4671550296
4671559390
4671567081
4671575076
4671582828
4671590213
4671598758
4671604373
4671612430
4671620792
4671628177
4671636294
4671641727
4671652103
4671656863
4671666019
4671670474
4671680362
4671689944
4671696414
4671704837
4671712466
4671719607
4671726565
4671734317
4671743411
4671750369
4671759219
4671765445
4671774722
4671781985
4671789492
4671797915
4671805911
4671812991
4671820681
4671827578
4671837039
4671842654
4671848635
4671857119
4671866335
4671873415
4671880679
4671887759
4671894717
4671901797
4671909487
4671914919
4671923403
4671930788
4671939944
4671946352
4671956057
4671962404
4671971621
4671981875
4671988955
4671996828
4672002566
4672011904
4672020266
4672028200
4672034609
4672043215
4672050661
4672058168
4672065493
4672073000
4672080263
4672087648
4672096010
4672103639
4672112367
4672120790
4672130251
4672140016
4672147279
4672154787
4672163698
4672171816
4672180055
4672188356
4672197755
4672209962
4672218751
4672227296
4672235231
4672243471
4672252931
4672262269
4672270021
4672279237
4672286989
4672294923
4672299318
4672309755
4672317079
4672324586
4672328676
4672338563
4672343019
4672353700
4672363343
4672368714
4672376771
4672385133
4672393067
4672399537
4672407960
4672416871
4672423951
4672430543
4672439332
4672445619
4672455323
4672459840
4672468690
4672474915
4672484254
4672488709
4672497926
4672507996
4672513489
4672520997
4672528504
4672535157
4672542664
4672549805
4672560242
4672566712
4672574586
4672581055
4672588929
4672595704
4672603455
4672610779
4672617249
4672627320
4672635315
4672642884
4672650269
4672657288
4672664490
4672672425
4672680970
4672688355
4672696289
4672701966
4672709900
4672716919
4672724243
4672732117
4672738892
4672746521
4672754089
4672761902
4672769287
4672775696
4672782959
4672792053
4672799133
4672805725
4672814575
4672820679
4672828552
4672834839
4672842773
4672849426
4672859253
4672863647
4672873596
4672879638
4672888244
4672895263
4672903137
4672911255
4672919494
4672931579
4672939209
4672947815
4672957458
4672965515
4672976135
4672984985
4672992919
4672999999
4673005798
4673015624
4673023864
4673030395
4673038818
4673045043
4673052490
4673059264
4673067138
4673075744
4673082946
4673089416
4673098266
4673102416
4673111755
4673120238
4673128722
4673136779
4673142760
4673151671
4673158629
4673164794
4673173400
4673181334
4673189574
4673195311
4673203551
4673209533
4673217467
4673223693
4673233825
4673241698
4673249083
4673256652
4673265136
4673273986
4673278990
4673288390
4673297850
4673304015
4673313414
4673321471
4673329100
4673337096
4673344359
4673351744
4673359679
4673366942
4673375365
4673382567
4673390135
4673397643
4673405455
4673413084
4673420348
4673428221
4673435789
4673442503
4673450560
4673459105
4673466246
4673474669
4673481383
4673488218
4673496214
4673501951
4673509459
4673518126
4673525206
4673532469
4673539854
4673548460
4673556395
4673563658
4673571409
4673580015
4673587950
4673595640
4673602659
4673610533
4673617735
4673627683
4673637144
4673647032
4673655210
4673666197
4673673032
4673683225
4673692075
4673700803
4673711912
4673718809
4673726560
4673731992
4673741819
4673748899
4673755430
4673762510
4673766599
4673774717
4673781736
4673787961
4673794370
4673800474
4673806882
4673813291
4673819272
4673825925
4673832090
4673837827
4673845151
4673849729
4673856321
4673862119
4673867673
4673874692
4673881284
4673887570
4673894101
4673899411
4673905393
4673910031
4673915402
4673920835
4673928525
4673933896
4673939572
4673945126
4673950742
4673955747
4673960629
4673966000
4673972653
4673977353
4673983517
4673988522
4673994931
4674001767
4674007565
4674013058
4674019040
4674024716
4674030514
4674035336
4674041379
4674046445
4674051938
4674057980
4674063901
4674069089
4674074643
4674078549
4674085263
4674091061
4674097287
4674103512
4674108639
4674114071
4674119626
4674126400
4674130612
4674137997
4674142880
4674149166
4674154049
4674159176
4674165524
4674170834
4674177304
4674184201
4674189999
4674198300
4674204647
4674211605
4674219601
4674225948
4674232479
4674240902
4674247555
4674254147
4674260128
4674266232
4674270809
4674278500
4674281857
4674290462
4674295956
4674301632
4674307857
4674313778
4674319149
4674323788
4674331844
4674335018
4674343685
4674349300
4674354610
4674360592
4674366085
4674370846
4674376400
4674382259
4674389889
4674395260
4674400387
4674405513
4674412105
4674416561
4674422542
4674427425
4674434749
4674441280
4674447445
4674454891
4674460262
4674466548
4674473201
4674478878
4674484004
4674489009
4674494747
4674500362
4674505855
4674512996
4674518306
4674523860
4674529109
4674534847
4674540462
4674546138
4674550655
4674557246
4674563106
4674570369
4674575618
4674580928
4674583980
4674592097
4674598872
4674604671
4674610347
4674616450
4674620723
4674626155
4674633357
4674638911
4674644282
4674649837
4674654902
4674660457
4674665523
4674671138
4674677302
4674683955
4674689570
4674695796
4674701838
4674707942
4674714900
4674723689
4674729853
4674735835
4674743525
4674749751
4674756404
4674763301
4674771418
4674777034
4674782710
4674788996
4674795039
4674800654
4674805720
4674813655
4674819087
4674824702
4674831660
4674837885
4674843134
4674849116
4674856074
4674859492
4674867182
4674872370
4674879267
4674884516
4674890192
4674896723
4674902766
4674908137
4674912348
4674919977
4674924860
4674930475
4674937678
4674942499
4674948969
4674953242
4674959711
4674964960
4674970453
4674976862
4674982905
4674988581
4674992853
4674998652
4675002863
4675010004
4675016596
4675021906
4675027521
4675033136
4675038691
4675042963
4675049372
4675054316
4675061945
4675066706
4675071894
4675077814
4675082819
4675088434
4675094416
4675100031
4675104852
4675111627
4675117487
4675122797
4675128473
4675134393
4675140009
4675144769
4675151422
4675158075
4675163080
4675168512
4675174249
4675181268
4675186090
4675192010
4675196222
4675202875
4675207147
4675214166
4675220026
4675226617
4675233209
4675242914
4675248956
4675255365
4675263788
4675270135
4675278436
4675283685
4675291192
4675297662
4675303949
4675310418
4675316522
4675323419
4675329278
4675334893
4675339837
4675347345
4675350885
4675359918
4675365228
4675370477
4675377313
4675381524
4675388116
4675394891
4675400323
4675405633
4675411065
4675417230
4675422173
4675427789
4675433709
4675439019
4675443841
4675451165
4675456780
4675461785
4675467034
4675472649
4675479546
4675485345
4675491021
4675495476
4675502068
4675507622
4675513116
4675518914
4675524712
4675530205
4675535821
4675540825
4675545464
4675553765
4675560174
4675565667
4675572075
4675577446
4675582634
4675586785
4675592827
4675600274
4675605645
4675611870
4675615899
4675622002
4675627373
4675633294
4675640435
4675645867
4675651665
4675656914
4675661675
4675666741
4675673516
4675678520
4675686028
4675691155
4675696282
4675701409
4675707878
4675712944
4675718804
4675724480
4675730400
4675738701
4675744072
4675748161
4675758232
4675763725
4675771965
4675777763
4675786980
4675795647
4675801872
4675808159
4675813286
4675819694
4675825615
4675831047
4675837334
4675843254
4675848625
4675853264
4675860527
4675865715
4675872123
4675877372
4675882683
4675889763
4675895927
4675900932
4675906669
4675912468
4675916435
4675922172
4675927299
4675933586
4675938530
4675945121
4675950004
4675956352
4675961601
4675969108
4675973869
4675980827
4675986198
4675991264
4675996635
4676002006
4676007072
4676013175
4676019340
4676025627
4676030814
4676035148
4676040397
4676044914
4676051933
4676058036
4676064201
4676070365
4676076286
4676081351
4676086662
4676092277
4676096488
4676103080
4676109550
4676115226
4676120536
4676126212
4676132011
4676136954
4676145560
4676152274
4676158500
4676164237
4676169974
4676174796
4676182120
4676186881
4676193839
4676199454
4676204642
4676210685
4676216666
4676222525
4676230216
4676236563
4676242484
4676247977
4676253897
4676260062
4676265982
4676273245
4676279166
4676284781
4676290946
4676299735
4676304556
4676314505
4676320670
4676326773
4676332449
4676338675
4676345572
4676353201
4676359122
4676364371
4676369437
4676375296
4676381827
4676386526
4676394583
4676399344
4676406851
4676412283
4676418265
4676424002
4676429617
4676435293
4676441580
4676447684
4676452627
4676457754
4676463492
4676468008
4676473623
4676478872
4676483633
4676490225
4676496023
4676502005
4676508047
4676513845
4676519339
4676524893
4676531363
4676536795
4676543753
4676548635
4676554800
4676561026
4676566152
4676571096
4676577261
4676582449
4676589224
4676595388
4676601492
4676607473
4676613516
4676619375
4676623892
4676630239
4676635610
4676640737
4676646413
4676651235
4676658132
4676663869
4676668752
4676674795
4676679311
4676684988
4676689382
4676695913
4676699270
4676707693
4676713857
4676719106
4676727712
4676734365
4676741140
4676749318
4676753713
4676761220
4676767873
4676774221
4676779836
4676785634
4676791555
4676797902
4676803701
4676809011
4676815541
4676822011
4676830495
4676835378
4676843862
4676850576
4676857350
4676865102
4676872670
4676878652
4676886342
4676893300
4676899098
4676905690
4676910024
4676916921
4676922597
4676928029
4676933949
4676937673
4676944081
4676950978
4676957692
4676963063
4676968312
4676973561
4676979848
4676985463
4676989674
4676996327
4677002736
4677007863
4677013356
4677018361
4677024098
4677029835
4677037526
4677042103
4677048634
4677053029
4677058888
4677064564
4677070179
4677077015
4677083119
4677088429
4677092579
4677098744
4677102955
4677108815
4677115651
4677120961
4677126576
4677131764
4677137867
4677143299
4677149891
4677155567
4677161122
4677166371
4677173451
4677180287
4677185292
4677193592
4677198841
4677203846
4677209583
4677216358
4677222828
4677227711
4677235096
4677239857
4677247486
4677254688
4677259693
4677267384
4677271717
4677279835
4677286488
4677293140
4677298939
4677303211
4677310474
4677316944
4677323170
4677328419
4677334522
4677343983
4677349720
4677356373
4677363270
4677370777
4677376392
4677386829
4677394397
4677404285
4677409656
4677415210
4677422107
4677427356
4677433643
4677439746
4677444995
4677452930
4677458606
4677464160
4677470264
4677476001
4677481006
4677485401
4677492114
4677497974
4677502735
4677508594
4677512561
4677518604
4677524890
4677530078
4677534412
4677541003
4677546619
4677551990
4677557727
4677563281
4677568591
4677573962
4677579822
4677584277
4677590076
4677594775
4677601489
4677605945
4677613147
4677618945
4677624682
4677629321
4677634448
4677639758
4677645129
4677650317
4677655383
4677660022
4677665881
4677672046
4677677783
4677683520
4677688586
4677695605
4677698840
4677705676
4677711596
4677717395
4677723315
4677729663
4677735095
4677739184
4677745654
4677749804
4677756091
4677760119
4677765185
4677771411
4677777026
4677782336
4677788684
4677793749
4677798876
4677803759
4677809313
4677815600
4677821215
4677826647
4677830798
4677836962
4677840991
4677849047
4677854968
4677861498
4677869128
4677874255
4677879687
4677887011
4677893114
4677899157
4677907336
4677910937
4677920031
4677925829
4677931811
4677938280
4677944201
4677949633
4677955919
4677961596
4677967760
4677971789
4677979723
4677984423
4677990282
4677994982
4678002123
4678008287
4678013353
4678019945
4678025988
4678031237
4678036913
4678042467
4678047106
4678054369
4678060289
4678066088
4678069628
4678077989
4678083116
4678088548
4678094957
4678099108
4678105211
4678110765
4678117723
4678122118
4678128465
4678134447
4678140489
4678145494
4678153062
4678158861
4678164293
4678167406
4678176256
4678182359
4678186510
4678193834
4678200670
4678205492
4678210130
4678216661
4678221116
4678228136
4678232530
4678239671
4678245775
4678251207
4678257860
4678263902
4678268480
4678275010
4678280931
4678287462
4678293016
4678298875
4678304490
4678309922
4678314866
4678321641
4678327989
4678333421
4678339219
4678344834
4678350938
4678356797
4678362535
4678367051
4678373460
4678380479
4678386521
4678391160
4678396897
4678403123
4678410569
4678418199
4678423203
4678429673
4678434861
4678442979
4678446763
4678454942
4678461533
4678467210
4678472947
4678478440
4678483628
4678489304
4678495835
4678500657
4678507737
4678514023
4678519578
4678524460
4678531418
4678536606
4678543809
4678548569
4678556565
4678562363
4678568345
4678573594
4678578965
4678585740
4678592392
4678599656
4678603257
4678611374
4678616928
4678622300
4678627488
4678635483
4678640366
4678645798
4678651718
4678657578
4678663498
4678667954
4678675766
4678680710
4678686508
4678691147
4678698105
4678701462
4678708542
4678712998
4678721542
4678728134
4678733994
4678738632
4678745041
4678751144
4678755966
4678762619
4678767746
4678774765
4678781784
4678789169
4678794540
4678801132
4678807236
4678813522
4678819809
4678824203
4678830368
4678835007
4678842148
4678848617
4678854660
4678861068
4678867416
4678872909
4678878769
4678883957
4678888412
4678894455
4678899948
4678907760
4678912887
4678918624
4678924240
4678930282
4678935592
4678948287
4678953659
4678960678
4678966415
4678972640
4678979476
4678985397
4678994308
4678999008
4679006698
4679010055
4679018295
4679023788
4679029586
4679036300
4679042098
4679047958
4679053756
4679059188
4679065047
4679070357
4679076400
4679082137
4679086837
4679093917
4679097274
4679104293
4679110824
4679116683
4679121505
4679128280
4679134444
4679141158
4679146895
4679153182
4679158980
4679164962
4679170150
4679176253
4679182357
4679187423
4679194869
4679200789
4679206343
4679212386
4679217940
4679224166
4679229598
4679234481
4679241194
4679245833
4679251509
4679258162
4679264205
4679269820
4679275740
4679281294
4679286055
4679292891
4679299666
4679305586
4679311385
4679316756
4679320113
4679328474
4679334883
4679341353
4679348311
4679352888
4679359358
4679365645
4679371504
4679376021
4679383345
4679390242
4679396101
4679401961
4679406599
4679412886
4679417586
4679424788
4679432173
4679437666
4679442976
4679448591
4679455427
4679460188
4679466597
4679472639
4679478560
4679484297
4679490644
4679496687
4679503462
4679510237
4679516890
4679523054
4679529646
4679535505
4679541243
4679548139
4679553388
4679560835
4679565901
4679572431
4679579450
4679585371
4679590376
4679596296
4679602339
4679608259
4679615888
4679622053
4679627180
4679633527
4679639387
4679644453
4679650983
4679656477
4679663190
4679669416
4679674543
4679679914
4679685407
4679690900
4679696943
4679702924
4679709028
4679714887
4679719526
4679726179
4679730512
4679737531
4679745221
4679750470
4679755170
4679760358
4679766401
4679771894
4679778302
4679782514
4679788923
4679795087
4679799970
4679805768
4679811078
4679815412
4679822309
4679829999
4679835614
4679840436
4679846112
4679851422
4679856366
4679862531
4679867353
4679873883
4679878400
4679885297
4679890485
4679895551
4679901471
4679907819
4679913556
4679919171
4679924664
4679930096
4679934918
4679940411
4679945721
4679951703
4679959332
4679964520
4679969830
4679975140
4679980572
4679987286
4679993695
4679999188
4680004986
4680009747
4680015301
4680020794
4680025189
4680032574
4680038006
4680048138
4680053692
4680058697
4680065838
4680072918
4680079144
4680085614
4680093487
4680100079
4680107708
4680113324
4680118634
4680125225
4680131756
4680136395
4680142620
4680148602
4680154278
4680157574
4680165386
4680171246
4680176556
4680181683
4680187237
4680193157
4680197430
4680202862
4680209820
4680215374
4680218670
4680227032
4680233074
4680238689
4680244976
4680251080
4680256451
4680261333
4680268230
4680274090
4680279522
4680284466
4680290508
4680296917
4680301555
4680307110
4680311687
4680318706
4680323833
4680329876
4680335979
4680341594
4680347149
4680351543
4680357769
4680362529
4680367901
4680374248
4680380047
4680385112
4680389629
4680395794
4680401165
4680407573
4680415264
4680420208
4680427288
4680432781
4680437969
4680443889
4680448039
4680454204
4680458782
4680465557
4680471355
4680476726
4680482646
4680488262
4680493572
4680499248
4680504924
4680509380
4680515544
4680520732
4680526286
4680532756
4680537395
4680544658
4680549541
4680557780
4680566081
4680570171
4680579448
4680587871
4680594096
4680601054
4680607890
4680615397
4680621074
4680626933
4680632853
4680638225
4680643168
4680650126
4680656840
4680662761
4680667399
4680673137
4680679545
4680685832
4680690959
4680698466
4680704142
4680709941
4680715007
4680720744
4680726786
4680732096
4680736674
4680743876
4680749125
4680754252
4680760111
4680766093
4680771159
4680776835
4680784037
4680789774
4680794840
4680800395
4680805460
4680810404
4680816935
4680822733
4680827616
4680832987
4680838786
4680844279
4680848978
4680855082
4680861185
4680866862
4680871744
4680877604
4680882731
4680887980
4680893778
4680899637
4680903971
4680911295
4680914286
4680921732
4680926432
4680932841
4680938944
4680943583
4680950480
4680953837
4680961344
4680966227
4680973795
4680979166
4680985209
4680990824
4680995462
4681001871
4681008646
4681012979
4681020365
4681025064
4681031168
4681035684
4681041788
4681048685
4681055033
4681062784
4681068033
4681075601
4681082010
4681090555
4681099771
4681105020
4681110819
4681116617
4681123819
4681128885
4681135355
4681140848
4681146646
4681151956
4681157693
4681163919
4681169778
4681175394
4681182107
4681187479
4681192239
4681199136
4681205484
4681211099
4681217142
4681223245
4681229043
4681233926
4681240213
4681246133
4681250955
4681257364
4681262368
4681269449
4681273965
4681279947
4681284219
4681291116
4681296487
4681302285
4681308633
4681314370
4681320352
4681325296
4681331033
4681336404
4681342874
4681350015
4681354775
4681360879
4681366372
4681371377
4681377847
4681383523
4681389871
4681395120
4681401040
4681405740
4681411599
4681416482
4681425576
4681432046
4681436806
4681442727
4681447243
4681453042
4681459328
4681464822
4681471047
4681477029
4681481606
4681486184
4681492837
4681498269
4681503152
4681509743
4681516030
4681521767
4681526406
4681533242
4681538796
4681544594
4681550148
4681555947
4681562050
4681568459
4681574135
4681580178
4681587380
4681595253
4681602211
4681608376
4681614052
4681621071
4681629677
4681635414
4681641518
4681647804
4681654030
4681658669
4681665993
4681672646
4681678505
4681684609
4681690529
4681695778
4681701088
4681706581
4681711952
4681718483
4681724587
4681729286
4681734779
4681741249
4681746498
4681752235
4681755409
4681763100
4681768532
4681773659
4681779335
4681783302
4681789406
4681795814
4681803383
4681806740
4681814369
4681820411
4681825477
4681830971
4681836403
4681842506
4681848427
4681852760
4681858864
4681864357
4681869728
4681875160
4681879921
4681887489
4681893165
4681898292
4681903358
4681908485
4681913307
4681920204
4681927711
4681932350
4681938270
4681942726
4681948768
4681952979
4681959144
4681964759
4681970252
4681975685
4681980811
4681986427
4681991493
4681996436
4682002845
4682008765
4682014137
4682019264
4682024818
4682030250
4682034400
4682041236
4682047828
4682053321
4682059486
4682064551
4682069251
4682074439
4682080909
4682087134
4682093604
4682101050
4682107215
4682112708
4682119727
4682126746
4682134864
4682140845
4682148291
4682154700
4682160437
4682167151
4682173133
4682179114
4682183875
4682189734
4682195411
4682200904
4682205176
4682211585
4682217505
4682223059
4682229102
4682235327
4682240576
4682244422
4682250037
4682256140
4682262366
4682266882
4682272986
4682277197
4682283972
4682289221
4682295142
4682298682
4682306494
4682312842
4682318640
4682323767
4682329260
4682334631
4682340369
4682347510
4682352942
4682358435
4682364783
4682370215
4682376013
4682381018
4682388037
4682393225
4682398840
4682403601
4682410620
4682413977
4682422278
4682428930
4682433386
4682439428
4682445593
4682451330
4682456213
4682462988
4682468054
4682474524
4682478369
4682485510
4682491674
4682497412
4682502966
4682509741
4682515661
4682520544
4682527502
4682531164
4682539160
4682544348
4682550085
4682555212
4682560949
4682567175
4682571630
4682577856
4682581945
4682589941
4682595922
4682601782
4682607946
4682615209
4682622961
4682629003
4682634740
4682640844
4682648656
4682655187
4682662145
4682669591
4682678319
4682684728
4682690710
4682696447
4682703039
4682709142
4682716283
4682724279
4682729589
4682736547
4682743200
4682748449
4682754735
4682760289
4682766088
4682774083
4682780431
4682784826
4682793554
4682799718
4682804235
4682811254
4682817845
4682823705
4682829076
4682836095
4682844213
4682853063
4682860448
4682868443
4682876866
4682883763
4682892308
4682900853
4682910191
4682918980
4682930150
4682938878
4682947545
4682954442
4682963170
4682972691
4682984654
4682993931
4683005345
4683013218
4683020238
4683027501
4683035374
4683043919
4683053257
4683061375
4683070469
4683078953
4683086033
4683094883
4683103245
4683112461
4683119541
4683129612
4683137181
4683146275
4683154209
4683162266
4683170994
4683179966
4683187046
4683196140
4683204441
4683211216
4683221897
4683228611
4683238560
4683246921
4683256443
4683266453
4683274021
4683283970
4683292576
4683303440
4683313694
4683321201
4683332554
4683343357
4683350498
4683363254
4683371738
4683379856
4683389621
4683396396
4683404453
4683411594
4683424167
4683432041
4683440158
4683450229
4683457248
4683466281
4683473239
4683484287
4683494418
4683501071
4683511508
4683517856
4683526218
4683535312
4683543552
4683550815
4683560153
4683566745
4683576755
4683585727
4683594089
4683603793
4683613376
4683621798
4683628634
4683639499
4683647067
4683654147
4683661715
4683669406
4683679416
4683687106
4683697238
4683707919
4683715426
4683723239
4683731051
4683738925
4683748324
4683756869
4683766024
4683774752
4683783907
4683792757
4683800570
4683812106
4683820467
4683828646
4683836764
4683845370
4683854708
4683863314
4683870699
4683879977
4683890169
4683896273
4683905001
4683912630
4683924410
4683932100
4683940218
4683951143
4683957857
4683968843
4683976290
4683983919
4683991915
4684000582
4684009005
4684014864
4684024080
4684029085
4684041292
4684049410
4684056185
4684066316
4684074922
4684082857
4684090303
4684099092
4684106844
4684115877
4684124300
4684132783
4684141023
4684149568
4684158052
4684168123
4684174287
4684183259
4684191072
4684201265
4684209810
4684215913
4684225496
4684233735
4684242708
4684251985
4684261445
4684267427
4684272554
4684279267
4684283479
4684290376
4684293733
4684301911
4684308686
4684314118
4684319978
4684325410
4684330476
4684336579
4684341645
4684347688
4684353364
4684359040
4684364961
4684369050
4684374421
4684381318
4684386994
4684390412
4684397981
4684404084
4684408295
4684414094
4684419831
4684426301
4684431000
4684435578
4684440400
4684449494
4684456757
4684462067
4684470002
4684475129
4684480866
4684485566
4684490510
4684496918
4684502961
4684510407
4684517487
4684522858
4684527680
4684531769
4684539338
4684544648
4684550202
4684556244
4684559906
4684570404
4684578827
4684585053
4684593842
4684601227
4684607025
4684614044
4684620575
4684627716
4684635712
4684641388
4684647431
4684653595
4684660065
4684667328
4684673432
4684678803
4684684113
4684689850
4684694916
4684701874
4684707428
4684713409
4684718658
4684724518
4684730377
4684735565
4684741608
4684746918
4684752716
4684758087
4684762848
4684767975
4684773956
4684779938
4684785431
4684791107
4684795257
4684800812
4684805877
4684811859
4684816986
4684823944
4684829864
4684836517
4684841888
4684848724
4684851959
4684858917
4684864593
4684870330
4684876678
4684882171
4684887909
4684893829
4684899444
4684906036
4684912628
4684916839
4684923736
4684928680
4684934783
4684941924
4684946075
4684953033
4684958282
4684963775
4684970428
4684977752
4684983062
4684989288
4684993743
4684999358
4685005096
4685011565
4685018035
4685022552
4685030852
4685037566
4685043121
4685048919
4685054778
4685061004
4685068084
4685072784
4685080291
4685087005
4685094878
4685102141
4685109038
4685115325
4685121306
4685126677
4685134429
4685141936
4685146453
4685154509
4685159636
4685165313
4685170562
4685175994
4685182097
4685187102
4685193511
4685197966
4685203704
4685209319
4685215422
4685220244
4685227202
4685234038
4685239653
4685244902
4685250701
4685256194
4685262847
4685266936
4685272673
4685279570
4685285490
4685293547
4685300139
4685305510
4685311064
4685320219
4685326933
4685332732
4685338042
4685344267
4685350798
4685356596
4685361845
4685369231
4685376066
4685381438
4685387785
4685393645
4685398405
4685403654
4685410124
4685415922
4685421782
4685428557
4685433989
4685439787
4685444853
4685453337
4685458342
4685463896
4685469694
4685475798
4685481413
4685486784
4685493559
4685498075
4685503996
4685509672
4685514372
4685519865
4685525968
4685531828
4685536955
4685542326
4685548429
4685553739
4685560209
4685566190
4685571501
4685581449
4685587186
4685593107
4685598905
4685604276
4685611600
4685616361
4685623746
4685629850
4685635526
4685640714
4685647245
4685654569
4685658842
4685664274
4685669095
4685677213
4685682157
4685688627
4685693937
4685699857
4685705411
4685711210
4685716092
4685720487
4685727689
4685733670
4685738920
4685744962
4685750211
4685755887
4685761197
4685767118
4685774808
4685780362
4685785550
4685792203
4685796231
4685803495
4685810086
4685815213
4685820951
4685827725
4685832669
4685838773
4685844022
4685850430
4685853848
4685862027
4685868619
4685873135
4685879544
4685884732
4685890591
4685896390
4685901578
4685907315
4685913052
4685918423
4685924710
4685931119
4685935818
4685941373
4685946011
4685953152
4685958584
4685964383
4685970425
4685975796
4685980679
4685987027
4685993558
4685998196
4686004727
4686008877
4686015652
4686020657
4686027798
4686032742
4686038235
4686044583
4686049160
4686057095
4686063443
4686068570
4686075161
4686081082
4686087063
4686093350
4686099819
4686106167
4686113186
4686120022
4686126003
4686132046
4686137600
4686142727
4686147549
4686153958
4686158169
4686165066
4686171108
4686176235
4686181973
4686188076
4686193081
4686199184
4686204861
4686208096
4686215481
4686222012
4686227566
4686234402
4686238735
4686245144
4686250698
4686256801
4686260036
4686267116
4686272549
4686278347
4686284328
4686289577
4686294704
4686300503
4686306301
4686311977
4686317531
4686324978
4686330593
4686335903
4686340847
4686345913
4686351345
4686357570
4686363552
4686368862
4686374294
4686379665
4686384670
4686390468
4686396327
4686402919
4686408473
4686414150
4686418117
4686424404
4686430690
4686435634
4686441188
4686446926
4686452785
4686457851
4686462795
4686468532
4686473598
4686481715
4686487514
4686492519
4686497707
4686502895
4686508693
4686513393
4686520351
4686524135
4686533229
4686537929
4686543300
4686548976
4686552577
4686564235
4686569850
4686574855
4686581691
4686588099
4686594813
4686603053
4686612269
4686618434
4686624171
4686628749
4686634913
4686639796
4686646571
4686651515
4686656947
4686663417
4686667384
4686674525
4686681117
4686686305
4686691310
4686697840
4686702723
4686708033
4686713893
4686719630
4686725245
4686731104
4686737208
4686741786
4686748683
4686753626
4686759364
4686765345
4686770838
4686776515
4686781825
4686786890
4686793116
4686798182
4686802515
4686809107
4686815882
4686821314
4686827723
4686834254
4686839808
4686845118
4686852198
4686855982
4686863367
4686869349
4686874598
4686880335
4686886561
4686891199
4686895777
4686902613
4686907129
4686913477
4686918909
4686926294
4686932825
4686939234
4686944239
4686949305
4686955347
4686959864
4686967127
4686973047
4686979639
4686985498
4686991724
4686996851
4687001306
4687007959
4687012598
4687018884
4687024134
4687030115
4687036341
4687041834
4687048486
4687054956
4687059961
4687064478
4687071558
4687074854
4687082178
4687088831
4687095117
4687102319
4687106897
4687113184
4687120019
4687125940
4687131311
4687138086
4687144800
4687150842
4687156030
4687162195
4687167322
4687171533
4687178003
4687182825
4687189294
4687195886
4687199670
4687206384
4687212182
4687217920
4687223291
4687230371
4687233484
4687241723
4687246972
4687252160
4687257592
4687264245
4687269555
4687275293
4687281884
4687285119
4687291772
4687296228
4687303002
4687308862
4687314294
4687320275
4687324487
4687330468
4687335107
4687342553
4687348962
4687354333
4687359094
4687364953
4687370751
4687375268
4687381005
4687385522
4687392480
4687399072
4687405114
4687409203
4687415307
4687421899
4687427453
4687432885
4687437951
4687443078
4687449242
4687453271
4687461205
4687466149
4687471398
4687478234
4687483544
4687491051
4687493798
4687501305
4687509240
4687513878
4687519738
4687524254
4687530907
4687536217
4687543114
4687549340
4687553856
4687560021
4687565270
4687571556
4687576622
4687583336
4687589989
4687595909
4687602013
4687609154
4687613365
4687620812
4687626366
4687633934
4687639794
4687645409
4687651207
4687657127
4687663109
4687669396
4687675621
4687680504
4687685875
4687689110
4687696617
4687703453
4687709618
4687716576
4687721397
4687726707
4687732201
4687738365
4687741905
4687749168
4687755211
4687760643
4687765587
4687771080
4687777122
4687782799
4687788414
4687791649
4687798790
4687805076
4687810142
4687816002
4687820640
4687826500
4687832298
4687837974
4687842735
4687849327
4687852378
4687859214
4687865928
4687872276
4687877281
4687882774
4687888328
4687893516
4687898582
4687903953
4687911033
4687917320
4687922508
4687928062
4687933677
4687939231
4687944297
4687955955
4687962425
4687972862
4687979148
4687987632
4687995811
4688001243
4688006858
4688011924
4688017783
4688022971
4688027854
4688034385
4688039756
4688046104
4688051597
4688056479
4688062217
4688068076
4688074119
4688079917
4688085532
4688090964
4688096763
4688101890
4688108237
4688114402
4688119346
4688126242
4688131858
4688138022
4688144614
4688151267
4688156760
4688163047
4688168906
4688173850
4688181052
4688186545
4688191977
4688196250
4688202597
4688209372
4688213584
4688219809
4688224326
4688231162
4688236044
4688242819
4688248068
4688257834
4688263205
4688269125
4688274741
4688279623
4688286887
4688292075
4688298727
4688305319
4688310812
4688316672
4688322714
4688328574
4688333395
4688340353
4688346518
4688351523
4688357504
4688363241
4688370321
4688375387
4688381796
4688386740
4688392843
4688398947
4688404501
4688410788
4688416281
4688423117
4688427939
4688434408
4688439535
4688446859
4688453024
4688460470
4688466391
4688472738
4688477865
4688482016
4688488729
4688495138
4688500997
4688506613
4688512533
4688518637
4688522726
4688528158
4688534078
4688539999
4688546652
4688551656
4688558187
4688562277
4688568868
4688573141
4688580404
4688585531
4688590902
4688596212
4688602438
4688607442
4688612081
4688618368
4688626363
4688632162
4688638631
4688643209
4688649007
4688655721
4688662801
4688671224
4688680318
4688686849
4688694906
4688700582
4688708028
4688713949
4688719625
4688725118
4688730672
4688736470
4688741964
4688748311
4688754537
4688759908
4688764608
4688771688
4688776265
4688783406
4688789388
4688795125
4688801900
4688807637
4688812886
4688818807
4688824971
4688829671
4688836263
4688842854
4688848103
4688853780
4688859334
4688864888
4688870503
4688876851
4688883443
4688888509
4688895467
4688900716
4688906270
4688911824
4688917561
4688923848
4688930257
4688936299
4688942341
4688947957
4688953450
4688960713
4688965840
4688972432
4688978108
4688983235
4688989094
4688994648
4689001179
4689006978
4689012715
4689017903
4689024189
4689030293
4689036030
4689041706
4689048115
4689053547
4689059040
4689065510
4689071614
4689076618
4689082173
4689087971
4689094441
4689099385
4689105427
4689110676
4689115986
4689122639
4689128559
4689133808
4689139546
4689145771
4689151203
4689157856
4689163960
4689170979
4689177815
4689184040
4689190266
4689197102
4689202961
4689209736
4689215778
4689223591
4689229206
4689235737
4689241657
4689247455
4689253376
4689259418
4689265766
4689271686
4689276386
4689283222
4689288166
4689295734
4689301105
4689306659
4689313434
4689318927
4689324299
4689329792
4689335651
4689341938
4689347797
4689354267
4689359272
4689365070
4689371234
4689375995
4689382282
4689387958
4689393878
4689399616
4689404987
4689412250
4689418231
4689423602
4689428974
4689434894
4689440753
4689445941
4689452045
4689457782
4689464130
4689469379
4689474139
4689482745
4689489093
4689494586
4689500018
4689506427
4689513263
4689517840
4689524310
4689530353
4689535724
4689542377
4689547076
4689553668
4689559405
4689566730
4689571918
4689578937
4689584063
4689589374
4689595355
4689600970
4689607989
4689614093
4689619830
4689625750
4689631121
4689637469
4689641497
4689648455
4689654620
4689660113
4689665667
4689670977
4689677386
4689683551
4689689654
4689696368
4689702838
4689709979
4689716265
4689722064
4689728167
4689734332
4689742388
4689748736
4689755938
4689762042
4689767291
4689772906
4689779498
4689785662
4689792376
4689796831
4689803362
4689808184
4689814959
4689820025
4689826861
4689832354
4689839129
4689843889
4689849444
4689856280
4689860796
4689868426
4689874529
4689880510
4689885393
4689892840
4689897539
4689904253
4689907488
4689916765
4689923174
4689928972
4689934771
4689940752
4689947344
4689952043
4689959612
4689965410
4689971514
4689977251
4689982561
4689987810
4689993303
4689999895
4690006182
4690011186
4690017229
4690022661
4690027666
4690034990
4690039751
4690046709
4690053423
4690058733
4690065263
4690070085
4690075945
4690080461
4690087907
4690093706
4690099138
4690104997
4690111101
4690117082
4690121782
4690129045
4690136003
4690141496
4690146562
4690152482
4690159074
4690163530
4690171159
4690177202
4690182573
4690189103
4690193315
4690200212
4690204606
4690212114
4690217424
4690224015
4690229570
4690235246
4690240312
4690246843
4690255265
4690263444
4690269670
4690274736
4690281083
4690287370
4690292375
4690300309
4690308427
4690314469
4690321732
4690327714
4690332719
4690338578
4690344254
4690349381
4690357072
4690360368
4690367448
4690373673
4690379288
4690384537
4690390458
4690395951
4690400223
4690405778
4690409074
4690414262
4690417618
4690421769
4690426408
4690431168
4690434464
4690439774
4690444108
4690448258
4690452775
4690458451
4690463883
4690468155
4690472123
4690475724
4690480240
4690483719
4690489457
4690494889
4690499222
4690502823
4690507218
4690511918
4690516312
4690520768
4690526627
4690530838
4690535233
4690539566
4690543167
4690547745
4690551346
4690557938
4690562577
4690567154
4690571366
4690575760
4690579972
4690584366
4690588578
4690593888
4690598892
4690603470
4690608719
4690613968
4690618118
4690622940
4690628128
4690632950
4690638748
4690642410
4690647415
4690651077
4690655777
4690659866
4690665543
4690670486
4690675247
4690679337
4690682693
4690688431
4690692520
4690697830
4690703628
4690707535
4690714493
4690719131
4690725601
4690728409
4690734695
4690741104
4690746231
4690751663
4690757828
4690764663
4690768814
4690775161
4690779129
4690784500
4690787552
4690794082
4690799209
4690803848
4690806717
4690813064
4690817825
4690822525
4690827102
4690831802
4690836807
4690841751
4690847000
4690852432
4690857193
4690861892
4690866409
4690871780
4690875930
4690880691
4690884902
4690890518
4690895584
4690899612
4690905166
4690909561
4690914932
4690919326
4690924819
4690929092
4690935012
4690937637
4690943069
4690948379
4690953628
4690956924
4690964614
4690968154
4690975906
4690979263
4690987197
4690990249
4690997634
4691002639
4691008132
4691014297
4691019546
4691024673
4691029983
4691031570
4691038589
4691044570
4691049880
4691057143
4691062026
4691067641
4691073501
4691078322
4691082900
4691089309
4691093581
4691101210
4691105971
4691111281
4691116469
4691121962
4691123793
4691132521
4691138991
4691143264
4691150100
4691154067
4691159316
4691164626
4691170058
4691175978
4691182570
4691187819
4691194167
4691198866
4691202895
4691209059
4691216078
4691224989
4691233046
4691236098
4691245131
4691251723
4691256056
4691261244
4691269850
4691276564
4691283156
4691287855
4691293349
4691297804
4691304396
4691309767
4691315504
4691320631
4691326735
4691331312
4691337599
4691342116
4691349135
4691354567
4691360121
4691366835
4691371290
4691377333
4691382399
4691387343
4691392531
4691398329
4691403090
4691409742
4691415785
4691421827
4691427076
4691431593
4691434767
4691443190
4691446424
4691454664
4691459913
4691465956
4691471205
4691477247
4691482130
4691487257
4691494093
4691499647
4691504286
4691510511
4691516187
4691521375
4691527357
4691532728
4691538343
4691543531
4691550916
4691556226
4691561842
4691566846
4691572523
4691576246
4691583753
4691587049
4691594312
4691599927
4691607252
4691612134
4691618665
4691623548
4691628919
4691633130
4691640577
4691645521
4691652723
4691657850
4691664564
4691670057
4691677259
4691684217
4691689771
4691698377
4691703565
4691711255
4691716565
4691724073
4691729139
4691732495
4691741346
4691747205
4691753614
4691755506
4691764417
4691767957
4691776197
4691781507
4691788037
4691794507
4691799451
4691806958
4691813001
4691817151
4691826856
4691830823
4691839734
4691847913
4691853040
4691862195
4691867139
4691872815
4691879163
4691884228
4691890515
4691897351
4691901746
4691907971
4691912976
4691918713
4691924512
4691927869
4691935925
4691942639
4691947033
4691953808
4691958264
4691963086
4691968640
4691974133
4691980664
4691985974
4691992321
4691997570
4692003064
4692007458
4692014050
4692018872
4692025769
4692032238
4692038952
4692045178
4692050915
4692055249
4692058605
4692066906
4692072521
4692078747
4692084240
4692088574
4692093334
4692098950
4692103710
4692109570
4692114330
4692120922
4692127575
4692133190
4692137341
4692144238
4692148449
4692154675
4692159252
4692164867
4692171154
4692177380
4692182934
4692184826
4692193432
4692196545
4692203564
4692209850
4692216137
4692219921
4692227428
4692230968
4692237804
4692243297
4692249462
4692254162
4692261608
4692266613
4692272289
4692277355
4692284496
4692289135
4692294750
4692301830
4692306713
4692315746
4692320507
4692330089
4692335704
4692342601
4692349742
4692357921
4692365367
4692370800
4692382640
4692391612
4692399791
4692406749
4692409862
4692421398
4692429698
4692437694
4692445873
4692449840
4692465343
4692474864
4692483592
4692494273
4692501659
4692508800
4692521251
4692527904
4692541759
4692550731
4692559337
4692566722
4692576487
4692583995
4692589732
4692598826
4692606578
4692614940
4692622020
4692630870
4692637156
4692642222
4692651927
4692659800
4692667369
4692673960
4692682566
4692692088
4692699412
4692707469
4692714243
4692724131
4692732310
4692742197
4692750498
4692760142
4692768565
4692775339
4692784190
4692792185
4692799692
4692807383
4692816782
4692823801
4692829722
4692838206
4692845102
4692853953
4692863230
4692871103
4692878611
4692884958
4692893992
4692901865
4692910105
4692918894
4692922129
4692935373
4692941355
4692953318
4692958689
4692969736
4692978586
4692987009
4692994333
4693001474
4693013132
4693018808
4693028818
4693037424
4693043649
4693052133
4693061899
4693070444
4693078806
4693084970
4693094186
4693103708
4693111825
4693119699
4693122934
4693134286
4693143381
4693150705
4693158212
4693166696
4693173776
4693181711
4693188424
4693194955
4693204538
4693211190
4693216928
4693226266
4693234689
4693241952
4693251657
4693254953
4693265328
4693273080
4693282357
4693290292
4693297982
4693304818
4693312875
4693320382
4693328988
4693338448
4693345956
4693349496
4693361520
4693370553
4693378365
4693387154
4693395272
4693402962
4693413827
4693420968
4693430001
4693441598
4693449654
4693455636
4693467232
4693479317
4693486580
4693492440
4693504097
4693513192
4693520821
4693532418
4693535958
4693548958
4693555062
4693563851
4693571358
4693579598
4693586373
4693591377
4693602242
4693609627
4693618294
4693626167
4693633797
4693640144
4693645515
4693654915
4693662422
4693668648
4693677925
4693680916
4693691292
4693696907
4693707161
4693712288
4693721870
4693730293
4693736091
4693748665
4693755012
4693763252
4693771614
4693779121
4693789314
4693795173
4693804206
4693811531
4693820198
4693826973
4693832099
4693841621
4693848823
4693857978
4693864997
4693867988
4693878303
4693885688
4693893257
4693900031
4693908393
4693917487
4693925239
4693932075
4693940376
4693947639
4693954597
4693961677
4693968574
4693976447
4693985786
4693990241
4693998420
4694007819
4694014533
4694021674
4694029181
4694036323
4694044074
4694051215
4694058906
4694066535
4694074347
4694081427
4694091498
4694098334
4694105719
4694112494
4694120124
4694129096
4694136847
4694143988
4694153876
4694156989
4694168585
4694173041
4694181586
4694188605
4694197821
4694207282
4694216681
4694223517
4694231146
4694239325
4694246283
4694254950
4694261786
4694268622
4694277960
4694283270
4694293646
4694300970
4694307867
4694315253
4694323553
4694332220
4694338141
4694349798
4694359198
4694369574
4694377325
4694385870
4694393438
4694399420
4694409674
4694417974
4694428167
4694436102
4694443487
4694450140
4694458074
4694462835
4694469610
4694474249
4694479925
4694487554
4694495794
4694501043
4694506536
4694512457
4694518438
4694522894
4694529363
4694535589
4694541814
4694548162
4694553106
4694559026
4694564397
4694570257
4694576055
4694583807
4694588567
4694594366
4694599798
4694605535
4694610418
4694616399
4694621465
4694628301
4694635564
4694640020
4694646551
4694652288
4694657232
4694663152
4694669622
4694677739
4694682744
4694688482
4694693547
4694699285
4694704229
4694710210
4694715337
4694723088
4694729497
4694735234
4694740789
4694745366
4694753850
4694758367
4694764592
4694772954
4694779057
4694784856
4694790410
4694796636
4694801763
4694807744
4694813847
4694819829
4694825627
4694830144
4694836980
4694841679
4694845219
4694854375
4694859257
4694865178
4694871770
4694876225
4694882451
4694888554
4694892155
4694899357
4694905156
4694910466
4694915288
4694921391
4694926335
4694934270
4694940007
4694947209
4694952824
4694959721
4694965214
4694972722
4694978581
4694986149
4694993107
4694999333
4695005741
4695012150
4695021672
4695029911
4695036442
4695041386
4695047917
4695054142
4695059880
4695066410
4695071720
4695076298
4695082646
4695087467
4695094303
4695099857
4695106327
4695113224
4695120426
4695126530
4695131779
4695138676
4695143803
4695151737
4695157108
4695162724
4695169376
4695175053
4695183231
4695190433
4695196171
4695202640
4695209049
4695214664
4695220524
4695225345
4695233097
4695238163
4695242801
4695249210
4695256778
4695262150
4695267887
4695272464
4695279300
4695284549
4695290409
4695295292
4695302127
4695307499
4695314029
4695320499
4695325687
4695331974
4695336917
4695344913
4695349063
4695356815
4695362979
4695370670
4695375980
4695382266
4695387515
4695393314
4695398563
4695404605
4695411624
4695416934
4695423892
4695429813
4695434512
4695439761
4695446841
4695452457
4695459964
4695464114
4695470401
4695475894
4695482425
4695487857
4695493228
4695498782
4695506595
4695511355
4695518741
4695523196
4695529788
4695534549
4695539737
4695544742
4695551883
4695555728
4695563662
4695567263
4695573550
4695578189
4695583377
4695588931
4695595950
4695602664
4695612002
4695615359
4695623965
4695628726
4695636843
4695641482
4695648623
4695655947
4695661440
4695665591
4695675662
4695679324
4695686038
4695692202
4695697817
4695702761
4695708743
4695713625
4695720767
4695725405
4695732546
4695737795
4695744082
4695751528
4695756289
4695760744
4695767031
4695772768
4695779177
4695784914
4695789980
4695795962
4695801638
4695808840
4695813845
4695819582
4695824160
4695829592
4695835085
4695843142
4695848696
4695853884
4695859804
4695866030
4695871706
4695875490
4695881899
4695887636
4695894594
4695897951
4695906557
4695911013
4695917726
4695921816
4695928957
4695935121
4695941469
4695946779
4695953493
4695958437
4695963320
4695970766
4695976198
4695980837
4695986757
4695993715
4695995790
4696005495
4696010683
4696017030
4696020876
4696029726
4696033632
4696041322
4696044984
4696054811
4696058717
4696066896
4696072633
4696079286
4696086671
4696091920
4696096986
4696104066
4696110109
4696116273
4696121461
4696128114
4696133058
4696139467
4696146974
4696151246
4696157655
4696161744
4696166261
4696172731
4696178102
4696185670
4696193727
4696198426
4696203309
4696210755
4696216432
4696225587
4696231080
4696237977
4696245179
4696252503
4696257813
4696263734
4696271302
4696273805
4696283326
4696289124
4696296021
4696300050
4696307984
4696314088
4696319520
4696324708
4696330506
4696336121
4696341859
4696346497
4696352479
4696358277
4696364259
4696369691
4696375001
4696380921
4696384644
4696392884
4696399232
4696403748
4696407838
4696416077
4696419678
4696426331
4696432007
4696437317
4696444092
4696449341
4696453919
4696459534
4696466309
4696471009
4696477051
4696482056
4696490418
4696496033
4696501099
4696505066
4696512513
4696517517
4696523377
4696529175
4696536133
4696540650
4696546509
4696551392
4696558472
4696564514
4696568909
4696575989
4696582153
4696587280
4696591004
4696598633
4696602478
4696608948
4696614563
4696620178
4696627075
4696633057
4696638062
4696644226
4696649597
4696656860
4696662170
4696667480
4696674377
4696679382
4696684143
4696692016
4696696899
4696703369
4696709350
4696713562
4696721741
4696728699
4696734070
4696738098
4696747497
4696753235
4696758606
4696764282
4696772033
4696777465
4696784301
4696790222
4696796630
4696802978
4696805175
4696814819
4696818481
4696825073
4696830383
4696837768
4696843872
4696851928
4696857604
4696863159
4696868286
4696876525
4696882568
4696890624
4696896728
4696904113
4696909606
4696916076
4696921142
4696927612
4696935180
4696940368
4696945739
4696952697
4696958495
4696963500
4696969543
4696975829
4696981200
4696987914
4696994079
4696999267
4697004394
4697010497
4697016173
4697022948
4697028197
4697033812
4697041259
4697046813
4697054442
4697059630
4697064208
4697071227
4697077636
4697083617
4697089721
4697091918
4697105529
4697109496
4697118834
4697124755
4697131163
4697137877
4697144713
4697151976
4697156981
4697160765
4697169432
4697173644
4697181517
4697185423
4697193419
4697198851
4697203917
4697211363
4697217040
4697221922
4697227721
4697234801
4697240721
4697246092
4697249754
4697258726
4697262694
4697269163
4697274473
4697280943
4697288023
4697292845
4697297606
4697305357
4697310301
4697317686
4697322752
4697328917
4697333616
4697341002
4697345945
4697351317
4697358519
4697364561
4697371946
4697377317
4697383177
4697388365
4697394712
4697401121
4697407530
4697413389
4697418333
4697425108
4697432798
4697437864
4697443174
4697449034
4697454832
4697461668
4697466490
4697472898
4697478147
4697485716
4697492307
4697497923
4697506406
4697512205
4697517271
4697527341
4697534177
4697539060
4697543577
4697552427
4697554563
4697564756
4697569761
4697574705
4697577939
4697586973
4697590452
4697597349
4697600645
4697608152
4697611631
4697617917
4697621274
4697629087
4697632444
4697640195
4697646299
4697652463
4697657468
4697662534
4697668149
4697675107
4697679929
4697684690
4697690915
4697697080
4697704709
4697710752
4697717404
4697719541
4697728086
4697732236
4697739499
4697743100
4697751340
4697757382
4697762631
4697767453
4697774167
4697780332
4697785642
4697790158
4697796994
4697801938
4697808102
4697815060
4697820187
4697824704
4697828183
4697837338
4697841183
4697848325
4697852109
4697858151
4697863278
4697870236
4697875729
4697880917
4697885556
4697892209
4697897030
4697902951
4697908932
4697915585
4697921078
4697927914
4697932797
4697936459
4697945309
4697949337
4697957028
4697962765
4697969235
4697974728
4697980832
4697986691
4697992550
4697998471
4698003720
4698010861
4698016781
4698022091
4698028988
4698034420
4698039669
4698048153
4698051937
4698059139
4698065853
4698070004
4698075680
4698081905
4698086178
4698094601
4698100704
4698107540
4698113949
4698121029
4698126400
4698135677
4698143429
4698152096
4698157894
4698163875
4698171566
4698179256
4698184444
4698188412
4698196773
4698200680
4698207210
4698214657
4698219661
4698224605
4698231868
4698237179
4698242977
4698247799
4698255550
4698262264
4698265804
4698274776
4698278560
4698287166
4698291011
4698298336
4698303951
4698310298
4698317317
4698323116
4698328121
4698334529
4698339351
4698346126
4698351131
4698357662
4698362483
4698368465
4698375667
4698381160
4698387080
4698392268
4698398433
4698403255
4698409786
4698416255
4698421443
4698427974
4698434261
4698438899
4698445186
4698450618
4698456294
4698463435
4698468867
4698475520
4698481319
4698487117
4698491878
4698498469
4698505183
4698510249
4698517085
4698523372
4698528438
4698532283
4698540095
4698545955
4698550959
4698558467
4698563594
4698568354
4698575801
4698581172
4698587825
4698592707
4698599604
4698604731
4698610163
4698617243
4698620845
4698628596
4698632258
4698638850
4698644160
4698651118
4698654780
4698662837
4698670100
4698675898
4698680293
4698688654
4698695246
4698700922
4698706721
4698714228
4698720454
4698727900
4698733698
4698739680
4698745173
4698752314
4698758417
4698766169
4698773310
4698779413
4698784479
4698788325
4698796686
4698802363
4698809809
4698815973
4698822504
4698827692
4698835505
4698840204
4698845881
4698852533
4698859308
4698864069
4698867853
4698877558
4698881342
4698889765
4698893366
4698900202
4698905329
4698911615
4698917536
4698924372
4698929132
4698934931
4698941889
4698948419
4698953180
4698959223
4698964960
4698970331
4698977167
4698982477
4698990106
4698995905
4699000543
4699007379
4699012201
4699019220
4699025934
4699032404
4699038751
4699043756
4699050104
4699055109
4699061700
4699067926
4699071771
4699078485
4699084344
4699091302
4699096490
4699101922
4699107110
4699114618
4699119378
4699124261
4699130365
4699135492
4699139947
4699145013
4699153680
4699157464
4699166314
4699170221
4699177911
4699183953
4699190423
4699194146
4699200860
4699207086
4699213922
4699218988
4699224969
4699230096
4699236138
4699242425
4699248651
4699254693
4699259698
4699264398
4699271661
4699276849
4699282952
4699289117
4699294488
4699299371
4699306573
4699311272
4699316338
4699323357
4699328301
4699334954
4699340935
4699347100
4699352105
4699356805
4699362664
4699370660
4699377373
4699385003
4699389763
4699395806
4699401543
4699408806
4699415093
4699420952
4699427239
4699432671
4699438408
4699445610
4699451653
4699456597
4699461419
4699469963
4699474541
4699479912
4699485283
4699491326
4699496392
4699503105
4699507561
4699514763
4699521904
4699526665
4699531853
4699538628
4699543266
4699550163
4699554497
4699562065
4699566765
4699572319
4699579399
4699585686
4699589958
4699595512
4699600029
4699603203
4699612663
4699617729
4699623405
4699627068
4699636223
4699641106
4699645500
4699648796
4699657707
4699663505
4699668510
4699672417
4699680595
4699684746
4699692009
4699696098
4699702507
4699708183
4699715629
4699720085
4699730034
4699734733
4699742424
4699747917
4699753593
4699759575
4699766227
4699771415
4699778068
4699783500
4699788261
4699795158
4699797233
4699806938
4699810600
4699817314
4699822746
4699828727
4699833488
4699840324
4699845329
4699852165
4699855888
4699863761
4699868827
4699876212
4699881522
4699887016
4699894401
4699900504
4699906059
4699912528
4699917228
4699924064
4699929862
4699935905
4699940482
4699946830
4699952567
4699958488
4699963065
4699966727
4699974174
4699980277
4699987845
4699994071
4700000663
4700007865
4700014335
4700020194
4700026969
4700033011
4700039176
4700044669
4700048880
4700059073
4700065604
4700069999
4700075980
4700080008
4700085685
4700090995
4700094718
4700103995
4700108573
4700115409
4700119071
4700127371
4700131278
4700138114
4700143424
4700150137
4700156973
4700163321
4700168082
4700172659
4700179556
4700184988
4700191031
4700193167
4700202017
4700205862
4700214713
4700220633
4700225088
4700230765
4700236136
4700241812
4700247793
4700252676
4700258597
4700264700
4700270621
4700275259
4700281485
4700286490
4700294119
4700298697
4700302176
4700311453
4700315176
4700321585
4700327444
4700333792
4700338919
4700344473
4700349966
4700356192
4700360769
4700367300
4700375601
4700381582
4700387564
4700393850
4700401174
4700406057
4700412527
4700417715
4700423269
4700429373
4700433950
4700437429
4700446707
4700450247
4700457693
4700463857
4700470083
4700475088
4700480947
4700486684
4700494070
4700499014
4700505178
4700511648
4700513723
4700522207
4700528005
4700533559
4700539053
4700545766
4700550588
4700556875
4700562734
4700568105
4700573781
4700579153
4700585073
4700592702
4700599294
4700607717
4700613332
4700620229
4700627004
4700633596
4700638967
4700645437
4700651174
4700655324
4700665456
4700669301
4700676442
4700680532
4700687978
4700693715
4700700734
4700706472
4700713002
4700718740
4700723134
4700729482
4700734792
4700739919
4700746938
4700751882
4700758229
4700763478
4700769948
4700774587
4700780019
4700786122
4700791432
4700798756
4700804189
4700809804
4700814931
4700820180
4700825246
4700830861
4700837025
4700843312
4700849293
4700855763
4700860341
4700866322
4700873402
4700877247
4700883290
4700888905
4700896229
4700900685
4700907643
4700912526
4700917347
4700923390
4700929249
4700934193
4700937855
4700946278
4700950123
4700958363
4700962696
4700970814
4700976307
4700982472
4700987904
4700995289
4701000294
4701005665
4701010731
4701018116
4701022816
4701029041
4701033619
4701040028
4701046192
4701048512
4701057484
4701061512
4701068958
4701072559
4701079334
4701085255
4701092030
4701098072
4701103077
4701108143
4701114002
4701119068
4701125843
4701131336
4701150684
4701156055
4701160938
4701166859
4701170948
4701178577
4701184925
4701189991
4701195972
4701200611
4701206104
4701212696
4701218494
4701226612
4701231617
4701243763
4701248157
4701256397
4701260852
4701269397
4701273365
4701283863
4701286243
4701298389
4701303638
4701308704
4701314685
4701319690
4701326465
4701329822
4701339710
4701343433
4701351550
4701354907
4701362659
4701366748
4701373523
4701378406
4701385364
4701391345
4701397327
4701401782
4701407031
4701413440
4701419665
4701424121
4701430469
4701434985
4701441455
4701446338
4701449817
4701458179
4701461963
4701469104
4701474658
4701481616
4701487353
4701492175
4701497241
4701503528
4701508349
4701512744
4701517688
4701524890
4701530932
4701536609
4701541247
4701550158
4701556628
4701564196
4701569201
4701575976
4701582629
4701588610
4701592883
4701598193
4701603015
4701606494
4701613024
4701617968
4701624072
4701629321
4701635729
4701641039
4701645800
4701650561
4701656542
4701661852
4701669055
4701673388
4701679614
4701684252
4701689501
4701694811
4701699267
4701705126
4701712023
4701718859
4701723559
4701729174
4701732470
4701739001
4701742358
4701749193
4701754015
4701760973
4701764757
4701770556
4701775805
4701781908
4701786852
4701792162
4701796312
4701803393
4701811510
4701817064
4701825182
4701832445
4701838305
4701844469
4701850084
4701858690
4701864305
4701870653
4701875353
4701882616
4701887621
4701893419
4701900072
4701905809
4701911852
4701917650
4701922045
4701927904
4701934252
4701939684
4701944139
4701948900
4701956468
4701960191
4701967516
4701972337
4701977220
4701981798
4701989000
4701993333
4701999254
4702003770
4702010728
4702016283
4702018358
4702027025
4702033006
4702037828
4702041490
4702051744
4702056383
4702062669
4702068162
4702075242
4702080552
4702086229
4702090806
4702097764
4702102830
4702109544
4702116441
4702118638
4702126329
4702132127
4702138047
4702143357
4702152635
4702158372
4702163682
4702170396
4702175279
4702182359
4702187730
4702192491
4702199937
4702204454
4702208116
4702216844
4702220384
4702226975
4702232408
