4606197619
4606203234
4606208544
4606214099
4606219409
4606224841
4606230151
4606236010
4606240954
4606245715
4606250842
4606255480
4606261340
4606267260
4606272509
4606277575
4606283679
4606289172
4606295214
4606300585
4606305407
4606311816
4606317492
4606323473
4606329577
4606335070
4606341051
4606347521
4606354174
4606362048
4606366259
4606374193
4606382006
4606388109
4606395251
4606403124
4606409044
4606417284
4606422777
4606429857
4606435412
4606443895
4606450976
4606458422
4606465014
4606471361
4606478258
4606483934
4606492784
4606499071
4606506395
4606512560
4606519213
4606525072
4606530870
4606539965
4606548448
4606555162
4606561327
4606567797
4606575670
4606580126
4606591051
4606598680
4606604173
4606612291
4606618700
4606627000
4606635240
4606644945
4606651231
4606658250
4606665819
4606672166
4606680833
4606688707
4606696275
4606704271
4606711961
4606718736
4606726365
4606734666
4606741014
4606750902
4606757982
4606766160
4606772752
4606779527
4606786607
4606793321
4606802415
4606809556
4606817674
4606825914
4606831346
4606839768
4606845994
4606853684
4606859849
4606870225
4606878404
4606886155
4606895310
4606902573
4606912949
4606921494
4606929307
4606936875
4606943772
4606951279
4606957749
4606965440
4606973801
4606980637
4606987107
4606994797
4607001389
4607007981
4607015183
4607023362
4607027512
4607037339
4607042649
4607049485
4607057602
4607064805
4607072312
4607080735
4607088120
4607095383
4607102707
4607109726
4607117783
4607124253
4607130600
4607138535
4607145127
4607152878
4607159287
4607167526
4607175522
4607183029
4607189438
4607197250
4607204453
4607211350
4607220505
4607226975
4607235519
4607243027
4607250351
4607257919
4607264938
4607267624
4607278793
4607286789
4607294479
4607302048
4607308029
4607316025
4607323654
4607332565
4607338852
4607346969
4607352768
4607360397
4607367904
4607374618
4607380172
4607388839
4607395492
4607404281
4607410995
4607418441
4607425033
4607434005
4607441024
4607450607
4607458053
4607468246
4607473617
4607486251
4607498397
4607505599
4607516280
4607523177
4607531234
4607538436
4607545943
4607551864
4607561141
4607567916
4607577865
4607584701
4607593856
4607601974
4607609359
4607614791
4607622298
4607629867
4607637313
4607645491
4607652633
4607658797
4607667647
4607673568
4607683760
4607690596
4607700057
4607707076
4607716048
4607723250
4607730574
4607740035
4607747725
4607754073
4607762618
4607772017
4607779768
4607787520
4607795332
4607801863
4607810591
4607819441
4607826888
4607835982
4607842940
4607851546
4607859358
4607865767
4607870711
4607882124
4607892073
4607898726
4607907759
4607914717
4607924116
4607930464
4607940168
4607946943
4607956831
4607966536
4607973677
4607982405
4607987837
4607997175
4608004316
4608012617
4608019636
4608029158
4608036482
4608045881
4608050825
4608062238
4608066999
4608077680
4608085066
4608094831
4608102277
4608110212
4608117353
4608126936
4608135358
4608142988
4608150556
4608161054
4608166852
4608177289
4608184675
4608194196
4608201215
4608208784
4608216474
4608224592
4608231794
4608239423
4608248761
4608257001
4608263898
4608272809
4608279035
4608287519
4608295758
4608302472
4608308515
4608314496
4608323896
4608331586
4608337812
4608347394
4608355451
4608362592
4608369183
4608376325
4608382855
4608389630
4608397748
4608405194
4608412335
4608419110
4608426251
4608433942
4608441327
4608448041
4608455548
4608462262
4608470624
4608477765
4608484601
4608491620
4608500165
4608509503
4608517438
4608527142
4608532452
4608542523
4608546917
4608557721
4608566327
4608574566
4608582928
4608587506
4608596722
4608601055
4608611248
4608620037
4608627423
4608634075
4608643292
4608650433
4608658672
4608665447
4608669781
4608680462
4608687664
4608694683
4608701397
4608708172
4608719585
4608725262
4608734234
4608741070
4608747173
4608752911
4608758587
4608766643
4608773113
4608780132
4608786236
4608791729
4608797588
4608802959
4608809429
4608815410
4608821209
4608828350
4608834453
4608840618
4608846355
4608852031
4608859295
4608869121
4608876018
4608881267
4608887920
4608895183
4608900432
4608906902
4608912151
4608921672
4608927532
4608932903
4608938091
4608944255
4608950664
4608956951
4608963298
4608969524
4608975566
4608979228
4608986247
4608992839
4609000102
4609006877
4609011638
4609019328
4609026225
4609033733
4609038860
4609044292
4609049602
4609056621
4609062541
4609068461
4609074321
4609079692
4609084819
4609090251
4609096354
4609100444
4609108073
4609114238
4609119060
4609125529
4609131267
4609135966
4609143290
4609148967
4609154399
4609159648
4609165141
4609170756
4609176493
4609182170
4609188090
4609194010
4609199870
4609205180
4609211039
4609216105
4609221965
4609226725
4609231242
4609237773
4609244303
4609249980
4609253337
4609262065
4609268778
4609274699
4609280009
4609285441
4609291178
4609297526
4609303385
4609309367
4609315165
4609319682
4609325968
4609330668
4609338053
4609341288
4609348002
4609352579
4609360819
4609364115
4609372904
4609377421
4609382853
4609388468
4609393961
4609400187
4609406473
4609412394
4609419108
4609425455
4609430399
4609437235
4609443461
4609449137
4609455362
4609461161
4609466410
4609472391
4609478250
4609483683
4609490213
4609494364
4609501139
4609507181
4609513773
4609519571
4609525125
4609530802
4609536173
4609542032
4609548075
4609553751
4609560220
4609567362
4609576090
4609584146
4609588907
4609596109
4609601297
4609607889
4609613382
4609619119
4609624979
4609631082
4609637552
4609642618
4609650186
4609653543
4609662149
4609667215
4609673074
4609679666
4609683816
4609690591
4609696817
4609702310
4609707742
4609714151
4609718484
4609724527
4609728982
4609736062
4609741617
4609747049
4609754312
4609758462
4609765359
4609769509
4609776834
4609781228
4609788430
4609792886
4609799295
4609805642
4609810525
4609816873
4609822305
4609827493
4609832925
4609838601
4609844338
4609850442
4609855996
4609861428
4609866799
4609872415
4609877908
4609884133
4609890298
4609895669
4609901650
4609907571
4609912148
4609919411
4609922585
4609929726
4609935891
4609941689
4609947793
4609952981
4609961159
4609966286
4609974892
4609980935
4609986428
4609992531
4609998025
4610004494
4610010415
4610015725
4610022316
4610028054
4610034707
4610040078
4610045510
4610051247
4610058266
4610064064
4610069497
4610076455
4610081704
4610087075
4610098732
4610104897
4610111855
4610118080
4610125405
4610130409
4610137245
4610142372
4610149208
4610154640
4610160195
4610166420
4610172402
4610177712
4610183632
4610190407
4610195168
4610201637
4610205055
4610213722
4610218849
4610224159
4610230385
4610236366
4610241798
4610247475
4610253029
4610257667
4610266151
4610271705
4610278358
4610284096
4610289467
4610296364
4610300880
4610307228
4610311928
4610319618
4610324928
4610330238
4610335792
4610342811
4610348365
4610354225
4610360572
4610365516
4610372230
4610376747
4610384193
4610389747
4610395240
4610402748
4610408302
4610414344
4610418739
4610424598
4610430946
4610436073
4610443092
4610448707
4610455055
4610459998
4610466956
4610471900
4610477577
4610485023
4610492591
4610501746
4610507240
4610513404
4610517371
4610525306
4610529945
4610537208
4610543128
4610548194
4610554298
4610559791
4610567054
4610573524
4610579322
4610584083
4610589576
4610596107
4610602088
4610607032
4610610633
4610618140
4610624793
4610631263
4610638282
4610643653
4610651160
4610658240
4610663733
4610670142
4610675635
4610680823
4610686499
4610694556
4610699134
4610705420
4610710486
4610718543
4610724463
4610729712
4610735755
4610741797
4610748572
4610753272
4610759558
4610766150
4610771826
4610778479
4610784155
4610789648
4610795325
4610801794
4610807715
4610813940
4610818762
4610825110
4610829626
4610837195
4610842993
4610848547
4610854101
4610859595
4610866614
4610872473
4610877966
4610882727
4610890173
4610895788
4610901587
4610907446
4610912939
4610920080
4610926245
4610931006
4610936804
4610943396
4610950171
4610956518
4610961645
4610967138
4610973974
4610980078
4610985937
4610990332
4610997412
4611002966
4611008398
4611013830
4611019628
4611025427
4611032873
4611039892
4611045751
4611051306
4611056677
4611061987
4611068823
4611075048
4611081884
4611086462
4611094213
4611099645
4611105016
4611111425
4611116918
4611122900
4611128759
4611133825
4611139806
4611146459
4611150793
4611158849
4611164953
4611172765
4611179479
4611184240
4611192296
4611198644
4611203771
4611210363
4611215734
4611221410
4611228246
4611233617
4611238927
4611244786
4611250035
4611256871
4611262975
4611269078
4611273534
4611280187
4611285863
4611291478
4611298070
4611303685
4611310460
4611315038
4611321935
4611326634
4611333898
4611340489
4611345921
4611351720
4611357945
4611363194
4611368993
4611374486
4611381627
4611387303
4611392979
4611399998
4611404820
4611410191
4611417210
4611421422
4611429112
4611433812
4611440404
4611444920
4611451634
4611458409
4611464207
4611471226
4611476048
4611482152
4611488621
4611494175
4611499913
4611505284
4611511204
4611517186
4611524022
4611528965
4611535008
4611540928
4611546177
4611553502
4611557713
4611564793
4611568211
4611578221
4611583897
4611589268
4611594761
4611600254
4611606602
4611612522
4611618138
4611622959
4611630772
4611637913
4611643528
4611649387
4611654881
4611661778
4611666416
4611673618
4611676914
4611684910
4611690403
4611696934
4611705967
4611712620
4611719700
4611724766
4611732822
4611736545
4611745579
4611751194
4611756992
4611763340
4611768894
4611775852
4611780002
4611786289
4611792637
4611798191
4611804477
4611809726
4611816562
4611822117
4611825351
4611832309
4611837864
4611843357
4611849155
4611855014
4611862766
4611867038
4611873569
4611879489
4611884433
4611890415
4611896396
4611901279
4611907505
4611912143
4611919589
4611923191
4611931186
4611935642
4611941074
4611947177
4611952915
4611958896
4611964694
4611971408
4611975436
4611982089
4611987033
4611994846
4611999728
4612006137
4612011264
4612017368
4612022494
4612028415
4612034213
4612039950
4612046603
4612051242
4612057284
4612061862
4612069308
4612074252
4612080966
4612087314
4612093295
4612099154
4612104953
4612110141
4612116244
4612123752
4612130221
4612135653
4612141452
4612146945
4612151583
4612158175
4612163180
4612171359
4612174594
4612181674
4612187777
4612193331
4612198825
4612204501
4612211398
4612215975
4612222262
4612228549
4612234103
4612238619
4612245822
4612250582
4612259860
4612265719
4612271578
4612277194
4612283785
4612289767
4612295687
4612300631
4612306185
4612311190
4612315646
4612321627
4612326266
4612332918
4612338961
4612345186
4612350802
4612356051
4612360323
4612366122
4612372408
4612378451
4612384676
4612390169
4612394442
4612400118
4612405245
4612409762
4612416842
4612423678
4612428377
4612434420
4612439486
4612444551
4612449800
4612455294
4612461580
4612468050
4612472567
4612478365
4612482881
4612489412
4612495882
4612501070
4612504366
4612511690
4612517855
4612523714
4612529207
4612534517
4612539766
4612543855
4612550997
4612556184
4612562349
4612566805
4612572298
4612576814
4612582430
4612587251
4612594759
4612598116
4612604951
4612610872
4612615755
4612621919
4612627962
4612633943
4612639680
4612644563
4612648714
4612656831
4612662568
4612669160
4612674043
4612680452
4612685884
4612690950
4612696016
4612701326
4612707002
4612712983
4612719270
4612723970
4612729646
4612735261
4612739900
4612745942
4612750764
4612757722
4612763703
4612768586
4612774690
4612779695
4612785737
4612796052
4612801667
4612809114
4612816865
4612822785
4612829011
4612834138
4612839936
4612844453
4612852509
4612857270
4612862885
4612867768
4612874726
4612877839
4612884553
4612891328
4612897797
4612906220
4612912629
4612918366
4612923188
4612930085
4612935212
4612942597
4612950226
4612954621
4612961823
4612966950
4612972504
4612980012
4612985871
4612992280
4612997529
4613003327
4613008332
4613016327
4613022187
4613027741
4613033905
4613040131
4613045258
4613050141
4613056366
4613062409
4613067841
4613075104
4613080353
4613085846
4613090302
4613096955
4613103668
4613108795
4613114289
4613120148
4613126251
4613131989
4613137238
4613142120
4613148834
4613154633
4613159882
4613164398
4613169708
4613178009
4613186432
4613191559
4613197296
4613202728
4613208160
4613214325
4613219269
4613227997
4613231781
4613239715
4613244537
4613250397
4613256012
4613260223
4613267914
4613273224
4613278412
4613284210
4613289032
4613296234
4613304107
4613310272
4613320404
4613327240
4613334320
4613340484
4613345123
4613353668
4613359527
4613365570
4613370697
4613374664
4613381561
4613390777
4613397430
4613403350
4613408111
4613413787
4613420440
4613427154
4613432952
4613438873
4613444244
4613448882
4613454376
4613460174
4613466338
4613471282
4613476836
4613483306
4613489715
4613494170
4613499664
4613506438
4613512481
4613517486
4613522430
4613527984
4613534698
4613540557
4613547271
4613550689
4613558501
4613563750
4613569610
4613575774
4613580169
4613586455
4613589690
4613597991
4613603484
4613608794
4613614409
4613618804
4613625396
4613631072
4613637786
4613645903
4613650420
4613657195
4613662078
4613667144
4613673003
4613678435
4613684966
4613694243
4613699553
4613704680
4613709807
4613718718
4613725249
4613732634
4613737273
4613743437
4613749541
4613756072
4613762846
4613770049
4613775969
4613781401
4613788115
4613795683
4613799651
4613806548
4613812651
4613819426
4613824553
4613832609
4613839262
4613845000
4613851347
4613857084
4613863676
4613869902
4613874663
4613883635
4613892851
4613899504
4613904997
4613911528
4613917265
4613923307
4613928251
4613936003
4613941252
4613946440
4613952543
4613957853
4613962675
4613967680
4613974455
4613980192
4613985502
4613989836
4613997099
4614000212
4614007780
4614011198
4614020170
4614026212
4614031706
4614037260
4614043058
4614048246
4614052641
4614060392
4614063444
4614070768
4614076688
4614082059
4614087736
4614094022
4614099332
4614105070
4614109647
4614114164
4614120573
4614125516
4614131925
4614136686
4614143827
4614149076
4614154142
4614160306
4614166166
4614170987
4614176236
4614181424
4614187162
4614192350
4614198697
4614204129
4614210355
4614215726
4614220304
4614227262
4614233548
4614239774
4614245572
4614250699
4614255704
4614261197
4614268521
4614272428
4614277738
4614283414
4614289029
4614294217
4614300687
4614305875
4614312833
4614317105
4614323453
4614329556
4614335355
4614341336
4614347318
4614352872
4614359708
4614365750
4614372220
4614377652
4614385037
4614391263
4614397305
4614403226
4614407803
4614412930
4614417569
4614422818
4614428250
4614434720
4614443204
4614448819
4614454068
4614457303
4614463650
4614469571
4614475064
4614481228
4614486416
4614491543
4614497403
4614504239
4614509488
4614515469
4614519864
4614525479
4614530178
4614535855
4614541531
4614546841
4614552700
4614558499
4614563931
4614569546
4614575161
4614580838
4614586270
4614591336
4614598294
4614603543
4614609585
4614614346
4614620266
4614625515
4614631985
4614635464
4614642178
4614648281
4614653774
4614659023
4614665005
4614671108
4614675869
4614682400
4614688076
4614694668
4614699734
4614705837
4614710720
4614718532
4614724270
4614730373
4614734096
4614741665
4614746670
4614752102
4614759121
4614764309
4614770229
4614775661
4614782619
4614787563
4614794460
4614800014
4614805141
4614808376
4614815639
4614818691
4614825954
4614830959
4614836391
4614842311
4614848720
4614854396
4614860439
4614865566
4614870449
4614876003
4614881923
4614889430
4614896327
4614902858
4614909206
4614916225
4614921169
4614926662
4614931728
4614936244
4614942348
4614947597
4614954799
4614960841
4614964931
4614971523
4614977138
4614984035
4614988856
4614995082
4615000758
4615006190
4615012050
4615016872
4615021266
4615026820
4615033717
4615038905
4615043849
4615049037
4615054408
4615058742
4615065883
4615072597
4615079554
4615085414
4615091945
4615095668
4615103541
4615109767
4615115565
4615123011
4615128077
4615134608
4615140467
4615145900
4615150233
4615155726
4615160243
4615166774
4615171107
4615177699
4615180995
4615187709
4615193507
4615198695
4615203456
4615208766
4615214869
4615219752
4615227137
4615231837
4615237574
4615241908
4615249293
4615252711
4615259669
4615265345
4615270594
4615275111
4615280909
4615286829
4615292567
4615298670
4615303614
4615310816
4615315821
4615322230
4615326441
4615331507
4615336085
4615343287
4615349329
4615355372
4615361109
4615366297
4615371851
4615376307
4615382471
4615386377
4615391810
4615397547
4615403650
4615409143
4615417017
4615423975
4615430445
4615433924
4615441675
4615448816
4615453333
4615460413
4615466394
4615472071
4615476953
4615483240
4615487635
4615494165
4615497461
4615506128
4615509546
4615517725
4615522058
4615527124
4615534265
4615539026
4615546350
4615551050
4615558069
4615561243
4615567651
4615573145
4615579065
4615586206
4615593225
4615598962
4615606531
4615614892
4615619165
4615628503
4615635217
4615639917
4615645715
4615651269
4615656091
4615661584
4615666772
4615672632
4615678552
4615684411
4615689966
4615695215
4615700464
4615705468
4615710840
4615717553
4615722680
4615727685
4615731164
4615738671
4615741967
4615749475
4615755395
4615761376
4615766320
4615771997
4615778039
4615783227
4615789208
4615794213
4615801171
4615805383
4615811364
4615819665
4615826684
4615832299
4615837182
4615843774
4615847375
4615853600
4615860131
4615865014
4615870812
4615876122
4615883141
4615887780
4615893151
4615900170
4615905297
4615910363
4615916833
4615921776
4615928979
4615932641
4615940941
4615951928
4615959923
4615968651
4615974450
4615980797
4615986840
4615992333
4615998864
4616004662
4616010643
4616014733
4616020897
4616027245
4616033348
4616037926
4616043724
4616048241
4616055321
4616060265
4616067589
4616073143
4616078514
4616081810
4616090477
4616096581
4616101036
4616107445
4616112694
4616118614
4616124901
4616131127
4616135643
4616142113
4616146751
4616167442
4616173180
4616177513
4616185448
4616191429
4616196373
4616203148
4616208031
4616212669
4616219810
4616224937
4616232506
4616238670
4616244163
4616248680
4616254295
4616261375
4616265953
4616272972
4616278892
4616284507
4616289390
4616296714
4616299888
4616306907
4616314842
4616320152
4616325401
4616330589
4616335594
4616340965
4616347251
4616353294
4616360862
4616367332
4616372581
4616379844
4616384422
4616390708
4616395530
4616402915
4616408531
4616413474
4616419151
4616425132
4616431541
4616436912
4616442710
4616449241
4616454185
4616459373
4616464378
4616469871
4616475669
4616482932
4616491721
4616499595
4616506126
4616511130
4616519736
4616525718
4616531272
4616536643
4616542014
4616546958
4616552390
4616557395
4616561973
4616570090
4616576499
4616581992
4616587668
4616593100
4616598716
4616602439
4616609824
4616616050
4616620566
4616624778
4616631491
4616636801
4616644309
4616650168
4616656089
4616662009
4616666281
4616671897
4616676230
4616682517
4616687644
4616695639
4616700827
4616705832
4616711325
4616716330
4616721640
4616727377
4616733664
4616738303
4616745139
4616750876
4616756064
4616759055
4616765891
4616773093
4616778464
4616784201
4616789816
4616794882
4616800925
4616806235
4616811911
4616817343
4616822592
4616829184
4616834677
4616839987
4616844748
4616849753
4616856405
4616862997
4616868368
4616874350
4616881491
4616887289
4616892721
4616900717
4616906271
4616912130
4616918417
4616923849
4616929342
4616934957
4616942160
4616946493
4616953756
4616958578
4616965536
4616971334
4616977072
4616983053
4616988668
4616995626
4617000204
4617007406
4617012960
4617020345
4617027487
4617033529
4617039205
4617045248
4617050863
4617057088
4617062887
4617067525
4617074667
4617077779
4617086080
4617092428
4617098104
4617104879
4617109212
4617115560
4617122213
4617126607
4617131307
4617138936
4617144002
4617150289
4617156820
4617162801
4617168233
4617173726
4617178853
4617184224
4617190328
4617196309
4617201070
4617207113
4617212850
4617219197
4617224508
4617230672
4617236165
4617240926
4617247823
4617253011
4617259603
4617264302
4617270589
4617276448
4617281941
4617290242
4617296041
4617301900
4617307149
4617313741
4617320699
4617325581
4617330159
4617337483
4617343465
4617348775
4617354024
4617359456
4617365437
4617370869
4617378560
4617382771
4617389058
4617395161
4617400960
4617405965
4617413167
4617417805
4617426228
4617433430
4617438984
4617444783
4617450459
4617456257
4617460652
4617468220
4617472676
4617479573
4617485432
4617490620
4617495442
4617502278
4617506916
4617514302
4617518879
4617525532
4617530964
4617536946
4617543660
4617549031
4617555317
4617561482
4617569599
4617576557
4617581806
4617588886
4617594868
4617599629
4617606526
4617609882
4617616840
4617621540
4617629597
4617632771
4617641316
4617646809
4617652668
4617658649
4617663898
4617669270
4617674946
4617680866
4617686787
4617694050
4617698810
4617705097
4617709797
4617716266
4617719501
4617726581
4617731220
4617738666
4617744465
4617750019
4617754474
4617760212
4617766376
4617772236
4617778705
4617784870
4617790485
4617796466
4617801654
4617806476
4617814106
4617818988
4617825336
4617828754
4617836933
4617840351
4617847858
4617853595
4617859088
4617866291
4617872760
4617878803
4617884784
4617889240
4617895282
4617900836
4617906696
4617913410
4617919269
4617925128
4617928546
4617935626
4617941180
4617946918
4617953021
4617958575
4617964374
4617969806
4617977069
4617981708
4617989520
4617994037
4618003497
4618008380
4618015155
4618021258
4618026996
4618033038
4618038531
4618043841
4618049823
4618055743
4618061969
4618066974
4618072589
4618078448
4618083148
4618090777
4618096698
4618102252
4618108966
4618115191
4618123858
4618131427
4618139483
4618148333
4618154559
4618160662
4618166217
4618172381
4618176531
4618183795
4618188433
4618194781
4618199786
4618207232
4618211871
4618218035
4618225604
4618231158
4618234515
4618241351
4618247454
4618252825
4618258074
4618263628
4618269915
4618276324
4618282366
4618286700
4618293169
4618299029
4618303850
4618309893
4618315874
4618320574
4618326189
4618330828
4618337908
4618343523
4618349260
4618355730
4618361040
4618366594
4618372027
4618377642
4618383196
4618388811
4618395037
4618402056
4618406816
4618413408
4618418230
4618425188
4618430193
4618436541
4618441484
4618448259
4618451677
4618460039
4618465044
4618470537
4618475786
4618481706
4618489458
4618493608
4618500444
4618506426
4618512407
4618517168
4618524431
4618532060
4618537859
4618544572
4618550432
4618556169
4618562090
4618568559
4618574480
4618580217
4618585954
4618591325
4618597185
4618602861
4618608903
4618614824
4618622209
4618628007
4618634660
4618638139
4618645769
4618651445
4618658098
4618664262
4618669023
4618677507
4618682512
4618689103
4618695756
4618703080
4618709428
4618714860
4618720231
4618725663
4618732621
4618736955
4618743486
4618749345
4618756120
4618761552
4618767167
4618773454
4618779008
4618784989
4618790482
4618798051
4618803849
4618809403
4618814225
4618820573
4618827226
4618832902
4618839310
4618844682
4618850602
4618856705
4618862870
4618867448
4618873002
4618877640
4618886430
4618891312
4618898087
4618904069
4618908524
4618915665
4618921769
4618928910
4618934464
4618939652
4618946061
4618949967
4618957169
4618961686
4618969254
4618974808
4618980179
4618986039
4618991715
4618998307
4619001664
4619009720
4619015396
4619020951
4619027970
4619032303
4619038956
4619044205
4619049820
4619056107
4619062393
4619069840
4619073380
4619081375
4619086136
4619093094
4619100052
4619105850
4619111954
4619117813
4619123245
4619128006
4619135819
4619139175
4619147537
4619153397
4619158829
4619164871
4619170853
4619175796
4619181900
4619189224
4619194595
4619201431
4619208816
4619215469
4619223709
4619230667
4619237381
4619242203
4619248306
4619253067
4619261551
4619267837
4619274673
4619280594
4619286148
4619292495
4619298660
4619303970
4619310501
4619317459
4619323318
4619330642
4619334060
4619342849
4619349197
4619354751
4619360244
4619365737
4619371597
4619375686
4619381668
4619387100
4619393386
4619399429
4619405227
4619409988
4619416885
4619421462
4619428298
4619434585
4619440444
4619445815
4619451186
4619457107
4619462539
4619467788
4619473586
4619479385
4619485244
4619491103
4619497390
4619502944
4619508132
4619515395
4619520156
4619526748
4619531997
4619537490
4619543654
4619549148
4619555007
4619560805
4619565810
4619571364
4619578322
4619582839
4619588332
4619594252
4619599685
4619604323
4619611342
4619616286
4619624160
4619633437
4619638198
4619644301
4619648940
4619655409
4619659865
4619666579
4619669936
4619677809
4619684523
4619690444
4619695693
4619701064
4619708205
4619712416
4619718764
4619724989
4619731215
4619736098
4619742018
4619746657
4619755629
4619762770
4619769301
4619775343
4619781630
4619789503
4619794386
4619800490
4619805128
4619812269
4619817763
4619823500
4619830214
4619836073
4619841383
4619846815
4619853468
4619857741
4619864515
4619868666
4619874464
4619880507
4619886122
4619891920
4619897841
4619902601
4619909681
4619915297
4619920484
4619925123
4619932264
4619938246
4619943739
4619947035
4619954054
4619959913
4619965223
4619971327
4619976759
4619983228
4619987745
4619994276
4620000684
4620005750
4620011671
4620018690
4620022169
4620030347
4620035902
4620041273
4620047071
4620053053
4620059583
4620064954
4620070447
4620075941
4620081495
4620086866
4620092176
4620098157
4620104444
4620110609
4620116224
4620120984
4620127088
4620131605
4620138196
4620143140
4620150281
4620156812
4620162305
4620166944
4620173291
4620179639
4620185804
4620191724
4620197644
4620203382
4620209302
4620216382
4620220410
4620227430
4620232190
4620238660
4620243726
4620251721
4620255750
4620263745
4620269971
4620275281
4620281384
4620286756
4620292249
4620297742
4620304273
4620309216
4620317517
4620322522
4620330701
4620338574
4620344556
4620350354
4620356213
4620361829
4620366467
4620372266
4620376904
4620384289
4620389905
4620395947
4620401806
4620407117
4620413220
4620418652
4620424634
4620430127
4620434887
4620440381
4620446179
4620452099
4620460156
4620464795
4620470166
4620476513
4620484753
4620491223
4620496716
4620503064
4620507580
4620513806
4620519177
4620525341
4620531201
4620536511
4620542431
4620548229
4620552929
4620559643
4620564648
4620571118
4620576122
4620583264
4620589550
4620594982
4620600475
4620605969
4620610851
4620616406
4620622021
4620627636
4620633434
4620639477
4620644238
4620650158
4620656628
4620661632
4620667614
4620673901
4620680675
4620686535
4620692394
4620695690
4620704113
4620709484
4620716076
4620722606
4620729259
4620736522
4620741344
4620747814
4620752819
4620759288
4620764293
4620771373
4620776928
4620782482
4620788463
4620793956
4620798839
4620804576
4620811107
4620817028
4620822704
4620828075
4620833568
4620839366
4620846019
4620852428
4620858470
4620863902
4620873180
4620876903
4620886180
4620892284
4620898265
4620904857
4620910655
4620915843
4620921458
4620926952
4620932567
4620939159
4620945628
4620951793
4620956371
4620962352
4620966991
4620973888
4620979137
4620984752
4620990611
4620996409
4621003001
4621008555
4621013072
4621018443
4621025035
4621030833
4621036937
4621041148
4621047191
4621053233
4621059276
4621064341
4621071055
4621076121
4621083506
4621086924
4621093638
4621098887
4621105174
4621111155
4621116832
4621121592
4621127207
4621132884
4621138560
4621144419
4621150157
4621155955
4621162119
4621167857
4621173655
4621179759
4621184397
4621190012
4621195933
4621201304
4621205943
4621212779
4621217478
4621224192
4621230540
4621236216
4621242014
4621247935
4621253550
4621259104
4621264475
4621270274
4621277109
4621281992
4621289866
4621296641
4621301340
4621307566
4621313669
4621318369
4621325449
4621330576
4621337839
4621343943
4621349497
4621355845
4621361338
4621365915
4621371714
4621377756
4621383738
4621389597
4621395395
4621401072
4621406931
4621412546
4621417307
4621424143
4621429819
4621439646
4621444956
4621451242
4621458933
4621463144
4621470102
4621475107
4621482553
4621485788
4621492380
4621496958
4621504038
4621510263
4621515756
4621522409
4621528146
4621534006
4621539926
4621544931
4621550973
4621556100
4621562143
4621568307
4621573251
4621579721
4621584726
4621591745
4621596261
4621602792
4621609872
4621615243
4621621225
4621625436
4621631540
4621636972
4621643808
4621648385
4621655710
4621660348
4621666696
4621671334
4621677499
4621682138
4621688729
4621693551
4621700998
4621706491
4621712106
4621717904
4621723764
4621729623
4621735604
4621741525
4621745675
4621752572
4621756783
4621763253
4621769357
4621775277
4621780282
4621786813
4621791573
4621798226
4621803780
4621809701
4621814828
4621821114
4621827340
4621833871
4621839852
4621846200
4621852486
4621858346
4621864022
4621868783
4621875741
4621880746
4621887276
4621891915
4621898629
4621904183
4621911141
4621917367
4621922738
4621928292
4621933724
4621939522
4621943856
4621951058
4621955574
4621963387
4621968758
4621975106
4621981392
4621987740
4621992989
4622000313
4622004036
4622012825
4622018807
4622024361
4622030281
4622035591
4622041451
4622046944
4622052681
4622058663
4622064400
4622068733
4622076058
4622082466
4622087532
4622093636
4622100960
4622106819
4622112679
4622118477
4622124031
4622130074
4622135506
4622141548
4622147469
4622152412
4622158699
4622164375
4622170723
4622176826
4622181648
4622187324
4622192146
4622199898
4622203438
4622211860
4622215156
4622222175
4622227852
4622233406
4622239265
4622244636
4622250251
4622255928
4622262031
4622268501
4622275825
4622280403
4622285835
4622290474
4622297676
4622300972
4622308296
4622312812
4622320137
4622326362
4622332344
4622335762
4622343269
4622349311
4622354743
4622360603
4622366157
4622372260
4622376533
4622383125
4622390022
4622395454
4622402290
4622408027
4622414253
4622420051
4622425117
4622431953
4622437141
4622443793
4622450629
4622456123
4622463447
4622467597
4622474433
4622479987
4622485786
4622490485
4622498298
4622501777
4622509345
4622512702
4622520331
4622527961
4622534308
4622540717
4622547248
4622553717
4622558661
4622565436
4622571662
4622578131
4622582953
4622589118
4622593940
4622600287
4622605414
4622612433
4622618170
4622623664
4622629767
4622635565
4622641730
4622647528
4622653754
4622659674
4622665045
4622669196
4622676764
4622681342
4622687933
4622692511
4622698981
4622704230
4622710455
4622716254
4622722052
4622725409
4622734381
4622739569
4622745001
4622750861
4622756354
4622762152
4622768256
4622773443
4622779364
4622784552
4622790411
4622796026
4622801153
4622809637
4622815436
4622822638
4622827643
4622833014
4622838629
4622844061
4622849798
4622855719
4622860540
4622866827
4622871832
4622877813
4622883612
4622888372
4622895391
4622900335
4622907904
4622913153
4622919927
4622925360
4622930914
4622937445
4622944525
4622953069
4622960211
4622965399
4622971380
4622976873
4622984258
4622989813
4622993169
4622999761
4623005926
4623011358
4623017522
4623023016
4623028753
4623034734
4623041021
4623045171
4623052190
4623056280
4623063238
4623068059
4623074712
4623079900
4623087163
4623092718
4623101018
4623107671
4623113836
4623119939
4623125493
4623131292
4623136968
4623143438
4623149724
4623155034
4623160894
4623166814
4623172002
4623177617
4623183660
4623189153
4623194890
4623200750
4623206121
4623211553
4623217107
4623222722
4623229619
4623235478
4623242131
4623247075
4623254399
4623260808
4623266301
4623270696
4623276311
4623283269
4623289800
4623296086
4623302068
4623307805
4623312627
4623320012
4623325932
4623331364
4623337346
4623343022
4623349065
4623354314
4623360417
4623366337
4623371342
4623375798
4623382451
4623387150
4623393864
4623399357
4623404423
4623410100
4623415593
4623421452
4623427311
4623433598
4623438542
4623443730
4623448185
4623455815
4623459477
4623467045
4623475651
4623479496
4623485600
4623492314
4623500248
4623504399
4623513737
4623518193
4623523625
4623529728
4623535343
4623540287
4623546879
4623552738
4623557438
4623565190
4623570316
4623575260
4623580937
4623586125
4623594120
4623599979
4623606327
4623612003
4623621037
4623628544
4623636356
4623643558
4623651981
4623659122
4623665165
4623671268
4623677067
4623682194
4623689884
4623693546
4623701542
4623708622
4623714542
4623719974
4623724491
4623734134
4623739078
4623745487
4623752079
4623757633
4623763797
4623768375
4623776065
4623781131
4623786991
4623791935
4623798893
4623803653
4623810794
4623818119
4623822513
4623828556
4623834903
4623841495
4623846256
4623854007
4623859744
4623865360
4623871036
4623876773
4623882327
4623888309
4623894473
4623901065
4623907108
4623912357
4623918033
4623925052
4623929996
4623935855
4623941775
4623949344
4623952701
4623961001
4623966678
4623971316
4623977786
4623982608
4623989444
4623995242
4624000796
4624006778
4624012210
4624019717
4624026980
4624033267
4624039920
4624046450
4624052005
4624057559
4624064822
4624070315
4624075991
4624083316
4624088015
4624095767
4624101931
4624108157
4624114016
4624120059
4624126528
4624131594
4624137637
4624142581
4624149050
4624153628
4624160708
4624170474
4624180544
4624187136
4624193057
4624199831
4624205752
4624211428
4624217471
4624222964
4624227541
4624234011
4624241457
4624246950
4624252810
4624258608
4624264773
4624270510
4624277163
4624281252
4624288149
4624294008
4624299318
4624304140
4624311220
4624316042
4624322756
4624329897
4624335329
4624341127
4624346560
4624351809
4624357485
4624363771
4624369814
4624375368
4624381288
4624386049
4624391970
4624398745
4624404116
4624409609
4624413027
4624420107
4624423220
4624430483
4624433718
4624441225
4624446779
4624452699
4624459657
4624465578
4624470644
4624475160
4624481386
4624487001
4624491762
4624496645
4624503725
4624510378
4624516054
4624521852
4624528261
4624534425
4624539857
4624544740
4624550294
4624555238
4624559816
4624567262
4624570680
4624579408
4624585878
4624592286
4624598268
4624604188
4624609010
4624613466
4624618837
4624626100
4624631776
4624636842
4624642030
4624647218
4624652650
4624657960
4624664186
4624670961
4624676820
4624682923
4624688172
4624693910
4624699342
4624709291
4624716065
4624726808
4624733888
4624739991
4624746339
4624751039
4624757752
4624762757
4624769898
4624773133
4624781678
4624788209
4624793824
4624801392
4624807069
4624812379
4624816834
4624823304
4624828553
4624835450
4624839234
4624846497
4624849549
4624856385
4624862488
4624868043
4624873047
4624877015
4624882386
4624887818
4624894532
4624899354
4624906006
4624910889
4624916993
4624923157
4624928101
4624932496
4624939576
4624947510
4624956421
4624963990
4624972168
4624981568
4624990052
4624998719
4625005982
4625013367
4625024231
4625035706
4625043701
4625050842
4625058899
4625067017
4625074890
4625083923
4625092468
4625102173
4625110107
4625118042
4625127136
4625136902
4625146728
4625156311
4625165893
4625174560
4625182495
4625191345
4625200683
4625209350
4625219177
4625227661
4625236511
4625244262
4625252441
4625262146
4625271118
4625279296
4625287658
4625295715
4625306945
4625313903
4625325134
4625333434
4625341369
4625351257
4625357177
4625366943
4625375976
4625383483
4625393554
4625400512
4625412658
4625421081
4625429870
4625438476
4625448852
4625456908
4625465697
4625473754
4625484435
4625491271
4625502990
4625510375
4625518248
4625527953
4625534484
4625546447
4625553405
4625562072
4625571715
4625579894
4625589843
4625597838
4625606444
4625615050
4625621886
4625634337
4625641905
4625650328
4625660033
4625668028
4625677550
4625686095
4625695067
4625704894
4625712889
4625723021
4625730955
4625739561
4625748778
4625759093
4625766783
4625774473
4625781553
4625791197
4625797117
4625807371
4625816099
4625823240
4625836729
4625849913
4625859922
4625868162
4625877195
4625885923
4625893858
4625903257
4625911680
4625921568
4625931028
4625938719
4625946836
4625954649
4625963804
4625971861
4625980283
4625988950
4625997617
4626006162
4626014585
4626023557
4626031553
4626040403
4626048398
4626057859
4626066038
4626074827
4626083311
4626091428
4626105527
4626114560
4626123288
4626130185
4626140317
4626146787
4626155515
4626162900
4626169614
4626178647
4626184201
4626190854
4626198361
4626205747
4626213376
4626220883
4626231442
4626239743
4626245786
4626252805
4626259885
4626267514
4626274838
4626282895
4626289121
4626295468
4626305417
4626309506
4626317746
4626327878
4626336545
4626347592
4626356930
4626363156
4626369992
4626373349
4626377804
4626382809
4626387814
4626391537
4626397152
4626402035
4626406247
4626409848
4626414486
4626419552
4626423153
4626427670
4626432248
4626436520
4626439938
4626444455
4626448849
4626455075
4626458737
4626463009
4626467282
4626471371
4626475216
4626480099
4626485958
4626489926
4626494198
4626501400
4626505856
4626509274
4626513668
4626521420
4626527462
4626533383
4626537838
4626542233
4626546993
4626552426
4626557613
4626563534
4626568905
4626573788
4626578243
4626582089
4626587154
4626591915
4626596005
4626600765
4626605465
4626609920
4626615902
4626622127
4626626400
4626631344
4626638424
4626643612
4626648800
4626654293
4626659176
4626663448
4626669002
4626674129
4626677975
4626682857
4626687862
4626692928
4626695614
4626701717
4626706356
4626712093
4626718013
4626722652
4626727779
4626732174
4626735958
4626741207
4626744747
4626749569
4626755001
4626759212
4626764034
4626768306
4626772701
4626777278
4626780757
4626784908
4626791317
4626796932
4626801753
4626806148
4626811214
4626816097
4626822505
4626826412
4626831355
4626836421
4626842281
4626845271
4626851863
4626858028
4626861995
4626868343
4626873958
4626879024
4626885249
4626889705
4626895137
4626902095
4626907588
4626912532
4626917903
4626924068
4626929866
4626937312
4626944087
4626949946
4626956416
4626961177
4626967525
4626974422
4626982173
4626987239
4626993037
4626998774
4627005000
4627011165
4627016536
4627021785
4627028437
4627032222
4627039241
4627043147
4627051814
4627055415
4627063288
4627069087
4627074702
4627079158
4627083491
4627090876
4627095637
4627102595
4627107783
4627114497
4627122187
4627128413
4627135432
4627140803
4627146662
4627151484
4627157649
4627164240
4627168513
4627174555
4627179194
4627185908
4627190607
4627196467
4627200983
4627207453
4627213740
4627220698
4627225581
4627233027
4627237726
4627243464
4627249628
4627255121
4627260859
4627265803
4627271662
4627277155
4627282831
4627288569
4627294367
4627299860
4627304072
4627310114
4627315485
4627319208
4627325617
4627332087
4627336786
4627343500
4627349726
4627353510
4627360956
4627366266
4627371942
4627377069
4627383783
4627389460
4627396540
4627401728
4627407526
4627412226
4627419550
4627424249
4627431024
4627435907
4627442926
4627447687
4627454462
4627459406
4627466852
4627471857
4627477960
4627483514
4627489984
4627496881
4627502191
4627508173
4627513544
4627520929
4627526117
4627531549
4627536554
4627543146
4627547967
4627555414
4627562982
4627570306
4627574945
4627582025
4627588678
4627595758
4627602228
4627606988
4627613336
4627619684
4627624566
4627630609
4627636163
4627642694
4627648797
4627654107
4627660333
4627667047
4627672845
4627677667
4627684014
4627691461
4627697930
4627702874
4627710626
4627716058
4627722833
4627729974
4627736871
4627744622
4627750115
4627756524
4627761529
4627767510
4627773492
4627779290
4627784905
4627789483
4627796258
4627800652
4627806573
4627812310
4627818108
4627822747
4627828179
4627834527
4627838250
4627845330
4627851189
4627855828
4627861260
4627867425
4627872613
4627879265
4627885125
4627890984
4627895928
4627902642
4627909478
4627914605
4627919243
4627925957
4627931084
4627938775
4627945305
4627951287
4627956047
4627962334
4627968438
4627974602
4627979546
4627986260
4627993096
4627996697
4628004753
4628008415
4628016167
4628021538
4628027275
4628033318
4628040947
4628046196
4628052544
4628057488
4628064507
4628069267
4628075981
4628080986
4628089592
4628094597
4628101555
4628106316
4628112968
4628117790
4628124016
4628130363
4628137321
4628144401
4628152580
4628161430
4628166740
4628174919
4628180534
4628188102
4628194511
4628199882
4628206230
4628210746
4628213981
4628222282
4628225822
4628234550
4628239433
4628245353
4628251152
4628255485
4628261283
4628266960
4628272819
4628277641
4628284538
4628290336
4628296134
4628301994
4628307060
4628312675
4628319145
4628324272
4628331962
4628336540
4628343986
4628351005
4628355094
4628362724
4628366142
4628373222
4628379813
4628387321
4628390678
4628398002
4628401603
4628408195
4628413016
4628419669
4628424003
4628431571
4628434989
4628442557
4628447684
4628453605
4628458426
4628463859
4628469047
4628475028
4628481193
4628485892
4628492301
4628497428
4628501761
4628508414
4628516654
4628522696
4628527823
4628534537
4628539298
4628544852
4628551139
4628557120
4628563712
4628569266
4628575370
4628579032
4628585990
4628591178
4628597830
4628603018
4628610465
4628616873
4628622489
4628628836
4628635672
4628641959
4628649161
4628654959
4628660391
4628667716
4628673331
4628680167
4628684927
4628691946
4628697073
4628701712
4628708121
4628715201
4628722403
4628727530
4628734915
4628742422
4628748099
4628755850
4628762015
4628767935
4628774466
4628780264
4628787039
4628792410
4628800894
4628805716
4628812552
4628817679
4628826162
4628831533
4628838247
4628843069
4628850393
4628855459
4628862417
4628868826
4628875723
4628882559
4628888296
4628894949
4628898733
4628906607
4628910330
4628917227
4628926321
4628931326
4628936819
4628943228
4628949453
4628954397
4628959524
4628967153
4628974294
4628982168
4628986013
4628992910
4628997671
4629004140
4629009328
4629014516
4629020254
4629028249
4629031789
4629039663
4629044912
4629050588
4629055959
4629062978
4629068288
4629074087
4629079763
4629085988
4629091970
4629097890
4629104787
4629109914
4629117116
4629123281
4629128835
4629134450
4629139089
4629145620
4629152333
4629157094
4629163869
4629170461
4629175649
4629181813
4629188649
4629194020
4629199208
4629205007
4629210500
4629217519
4629223927
4629230153
4629234670
4629240773
4629247243
4629254506
4629259328
4629266347
4629272633
4629277516
4629283742
4629288686
4629295216
4629301747
4629308827
4629315602
4629320668
4629327870
4629333119
4629339039
4629345509
4629350087
4629356557
4629361378
4629368336
4629374074
4629380238
4629386097
4629391224
4629396962
4629403676
4629409352
4629420277
4629426869
4629431324
4629436940
4629441944
4629447743
4629453480
4629458668
4629465382
4629470387
4629475819
4629480397
4629486805
4629493641
4629499195
4629503529
4629511341
4629516041
4629522877
4629528065
4629534596
4629541309
4629543568
4629556934
4629569263
4629577869
4629586536
4629594471
4629601124
4629607166
4629612720
4629618030
4629624073
4629628590
4629634510
4629639759
4629646839
4629653187
4629658497
4629664844
4629670460
4629676197
4629681507
4629686390
4629692188
4629698047
4629703540
4629708240
4629715320
4629720020
4629726123
4629731006
4629735889
4629742542
4629746082
4629754077
4629758716
4629765552
4629770862
4629776538
4629782520
4629787342
4629793567
4629797901
4629804675
4629809986
4629816089
4629822009
4629826770
4629833850
4629838672
4629845081
4629849902
4629855945
4629860523
4629866138
4629872119
4629877246
4629882556
4629887805
4629895557
4629900806
4629905627
4629911609
4629918506
4629922351
4629929919
4629935901
4629941333
4629948474
4629954150
4629961291
4629967273
4629973865
4629979968
4629985827
4629992053
4629999133
4630005237
4630012683
4630017993
4630027270
4630032275
4630039782
4630044482
4630053515
4630058337
4630065478
4630072192
4630077685
4630084887
4630090563
4630096301
4630104113
4630110461
4630115832
4630122485
4630127917
4630135058
4630141100
4630148852
4630154162
4630161974
4630168383
4630176135
4630183031
4630190356
4630198534
4630205981
4630212267
4630217516
4630224108
4630229723
4630234545
4630242724
4630248461
4630252855
4630258959
4630265673
4630270983
4630276659
4630283068
4630290819
4630297045
4630298693
4630308092
4630311083
4630320055
4630325121
4630330431
4630336351
4630340563
4630346056
4630350939
4630356249
4630361010
4630365099
4630369799
4630376329
4630382250
4630387987
4630393053
4630398302
4630402941
4630407579
4630412828
4630419176
4630423387
4630431749
4630438402
4630444078
4630450853
4630455858
4630462877
4630468187
4630474901
4630479601
4630485704
4630490465
4630496568
4630501512
4630508104
4630514390
4630520189
4630525194
4630532945
4630537889
4630543138
4630550401
4630557359
4630563524
4630567369
4630578050
4630584153
4630592454
4630597947
4630604173
4630612535
4630620530
4630626756
4630631944
4630638108
4630644578
4630649217
4630656175
4630661851
4630668748
4630672959
4630681260
4630685227
4630692185
4630698167
4630704514
4630710557
4630716172
4630720933
4630727891
4630733384
4630739915
4630745469
4630752122
4630758408
4630767014
4630772630
4630778733
4630784348
4630789658
4630795884
4630801011
4630806077
4630812119
4630819077
4630823411
4630827622
4630832688
4630839951
4630846116
4630850754
4630857285
4630862046
4630868455
4630873398
4630876999
4630884812
4630888840
4630895798
4630901047
4630906235
4630912217
4630917527
4630922043
4630928879
4630933762
4630939316
4630943955
4630950058
4630957810
4630963059
4630967453
4630973557
4630978684
4630983383
4630989304
4630993942
4631000473
4631005539
4631011460
4631016953
4631021530
4631025986
4631031723
4631036484
4631045273
4631050949
4631056686
4631061264
4631065659
4631072067
4631076218
4631082748
4631089462
4631098190
4631102341
4631111496
4631117782
4631122909
4631128708
4631134323
4631138412
4631146103
4631151657
4631158920
4631164657
4631169601
4631174606
4631181930
4631188217
4631195663
4631201767
4631206649
4631216110
4631222213
4631233749
4631241317
4631248031
4631256515
4631265670
4631272994
4631278854
4631288497
4631296859
4631302596
4631309310
4631314864
4631325851
4631330795
4631340377
4631350082
4631353317
4631364242
4631369430
4631377731
4631384994
4631394088
4631401412
4631409286
4631418014
4631425460
4631428695
4631441146
4631446883
4631459517
4631469527
4631475997
4631484542
4631492415
4631502608
4631508529
4631517440
4631524215
4631526961
4631535567
4631540450
4631549605
4631557601
4631567366
4631573897
4631580916
4631588179
4631593550
4631603255
4631607649
4631614790
4631622420
4631629195
4631639510
4631644087
4631653670
4631661543
4631664961
4631673933
4631682173
4631687605
4631697798
4631705672
4631712752
4631717634
4631725508
4631732527
4631738386
4631745222
4631749922
4631758467
4631766829
4631774580
4631779097
4631788191
4631795576
4631800459
4631808516
4631812666
4631820234
4631827131
4631832869
4631842878
4631847700
4631856611
4631863935
4631869429
4631876448
4631881452
4631890730
4631896467
4631904951
4631912519
4631920271
4631926618
4631931684
4631940351
4631944624
4631955854
4631964033
4631972395
4631979719
4631986005
4631994794
4631999555
4632007246
4632014204
4632022077
4632030317
4632036786
4632047712
4632052656
4632058088
4632067853
4632076032
4632083173
4632090558
4632093549
4632104902
4632114789
4632121991
4632129499
4632138654
4632144940
4632151532
4632157453
4632164533
4632170026
4632177106
4632185529
4632192548
4632199872
4632205731
4632210797
4632219647
4632226788
4632229840
4632238324
4632248395
4632254681
4632259625
4632267377
4632273724
4632279523
4632285809
4632291119
4632300153
4632308942
4632317792
4632325177
4632331097
4632340680
4632344159
4632356122
4632361737
4632370526
4632376324
4632384503
4632390912
4632399090
4632405255
4632410016
4632420330
4632428509
4632435284
4632442425
4632451214
4632458721
4632464398
4632473187
4632480328
4632489605
4632496319
4632502422
4632511273
4632516216
4632526836
4632534405
4632540081
4632550213
4632558941
4632564373
4632573650
4632576702
4632587261
4632595501
4632604351
4632611736
4632615887
4632626629
4632634502
4632642681
4632649883
4632652996
4632665264
4632674785
4632684673
4632689556
4632697979
4632705425
4632712993
4632720501
4632727947
4632736187
4632743511
4632751384
4632760906
4632769634
4632777263
4632784099
4632791484
4632797893
4632804851
4632808879
4632823100
4632831828
4632839519
4632847636
4632854411
4632861919
4632868938
4632878032
4632884196
4632892680
4632900066
4632908488
4632916362
4632921672
4632930522
4632937602
4632944621
4632952678
4632958415
4632966777
4632975261
4632983806
4632991740
4632997477
4633007609
4633012858
4633021891
4633033305
4633036235
4633047953
4633053630
4633062724
4633071818
4633084208
4633090434
4633093119
4633105326
4633112345
4633118815
4633126994
4633136515
4633143778
4633150492
4633157206
4633164286
4633173197
4633178385
4633187785
4633197672
4633204569
4633211832
4633220499
4633228251
4633234354
4633246561
4633251261
4633262186
4633270243
4633279459
4633287333
4633293131
4633302408
4633307291
4633314859
4633326517
4633334207
4633343363
4633349588
4633354898
4633361978
4633366983
4633372660
4633379068
4633384073
4633392008
4633400553
4633406656
4633412515
4633417398
4633424295
4633428995
4633434061
4633441690
4633446573
4633451334
4633457376
4633462259
4633469583
4633474405
4633479410
4633488626
4633494180
4633499002
4633505350
4633510293
4633516031
4633521158
4633527322
4633533121
4633539834
4633546609
4633552408
4633557779
4633564065
4633568948
4633574930
4633581704
4633588662
4633593850
4633600686
4633606485
4633613076
4633618203
4633624673
4633629495
4633637673
4633642800
4633646524
4633654641
4633658303
4633666421
4633671731
4633678384
4633685159
4633692422
4633698220
4633703958
4633710061
4633717324
4633724221
4633729836
4633737100
4633745828
4633754311
4633760415
4633767678
4633773782
4633778970
4633785561
4633792641
4633800271
4633806618
4633813393
4633820351
4633827065
4633832131
4633840432
4633846291
4633854226
4633859047
4633864968
4633871865
4633877602
4633882241
4633885781
4633896584
4633900856
4633910561
4633914589
4633924050
4633930092
4633937294
4633942910
4633949806
4633959023
4633967568
4633974526
4633980812
4633983010
4633993996
4633999977
4634004616
4634008583
4634014931
4634020546
4634026283
4634031654
4634037514
4634041908
4634048012
4634054298
4634058937
4634065163
4634069252
4634073646
4634080177
4634084816
4634090126
4634095985
4634101784
4634106300
4634111915
4634117103
4634120582
4634126808
4634130287
4634136635
4634143532
4634149635
4634155861
4634160560
4634165199
4634170753
4634175880
4634181190
4634187172
4634194496
4634199501
4634206215
4634211647
4634216041
4634221901
4634225563
4634233131
4634240272
4634245338
4634250526
4634254859
4634259986
4634267311
4634271888
4634277992
4634284461
4634291358
4634296607
4634302162
4634307350
4634310890
4634318519
4634323707
4634329932
4634336280
4634342750
4634348304
4634354469
4634360145
4634365089
4634372169
4634378150
4634383521
4634389075
4634395301
4634397559
4634406226
4634410010
4634415748
4634421546
4634426429
4634431067
4634437781
4634442908
4634449988
4634454627
4634459449
4634465918
4634470923
4634476294
4634483130
4634488379
4634493445
4634499183
4634506141
4634513404
4634519141
4634523963
4634531958
4634538245
4634543311
4634548804
4634553260
4634560156
4634564368
4634569007
4634573950
4634579993
4634584570
4634587866
4634594885
4634598242
4634606299
4634609656
4634616187
4634621802
4634629187
4634632971
4634639258
4634643774
4634648840
4634653174
4634659399
4634665564
4634670325
4634675085
4634681128
4634687109
4634691565
4634696265
4634701636
4634708044
4634714392
4634719275
4634722632
4634730444
4634734106
4634741614
4634746863
4634752783
4634759619
4634768652
4634775732
4634780859
4634786047
4634792944
4634797522
4634803442
4634809118
4634816931
4634822363
4634828527
4634833288
4634837011
4634845800
4634849645
4634856542
4634862829
4634870825
4634876074
4634880834
4634888098
4634892553
4634898107
4634904211
4634911413
4634918371
4634923559
4634927343
4634935583
4634939367
4634947118
4634952673
4634959936
4634967443
4634975866
4634982336
4634990392
4634995092
4635000829
4635008092
4635014135
4635019079
4635025304
4635031408
4635038183
4635043920
4635050206
4635056615
4635062475
4635069433
4635075597
4635078099
4635090551
4635096776
4635104345
4635111974
4635120336
4635128270
4635131749
4635143834
4635149938
4635160558
4635166783
4635175145
4635182347
4635188390
4635200902
4635206883
4635214330
4635224950
4635233373
4635239537
4635242406
4635252293
4635256993
4635266881
4635270970
4635279820
4635286717
4635294041
4635299107
4635304356
4635312840
4635319798
4635326207
4635332738
4635335484
4635345311
4635350865
4635360936
4635369053
4635375706
4635383274
4635386509
4635395237
4635403233
4635410496
4635418003
4635421299
4635432652
4635441746
4635449253
4635455784
4635465367
4635470310
4635475865
4635486546
4635494541
4635501255
4635511265
4635514439
4635525486
4635531834
4635540501
4635547642
4635550693
4635562290
4635570347
4635580479
4635589390
4635595920
4635603184
4635608982
4635619236
4635623935
4635633335
4635641208
4635646641
4635657444
4635668674
4635676120
4635683811
4635695407
4635702915
4635709140
4635719028
4635729587
4635738315
4635745517
4635748630
4635761081
4635766879
4635776096
4635783237
4635792392
4635802280
4635808811
4635820346
4635825778
4635835117
4635842319
4635845920
4635857761
4635867038
4635876193
4635883945
4635887240
4635899142
4635904635
4635915133
4635919711
4635930697
4635937777
4635942965
4635951938
4635960849
4635968173
4635974704
4635979709
4635988925
4635996249
4636003268
4636012057
4636019686
4636026644
4636031649
4636040316
4636045077
4636055026
4636061801
4636067782
4636077059
4636085604
4636092989
4636104769
4636112338
4636119357
4636128695
4636134188
4636141634
4636147433
4636151583
4636158419
4636164828
4636170138
4636176363
4636180697
4636187105
4636193209
4636197603
4636203829
4636209383
4636215914
4636222323
4636228121
4636232454
4636238863
4636245272
4636248629
4636256929
4636263216
4636268038
4636273470
4636278902
4636283663
4636289217
4636295320
4636301119
4636307100
4636312715
4636318026
4636323702
4636328707
4636334139
4636339571
4636345980
4636350435
4636356661
4636362581
4636367952
4636373140
4636379549
4636384615
4636391268
4636397005
4636401338
4636408724
4636412813
4636423067
4636426912
4636433138
4636439180
4636445955
4636450655
4636459138
4636465120
4636471590
4636477266
4636481721
4636490877
4636495027
4636504976
4636512544
4636515962
4636527681
4636535737
4636542024
4636549531
4636552522
4636562349
4636568269
4636576020
4636584199
4636594087
4636602632
4636609651
4636618318
4636625581
4636631501
4636638093
4636643281
4636652925
4636661592
4636668794
4636676057
4636679231
4636689546
4636697968
4636704011
4636710481
4636718842
4636723542
4636735139
4636743867
4636748505
4636759309
4636766206
4636773041
4636784882
4636794099
4636803986
4636813874
4636819001
4636835419
4636842011
4636856598
4636862519
4636873993
4636881256
4636888825
4636896820
4636907135
4636911225
4636920441
4636926667
4636931671
4636941437
4636949555
4636957733
4636965912
4636975189
4636982453
4636988495
4636998505
4637005890
4637014130
4637023956
4637032623
4637040863
4637046478
4637059906
4637068573
4637076813
4637084991
4637087982
4637102386
4637106293
4637117645
4637126556
4637134186
4637142547
4637150116
4637157074
4637160064
4637170318
4637175018
4637183441
4637191619
4637201568
4637206634
4637213348
4637219940
4637228118
4637234466
4637240753
4637248809
4637254302
4637262542
4637269561
4637277313
4637283965
4637290008
4637298309
4637304656
4637311919
4637320159
4637326751
4637331268
4637339568
4637346587
4637353545
4637358123
4637367400
4637375518
4637386870
4637394500
4637400359
4637408721
4637416717
4637423675
4637430571
4637438323
4637445159
4637456572
4637463225
4637470733
4637478423
4637488128
4637491179
4637503264
4637512236
4637520903
4637528411
4637537017
4637543608
4637549895
4637556487
4637564604
4637571623
4637578398
4637586882
4637593779
4637600615
4637610991
4637618254
4637625517
4637631682
