4961579400
4961585809
4961591790
4961596490
4961602593
4961608025
4961614678
4961619988
4961625481
4961631280
4961637261
4961642998
4961649163
4961654351
4961660393
4961665764
4961672234
4961679619
4961684136
4961689934
4961697808
4961702813
4961710625
4961717095
4961723992
4961730339
4961736138
4961743584
4961748467
4961756279
4961762810
4961769402
4961776238
4961783501
4961792656
4961803093
4961810356
4961819451
4961825920
4961837517
4961844902
4961854240
4961862297
4961868340
4961876579
4961882317
4961891777
4961897758
4961906792
4961913261
4961920524
4961927360
4961935417
4961939689
4961950126
4961956840
4961963554
4961970451
4961976494
4961984611
4961992302
4962000480
4962007438
4962015556
4962024162
4962031913
4962042900
4962050834
4962057426
4962066398
4962075065
4962084342
4962092948
4962100028
4962109123
4962117851
4962124931
4962133720
4962142387
4962149345
4962158622
4962164603
4962173270
4962183768
4962190787
4962199699
4962206290
4962214286
4962222404
4962232902
4962241141
4962252189
4962260245
4962268302
4962278434
4962285087
4962294669
4962303397
4962312064
4962318900
4962328055
4962337027
4962345877
4962353080
4962362784
4962370536
4962376273
4962385001
4962391654
4962400138
4962407034
4962415457
4962424490
4962432913
4962446097
4962461295
4962472525
4962480154
4962488760
4962498709
4962511832
4962521536
4962529593
4962535879
4962544546
4962552115
4962559317
4962566580
4962574331
4962581228
4962587942
4962597220
4962605398
4962613333
4962620047
4962628530
4962637197
4962644888
4962652944
4962660330
4962667227
4962674307
4962681875
4962690847
4962697988
4962704824
4962715200
4962721792
4962729849
4962738699
4962745779
4962753286
4962760976
4962768423
4962776846
4962783987
4962792104
4962799612
4962806753
4962815298
4962824453
4962831289
4962838674
4962845937
4962853506
4962861257
4962870351
4962877126
4962885549
4962892202
4962900686
4962909658
4962916616
4962923635
4962931508
4962941213
4962948110
4962956227
4962963124
4962969899
4962977468
4962985524
4962992970
4963000539
4963008412
4963017323
4963026174
4963033864
4963043324
4963050282
4963057790
4963064565
4963072316
4963079274
4963088612
4963095631
4963103749
4963114552
4963122304
4963129689
4963135853
4963143422
4963150990
4963158253
4963170521
4963178578
4963189991
4963197987
4963204701
4963216481
4963230397
4963237660
4963247181
4963253041
4963260243
4963269276
4963276295
4963284596
4963290760
4963297962
4963307240
4963312061
4963321156
4963328480
4963335316
4963342884
4963351734
4963358326
4963365284
4963373646
4963380543
4963388355
4963397755
4963404346
4963410938
4963418018
4963424854
4963432972
4963440784
4963448231
4963456226
4963463489
4963470386
4963478199
4963484852
4963491504
4963498829
4963507923
4963516224
4963523609
4963533313
4963541004
4963547840
4963554492
4963561084
4963568653
4963576160
4963583728
4963592151
4963599353
4963606311
4963613880
4963620471
4963629382
4963637012
4963644275
4963652698
4963659412
4963666736
4963674609
4963682117
4963688953
4963695850
4963702502
4963709460
4963716724
4963723804
4963732104
4963742297
4963749011
4963755969
4963763720
4963770678
4963778430
4963786670
4963795764
4963802783
4963809436
4963816150
4963824755
4963829089
4963837573
4963849047
4963856616
4963864733
4963872302
4963880480
4963889392
4963898364
4963906481
4963913378
4963923754
4963932299
4963940234
4963947314
4963956957
4963966540
4963974474
4963983141
4963990099
4963995531
4964001330
4964006823
4964013415
4964019030
4964024645
4964031481
4964035448
4964043749
4964049547
4964055041
4964062365
4964068163
4964074816
4964081286
4964088183
4964093737
4964100084
4964105516
4964114244
4964120653
4964126268
4964132006
4964139879
4964146532
4964153673
4964160204
4964165575
4964172106
4964178087
4964183702
4964189501
4964195116
4964199510
4964206163
4964212023
4964217699
4964222643
4964228319
4964234422
4964240648
4964246935
4964252550
4964257249
4964264207
4964270067
4964276353
4964281725
4964286241
4964292650
4964296922
4964303331
4964309373
4964315965
4964321031
4964326585
4964333421
4964339586
4964345872
4964350694
4964355089
4964361009
4964366014
4964372911
4964379075
4964385301
4964390245
4964395555
4964400865
4964405870
4964413072
4964417894
4964425401
4964430040
4964436875
4964442491
4964449082
4964454515
4964458909
4964466233
4964471910
4964478501
4964485765
4964490952
4964495530
4964501389
4964511155
4964518113
4964523667
4964530381
4964535752
4964541062
4964547166
4964553941
4964558518
4964568528
4964574754
4964579453
4964585984
4964591172
4964597642
4964603196
4964608933
4964615708
4964619553
4964626023
4964631638
4964636582
4964642685
4964648545
4964654038
4964659409
4964665757
4964671311
4964676316
4964682358
4964688034
4964693467
4964699814
4964705368
4964710740
4964715134
4964721787
4964726853
4964734604
4964739914
4964745774
4964750656
4964755905
4964760849
4964766464
4964773361
4964779343
4964785446
4964790024
4964796494
4964801193
4964807663
4964813522
4964819687
4964825241
4964831772
4964836899
4964842087
4964846970
4964853195
4964861130
4964866257
4964872360
4964878891
4964884506
4964889389
4964895187
4964900680
4964906479
4964911850
4964918014
4964922714
4964929489
4964934982
4964941269
4964947616
4964953354
4964959396
4964964706
4964971054
4964976486
4964981857
4964989303
4964994125
4965000961
4965007553
4965013839
4965021286
4965026657
4965033920
4965040023
4965047409
4965052841
4965059005
4965064865
4965070968
4965077194
4965082137
4965089340
4965094344
4965099349
4965104293
4965110275
4965118087
4965123092
4965128463
4965135543
4965142013
4965146407
4965151839
4965157150
4965164718
4965170089
4965176925
4965182540
4965188277
4965194747
4965199020
4965206283
4965211410
4965218368
4965222701
4965228194
4965234481
4965239852
4965245284
4965251388
4965256759
4965263289
4965268355
4965274093
4965279891
4965285018
4965292220
4965297652
4965303817
4965309249
4965315047
4965320235
4965325911
4965331771
4965337996
4965344527
4965350203
4965355635
4965360579
4965366622
4965371321
4965378340
4965383833
4965389876
4965395247
4965400923
4965405806
4965411360
4965419539
4965424239
4965430586
4965434981
4965441390
4965446761
4965452925
4965458479
4965466231
4965471480
4965477095
4965481795
4965488509
4965494063
4965500044
4965506453
4965512068
4965517256
4965523909
4965530195
4965535567
4965540693
4965549788
4965555952
4965562971
4965568586
4965575056
4965580732
4965588240
4965594526
4965599653
4965606550
4965611616
4965616743
4965623030
4965628950
4965634993
4965640669
4965645552
4965650862
4965657209
4965663313
4965668867
4965673750
4965679975
4965684797
4965691572
4965696638
4965702375
4965707746
4965714460
4965720747
4965725935
4965731062
4965738081
4965744428
4965750410
4965753645
4965761030
4965768964
4965774641
4965780317
4965785322
4965790632
4965796918
4965800947
4965808820
4965813581
4965819990
4965825056
4965830427
4965835676
4965841352
4965846967
4965853498
4965858808
4965864179
4965869184
4965874860
4965881208
4965887250
4965892987
4965899823
4965905378
4965910382
4965915265
4965921613
4965926923
4965933393
4965939435
4965944623
4965949140
4965953717
4965961469
4965965741
4965972211
4965977155
4965983808
4965988996
4965993939
4965999860
4966004987
4966011701
4966017560
4966024152
4966029706
4966035199
4966041119
4966046796
4966052289
4966059125
4966064191
4966069379
4966076520
4966082745
4966087872
4966095380
4966101544
4966107403
4966114789
4966121441
4966127057
4966133710
4966138836
4966143902
4966151593
4966156353
4966162213
4966166668
4966172711
4966179486
4966185650
4966191266
4966197674
4966204449
4966209210
4966215557
4966219830
4966226055
4966233502
4966239239
4966244793
4966250592
4966255902
4966262005
4966267254
4966273419
4966280071
4966285443
4966291058
4966296063
4966302654
4966308087
4966314190
4966320843
4966326275
4966333355
4966337688
4966343914
4966348370
4966354778
4966360149
4966366863
4966372295
4966377178
4966382244
4966388042
4966393230
4966399212
4966406109
4966412823
4966417888
4966422710
4966429424
4966434734
4966440410
4966447368
4966452434
4966457439
4966463787
4966468364
4966474529
4966480205
4966484905
4966492412
4966497966
4966502849
4966508953
4966514568
4966519634
4966525249
4966532573
4966537456
4966545513
4966550762
4966556438
4966563640
4966569866
4966575359
4966580791
4966586284
4966593486
4966596904
4966603618
4966608623
4966616008
4966622661
4966628703
4966635722
4966641826
4966647502
4966654643
4966659709
4966666484
4966673686
4966679484
4966684733
4966690837
4966697673
4966702067
4966708415
4966714641
4966720439
4966726603
4966732280
4966737407
4966742534
4966747539
4966753947
4966759135
4966765544
4966770488
4966776713
4966781169
4966788005
4966794780
4966799662
4966805339
4966811991
4966817851
4966822428
4966827616
4966834758
4966840983
4966846232
4966852580
4966857279
4966862773
4966869120
4966874186
4966881877
4966887187
4966892558
4966898051
4966903117
4966908976
4966914958
4966920390
4966926554
4966931681
4966938761
4966944010
4966949015
4966954325
4966960062
4966966105
4966972025
4966977152
4966982157
4966987711
4966994974
4966999796
4967005900
4967011881
4967018961
4967025370
4967030619
4967036234
4967041666
4967047403
4967054422
4967059183
4967065775
4967071878
4967077494
4967083780
4967089823
4967094584
4967102579
4967108194
4967113749
4967119059
4967125467
4967130899
4967137369
4967143350
4967148905
4967154276
4967161112
4967167398
4967175638
4967183878
4967190714
4967195535
4967202005
4967210306
4967216348
4967223062
4967226846
4967236002
4967241556
4967246866
4967253152
4967258585
4967265420
4967271036
4967277383
4967282815
4967288003
4967293252
4967301492
4967305032
4967312967
4967319192
4967325052
4967330545
4967335672
4967343484
4967348855
4967354837
4967360269
4967365274
4967372110
4967377664
4967383340
4967389077
4967394510
4967400613
4967405557
4967412515
4967418801
4967423379
4967429605
4967435342
4967441445
4967447122
4967452493
4967457742
4967463418
4967468728
4967474221
4967480081
4967486672
4967493386
4967498025
4967504250
4967509072
4967515603
4967520120
4967527444
4967533913
4967539468
4967546731
4967551675
4967557717
4967562966
4967568581
4967575356
4967581093
4967585854
4967591836
4967596718
4967602883
4967607888
4967614724
4967620156
4967626198
4967633217
4967637856
4967642922
4967648110
4967655373
4967660439
4967666604
4967673012
4967678811
4967683999
4967688942
4967695534
4967702126
4967707985
4967713173
4967721413
4967728371
4967735085
4967741310
4967747780
4967754067
4967759804
4967767433
4967773537
4967780800
4967785866
4967791481
4967796486
4967801918
4967807777
4967813637
4967820168
4967827126
4967832130
4967837196
4967842873
4967848976
4967855812
4967861427
4967866981
4967872780
4967877663
4967883583
4967887184
4967893593
4967900917
4967906654
4967912453
4967917396
4967921791
4967926918
4967934120
4967940162
4967945350
4967950660
4967954994
4967960243
4967967750
4967973671
4967980690
4967985328
4967989967
4967996009
4968003089
4968008766
4968014808
4968020607
4968026283
4968031532
4968037574
4968044105
4968048255
4968054115
4968059181
4968065711
4968069923
4968076637
4968083045
4968087501
4968093543
4968098670
4968103492
4968109351
4968116248
4968122291
4968127662
4968132972
4968139747
4968145850
4968150428
4968157386
4968164893
4968170447
4968177100
4968183753
4968189673
4968194739
4968201636
4968206702
4968213111
4968217322
4968224219
4968228675
4968234412
4968241492
4968247901
4968253028
4968259681
4968265662
4968271033
4968278479
4968284949
4968290808
4968296729
4968303015
4968308753
4968316443
4968323828
4968328772
4968334204
4968341956
4968347571
4968353308
4968359046
4968365515
4968371131
4968375708
4968381568
4968387976
4968394385
4968399878
4968405615
4968412329
4968416663
4968423071
4968429480
4968435034
4968440039
4968446936
4968451453
4968457190
4968462378
4968469458
4968473547
4968479040
4968486182
4968492285
4968497595
4968504126
4968509192
4968515112
4968520117
4968526404
4968532263
4968538000
4968543676
4968549597
4968555334
4968561743
4968566870
4968571631
4968578466
4968583776
4968589575
4968596533
4968602026
4968607092
4968611731
4968616857
4968623144
4968628820
4968634863
4968641271
4968646215
4968652258
4968658605
4968663427
4968668188
4968674474
4968682043
4968687658
4968692663
4968698034
4968703344
4968709753
4968715612
4968720251
4968727758
4968732580
4968738805
4968744115
4968750158
4968755102
4968762426
4968769201
4968774755
4968779882
4968785863
4968791601
4968796789
4968803930
4968809118
4968815954
4968821447
4968829809
4968835302
4968840917
4968847814
4968854406
4968860387
4968866613
4968872838
4968880712
4968886632
4968891149
4968897496
4968902318
4968908361
4968915135
4968921239
4968927098
4968933995
4968939488
4968947057
4968952977
4968961278
4968967015
4968972142
4968978978
4968983800
4968990819
4968996617
4969002171
4969008824
4969013646
4969019139
4969025914
4969031651
4969037999
4969044163
4969050938
4969054417
4969061864
4969068394
4969073155
4969078831
4969085301
4969089940
4969095311
4969102391
4969108128
4969113926
4969119237
4969124302
4969131932
4969136876
4969143773
4969148289
4969153538
4969159214
4969165562
4969170872
4969176976
4969182042
4969188694
4969194065
4969199559
4969205540
4969212681
4969217930
4969222630
4969229771
4969234715
4969242344
4969247410
4969252781
4969257725
4969263706
4969268406
4969275425
4969281407
4969287876
4969293430
4969299656
4969305637
4969310032
4969315952
4969322178
4969327488
4969334202
4969340427
4969346165
4969353123
4969359653
4969367222
4969373447
4969380894
4969389438
4969397190
4969404819
4969411289
4969417209
4969423496
4969429294
4969436313
4969442722
4969448581
4969453891
4969459934
4969466587
4969472019
4969478122
4969483188
4969488803
4969495945
4969503818
4969509677
4969515537
4969520359
4969526523
4969531955
4969538852
4969544406
4969549289
4969556186
4969561557
4969567539
4969575107
4969581455
4969588046
4969594211
4969599338
4969605258
4969609653
4969616306
4969622226
4969627658
4969633029
4969638766
4969644626
4969649997
4969656100
4969661594
4969668552
4969673251
4969678805
4969683749
4969691012
4969696383
4969702609
4969709018
4969714999
4969720004
4969725436
4969730563
4969735690
4969741549
4969747104
4969753268
4969759860
4969765414
4969769809
4969775363
4969780001
4969786471
4969791903
4969798190
4969805148
4969810519
4969815646
4969822055
4969828097
4969833773
4969839511
4969844210
4969849948
4969855197
4969860751
4969866244
4969872103
4969880465
4969886813
4969892123
4969899447
4969905367
4969910677
4969917330
4969923190
4969929720
4969935946
4969942171
4969949190
4969955660
4969962008
4969968111
4969975863
4969981844
4969987643
4969993929
4969999239
4970004244
4970011690
4970016512
4970022127
4970028170
4970033236
4970040011
4970045504
4970050570
4970055269
4970062227
4970068087
4970073641
4970079378
4970084322
4970089510
4970094820
4970099764
4970107698
4970112642
4970119112
4970123812
4970128878
4970135225
4970140108
4970144869
4970151460
4970156648
4970162935
4970168611
4970174776
4970180452
4970186434
4970192537
4970198946
4970202669
4970209749
4970215791
4970220613
4970227266
4970232515
4970237520
4970242830
4970249605
4970255464
4970260286
4970265840
4970271211
4970277986
4970282258
4970288057
4970295259
4970301607
4970306917
4970311616
4970317048
4970323457
4970329377
4970335847
4970340791
4970346711
4970352327
4970358186
4970364106
4970368623
4970375459
4970380098
4970386445
4970391389
4970397615
4970402925
4970409211
4970414460
4970420442
4970426057
4970431550
4970437043
4970443940
4970449494
4970454072
4970459626
4970466584
4970472871
4970478242
4970485261
4970493745
4970499177
4970504365
4970511323
4970517915
4970524323
4970530122
4970537141
4970543183
4970548249
4970553803
4970558991
4970566682
4970573151
4970578095
4970583588
4970589265
4970594514
4970600617
4970606415
4970612336
4970617890
4970623444
4970630219
4970634736
4970640534
4970647858
4970652497
4970658966
4970664948
4970670990
4970675934
4970682404
4970687165
4970692292
4970697785
4970703461
4970711029
4970716522
4970721344
4970728241
4970733917
4970739960
4970745453
4970750214
4970757965
4970762726
4970767853
4970772675
4970777985
4970785065
4970788727
4970797211
4970802704
4970807648
4970815338
4970820770
4970826691
4970832001
4970836945
4970842438
4970848358
4970854034
4970858978
4970865387
4970869964
4970875580
4970882782
4970888519
4970895477
4970900787
4970906524
4970913116
4970918548
4970924225
4970929290
4970933929
4970939789
4970946075
4970951690
4970958892
4970962494
4970970062
4970975494
4970980499
4970986846
4970991485
4970998382
4971003692
4971009552
4971016082
4971023712
4971027679
4971036163
4971042571
4971047515
4971054962
4971062164
4971067352
4971073455
4971080352
4971086517
4971091766
4971098541
4971105682
4971111846
4971117339
4971122344
4971129546
4971134795
4971140777
4971147918
4971153350
4971158599
4971164825
4971169707
4971177398
4971182586
4971190459
4971196074
4971202666
4971208587
4971213958
4971220122
4971225860
4971231109
4971238616
4971244536
4971250213
4971254912
4971261626
4971266692
4971273345
4971280364
4971286956
4971292449
4971297393
4971304045
4971309905
4971315398
4971323271
4971329497
4971334197
4971340972
4971345793
4971351775
4971358794
4971365202
4971371977
4971377165
4971382292
4971388396
4971393889
4971400176
4971407744
4971413359
4971420317
4971425932
4971432219
4971437529
4971443083
4971448210
4971455778
4971462553
4971467741
4971473967
4971479033
4971484587
4971490629
4971499479
4971507353
4971512968
4971519133
4971524443
4971530241
4971535673
4971541777
4971547453
4971553251
4971558500
4971565947
4971572721
4971577970
4971585539
4971592314
4971599028
4971605863
4971611784
4971617338
4971624723
4971631437
4971637785
4971644865
4971649626
4971656400
4971661222
4971668363
4971674040
4971680448
4971687101
4971692228
4971699369
4971705228
4971710905
4971715665
4971723112
4971728727
4971735502
4971740202
4971747343
4971754850
4971759794
4971766386
4971772733
4971778287
4971783231
4971790250
4971796171
4971801908
4971808011
4971813566
4971818570
4971824979
4971831632
4971837735
4971843290
4971848905
4971855558
4971860929
4971867765
4971873868
4971879178
4971885221
4971890653
4971897672
4971904142
4971910001
4971915616
4971921109
4971928006
4971933377
4971938382
4971943753
4971950223
4971957547
4971964139
4971969205
4971975552
4971981351
4971986722
4971993253
4972000760
4972005460
4972012234
4972018460
4972024380
4972029568
4972036404
4972042996
4972048367
4972053616
4972059964
4972065335
4972071683
4972081998
4972092068
4972097745
4972104641
4972110074
4972115140
4972120694
4972128872
4972137539
4972142849
4972151028
4972157620
4972164700
4972170376
4972176236
4972182949
4972194424
4972199673
4972205044
4972212063
4972219204
4972225979
4972233120
4972238552
4972244045
4972249966
4972257046
4972262661
4972268459
4972274807
4972280605
4972287258
4972293301
4972299343
4972305264
4972310024
4972316677
4972322292
4972328396
4972334988
4972340603
4972346401
4972352199
4972357937
4972364956
4972368557
4972376369
4972382656
4972387844
4972394192
4972400783
4972406582
4972412136
4972418483
4972424160
4972430751
4972436062
4972443569
4972449611
4972454738
4972461269
4972465969
4972472560
4972478054
4972483669
4972490688
4972496669
4972502285
4972508754
4972514003
4972518947
4972524440
4972530361
4972539150
4972544155
4972550990
4972555690
4972561916
4972568446
4972573085
4972580653
4972586452
4972591518
4972597621
4972603175
4972609584
4972616359
4972623317
4972629176
4972634608
4972641322
4972648463
4972653468
4972659755
4972667140
4972673366
4972678676
4972684474
4972689967
4972696498
4972702662
4972709559
4972719447
4972725367
4972732386
4972738551
4972744044
4972750392
4972757411
4972764979
4972769679
4972775660
4972782313
4972787745
4972793421
4972800929
4972806178
4972811793
4972817164
4972822779
4972828150
4972834864
4972842372
4972847498
4972854029
4972858973
4972865992
4972873316
4972879176
4972884730
4972891261
4972896998
4972903590
4972908778
4972913538
4972920252
4972926661
4972933009
4972938074
4972944605
4972949183
4972955530
4972962305
4972968043
4972973902
4972981287
4972986536
4972992518
4972997889
4973003626
4973010767
4973015833
4973022547
4973027552
4973036158
4973041773
4973048487
4973054285
4973059961
4973065210
4973071192
4973079065
4973086573
4973096460
4973111963
4973120508
4973130945
4973138757
4973147669
4973156214
4973164758
4973173731
4973179468
4973184900
4973190637
4973196741
4973203516
4973209375
4973214868
4973219873
4973227502
4973233057
4973238733
4973244592
4973250513
4973256433
4973262414
4973268091
4973274560
4973281762
4973288965
4973293908
4973301233
4973306421
4973314355
4973319909
4973326318
4973331933
4973337304
4973344690
4973349023
4973355920
4973361718
4973367578
4973373986
4973379235
4973384668
4973390832
4973397058
4973401879
4973408654
4973413659
4973419213
4973425866
4973431420
4973436913
4973443627
4973450646
4973455468
4973461511
4973468469
4973475060
4973480004
4973486169
4973491784
4973497460
4973504906
4973510766
4973516503
4973523522
4973529748
4973535241
4973541466
4973546471
4973553063
4973558129
4973565819
4973572045
4973576684
4973581994
4973589379
4973594994
4973600243
4973605309
4973611596
4973617760
4973623620
4973629174
4973634972
4973641503
4973647728
4973652611
4973658776
4973664452
4973669579
4973675194
4973681115
4973688134
4973695824
4973702111
4973707970
4973713951
4973718834
4973725365
4973731346
4973737999
4973743309
4973750328
4973755272
4973762230
4973768211
4973773216
4973779686
4973785912
4973792198
4973797447
4973803551
4973810875
4973818443
4973824242
4973829918
4973837364
4973842979
4973851036
4973857445
4973862877
4973868736
4973873985
4973880943
4973886741
4973891319
4973898216
4973904625
4973909813
4973914695
4973921592
4973927086
4973931358
4973937523
4973944603
4973950340
4973956016
4973960838
4973968467
4973975303
4973979698
4973984458
4973990928
4973996849
4974001670
4974008750
4974014671
4974022178
4974027122
4974033836
4974038963
4974045066
4974052512
4974058311
4974064414
4974069358
4974076011
4974081321
4974086875
4974094199
4974099448
4974105674
4974110679
4974116538
4974122703
4974130332
4974135276
4974142051
4974147605
4974153586
4974159507
4974166343
4974175620
4974182456
4974187339
4974192038
4974199180
4974203818
4974210288
4974215659
4974220542
4974226035
4974232688
4974238913
4974243308
4974250388
4974256247
4974261435
4974266684
4974272727
4974278281
4974284812
4974290061
4974297202
4974302939
4974309409
4974314536
4974319907
4974327353
4974332785
4974341269
4974348532
4974355307
4974362143
4974367697
4974373312
4974379050
4974384177
4974390707
4974396445
4974400900
4974407675
4974412375
4974419028
4974424521
4974430685
4974435873
4974441550
4974446677
4974451742
4974459006
4974463705
4974470602
4974475973
4974484213
4974492514
4974496847
4974504599
4974510397
4974516195
4974522238
4974527060
4974531759
4974538229
4974544210
4974552877
4974558493
4974564596
4974570883
4974576681
4974581930
4974591818
4974601705
4974609091
4974616964
4974625692
4974634786
4974643575
4974650900
4974660299
4974668966
4974678182
4974684957
4974694662
4974702535
4974710165
4974719015
4974726888
4974735494
4974743124
4974751119
4974756429
4974762227
4974768331
4974774618
4974779073
4974785299
4974791036
4974795919
4974800924
4974808614
4974814473
4974820577
4974825704
4974831197
4974836995
4974842488
4974848836
4974854207
4974859456
4974864766
4974869893
4974877462
4974883809
4974891683
4974897847
4974903462
4974908406
4974913838
4974921590
4974927937
4974934712
4974940572
4974945577
4974951680
4974957356
4974963277
4974968526
4974974019
4974980306
4974986897
4974992757
4974996968
4975003804
4975009541
4975014485
4975020894
4975026692
4975032307
4975038228
4975044087
4975049885
4975054646
4975061238
4975067158
4975072285
4975077717
4975083333
4975089497
4975094807
4975100972
4975107563
4975112690
4975118489
4975125447
4975130879
4975136250
4975141316
4975147236
4975152241
4975157429
4975164448
4975170307
4975176167
4975182270
4975188313
4975193928
4975200398
4975205097
4975210224
4975216023
4975221760
4975228352
4975234089
4975238423
4975244160
4975251057
4975256855
4975262592
4975269856
4975275898
4975280903
4975286640
4975292255
4975298481
4975303730
4975309528
4975314777
4975321674
4975327167
4975331928
4975338093
4975343525
4975349506
4975355060
4975360981
4975367573
4975371784
4975377216
4975384113
4975389850
4975396747
4975402973
4975408893
4975414814
4975420978
4975427387
4975433307
4975440570
4975447223
4975453388
4975460102
4975465473
4975471332
4975477619
4975483661
4975489154
4975495441
4975501300
4975507892
4975513141
4975518329
4975524005
4975531146
4975535541
4975540729
4975547748
4975552936
4975559284
4975565143
4975570819
4975577350
4975582843
4975588214
4975593158
4975599078
4975604510
4975610553
4975615680
4975622150
4975627643
4975632831
4975638385
4975643268
4975649615
4975654742
4975660296
4975665912
4975672503
4975677325
4975683917
4975689044
4975695636
4975701800
4975707538
4975712115
4975717242
4975723651
4975729083
4975736834
4975742694
4975747821
4975754290
4975759356
4975765216
4975769915
4975776995
4975782672
4975788958
4975794390
4975799517
4975804705
4975810870
4975818560
4975824053
4975829730
4975834796
4975840289
4975847125
4975853106
4975859515
4975865862
4975870379
4975876055
4975882586
4975888445
4975894488
4975900103
4975906390
4975912554
4975918963
4975924273
4975929827
4975937151
4975943316
4975950762
4975957232
4975962481
4975968340
4975974932
4975980852
4975988115
4975992388
4975997393
4976004290
4976010088
4976014666
4976021196
4976029009
4976035112
4976040178
4976046404
4976051409
4976057085
4976061968
4976069109
4976074419
4976080767
4976086260
4976092302
4976097429
4976102434
4976108904
4976115740
4976121050
4976127947
4976133196
4976140337
4976145647
4976151933
4976157976
4976162920
4976168047
4976173051
4976179582
4976185320
4976189653
4976197160
4976202104
4976207658
4976212907
4976218217
4976222185
4976229204
4976235490
4976242509
4976246965
4976253679
4976259050
4976265275
4976270830
4976277116
4976283281
4976288347
4976293840
4976297136
4976305620
4976311174
4976317888
4976323564
4976329667
4976335893
4976341752
4976349260
4976353776
4976360429
4976365739
4976371720
4976378984
4976387101
4976394242
4976399674
4976405046
4976410661
4976417924
4976424088
4976430131
4976438615
4976445878
4976452409
4976458268
4976468461
4976476395
4976483598
4976489457
4976494706
4976502274
4976508073
4976514664
4976520463
4976526078
4976532120
4976538895
4976545792
4976552079
4976557389
4976563859
4976569657
4976575455
4976582230
4976588273
4976594254
4976600358
4976605729
4976611588
4976617630
4976621842
4976629227
4976634781
4976641129
4976647049
4976655716
4976662003
4976667069
4976673355
4976679398
4976684342
4976690567
4976696060
4976702835
4976707718
4976713822
4976719010
4976724320
4976730118
4976736099
4976742630
4976748245
4976753494
4976759232
4976766251
4976771988
4976777664
4976784561
4976790421
4976796768
4976800919
4976807083
4976812576
4976818619
4976824112
4976830582
4976836258
4976842605
4976846939
4976853958
4976860306
4976867996
4976872818
4976879532
4976885208
4976890701
4976896743
4976903213
4976907791
4976913528
4976920486
4976924942
4976931106
4976938186
4976947403
4976956802
4976965469
4976974380
4976979568
4976987319
4976994705
4977001663
4977008132
4977013320
4977019607
4977025466
4977032119
4977039138
4977046035
4977052383
4977057449
4977063430
4977070754
4977078811
4977084792
4977090163
4977095534
4977101516
4977108474
4977113540
4977120010
4977126540
4977131118
4977137466
4977143996
4977149734
4977155898
4977161880
4977166945
4977172988
4977178847
4977184707
4977191604
4977198134
4977204604
4977210524
4977215529
4977221572
4977227248
4977234511
4977240065
4977245864
4977251906
4977258437
4977263259
4977269362
4977274489
4977280593
4977286452
4977291457
4977297011
4977303359
4977308852
4977314894
4977321120
4977326247
4977331618
4977337111
4977343520
4977349928
4977356703
4977363295
4977371657
4977380507
4977389784
4977398329
4977407118
4977416029
4977425307
4977434218
4977445875
4977457350
4977466322
4977475721
4977485670
4977494948
4977504835
4977515089
4977525343
4977538710
4977550306
4977559828
4977569105
4977577467
4977587660
4977597547
4977605848
4977615675
4977624525
4977634107
4977643140
4977651624
4977659315
4977668531
4977677808
4977686781
4977695020
4977703382
4977712232
4977720350
4977730360
4977739881
4977746900
4977758802
4977767042
4977777112
4977784925
4977793897
4977803663
4977811353
4977820935
4977830884
4977837720
4977847913
4977856031
4977864270
4977874341
4977882154
4977890393
4977900525
4977910169
4977918103
4977926343
4977936475
4977943799
4977954053
4977961255
4977970898
4977981030
4977987744
4977997571
4978007825
4978015820
4978022656
4978033764
4978042065
4978050732
4978058423
4978068005
4978077649
4978084546
4978094189
4978102063
4978110974
4978119152
4978128003
4978138073
4978144787
4978152294
4978162243
4978169995
4978178112
4978190197
4978201794
4978209240
4978217968
4978226391
4978236034
4978243969
4978253979
4978262951
4978271862
4978280712
4978289440
4978298473
4978307262
4978317211
4978326244
4978334423
4978343029
4978353100
4978362865
4978370617
4978382335
4978389293
4978399913
4978407787
4978417919
4978426159
4978435375
4978444957
4978454845
4978463512
4978471996
4978480846
4978492076
4978500865
4978510204
4978518382
4978526866
4978536449
4978543895
4978554271
4978560985
4978571361
4978580211
4978587718
4978597057
4978606090
4978613902
4978624034
4978632457
4978641856
4978649669
4978658580
4978665782
4978675548
4978685008
4978695079
4978704234
4978712291
4978720774
4978728526
4978738902
4978746226
4978754222
4978759532
4978765025
4978771739
4978778147
4978782603
4978790354
4978797984
4978803965
4978810008
4978816477
4978822093
4978827158
4978834177
4978840647
4978845896
4978851817
4978858225
4978864573
4978870127
4978876658
4978881907
4978888254
4978893442
4978899912
4978906260
4978912668
4978919565
4978926035
4978932383
4978939646
4978947153
4978952768
4978961069
4978966868
4978973520
4978979441
4978987192
4978992868
4978998545
4979003916
4979011423
4979017771
4979025217
4979030588
4979037424
4979042429
4979049326
4979055735
4979061533
4979067697
4979072885
4979079599
4979085764
4979091196
4979097055
4979103769
4979110605
4979115488
4979121591
4979127878
4979132761
4979140573
4979146494
4979152231
4979159555
4979165353
4979170908
4979177866
4979182748
4979189584
4979196237
4979201486
4979208078
4979213510
4979220041
4979225290
4979231454
4979237192
4979242868
4979248361
4979254403
4979259897
4979267282
4979272409
4979280160
4979286020
4979292611
4979298166
4979303842
4979309701
4979316903
4979323129
4979329232
4979334176
4979340341
4979347116
4979351937
4979358895
4979365731
4979373971
4979380868
4979387765
4979393502
4979399972
4979404977
4979411324
4979418588
4979423470
4979429940
4979436654
4979442330
4979447884
4979455148
4979460519
4979466744
4979471627
4979477425
4979483712
4979488900
4979497750
4979504281
4979512459
4979521554
4979528023
4979533883
4979540108
4979547432
4979553902
4979562325
4979569161
4979574288
4979581124
4979586434
4979593209
4979599007
4979605660
4979611580
4979616829
4979622078
4979629219
4979635445
4979641060
4979648140
4979652779
4979659737
4979665230
4979671211
4979676644
4979682991
4979688545
4979694893
4979700447
4979707039
4979713081
4979717354
4979725044
4979730232
4979736763
4979743294
4979748543
4979754768
4979759956
4979765205
4979772591
4979778511
4979782906
4979788704
4979795051
4979800239
4979805672
4979812630
4979818001
4979823250
4979828255
4979834175
4979841560
4979845711
4979852180
4979857734
4979864692
4979870064
4979875496
4979882087
4979888191
4979893501
4979899543
4979906135
4979911140
4979917183
4979921455
4979927375
4979933540
4979940315
4979947273
4979952400
4979957893
4979963691
4979968818
4979974494
4979980659
4979986274
4979993293
4979998664
4980004402
4980009406
4980015205
4980020271
4980026313
4980031928
4980038337
4980044746
4980052619
4980057624
4980064704
4980070258
4980077094
4980082770
4980089973
4980095954
4980102302
4980107062
4980113349
4980120307
4980126472
4980131598
4980136847
4980141730
4980147407
4980152656
4980159858
4980166205
4980170844
4980177741
4980182502
4980187751
4980194037
4980199653
4980206610
4980211615
4980218451
4980222846
4980228156
4980234809
4980240546
4980247870
4980253668
4980258673
4980264655
4980270636
4980278266
4980283759
4980290106
4980297064
4980301825
4980308051
4980314276
4980319586
4980324957
4980331183
4980337958
4980343024
4980349615
4980354315
4980361090
4980365973
4980371649
4980378546
4980383734
4980389715
4980395392
4980402228
4980407782
4980413397
4980420782
4980427374
4980432440
4980437872
4980442877
4980448248
4980453436
4980461065
4980466986
4980472662
4980477850
4980483221
4980488958
4980496038
4980502874
4980508306
4980514715
4980520025
4980525640
4980530828
4980537725
4980541265
4980550482
4980555975
4980561224
4980566900
4980572515
4980579473
4980585150
4980590948
4980598821
4980605230
4980611944
4980617010
4980623785
4980629156
4980637090
4980642828
4980650274
4980655645
4980660406
4980666753
4980671087
4980676824
4980683782
4980690008
4980695196
4980700750
4980706548
4980713384
4980718084
4980724126
4980730596
4980735418
4980741826
4980746892
4980753362
4980758306
4980764104
4980771795
4980776433
4980781499
4980787236
4980794133
4980799016
4980804265
4980812749
4980818486
4980823857
4980829290
4980834172
4980839971
4980844976
4980852544
4980859197
4980863957
4980870122
4980875371
4980881658
4980886662
4980893437
4980897222
4980901677
4980905827
4980910466
4980914800
4980918034
4980922978
4980927617
4980932317
4980934941
4980939885
4980943486
4980947758
4980951970
4980957341
4980961797
4980965947
4980970280
4980974248
4980978764
4980982609
4980987370
4980991643
4980996464
4981000432
4981003911
4981008366
4981012028
4981016728
4981022832
4981028081
4981031010
4981037175
4981041386
4981045964
4981050175
4981054509
4981060490
4981064885
4981069890
4981074467
4981080204
4981084843
4981089665
4981094426
4981099919
4981105778
4981110966
4981115422
4981119145
4981124943
4981129216
4981134892
4981139042
4981142155
4981146977
4981150700
4981154545
4981159672
4981163822
4981168888
4981173283
4981177189
4981183048
4981186955
4981192143
4981196354
4981201176
4981205265
4981209171
4981213017
4981217716
4981221562
4981225651
4981229618
4981234928
4981238468
4981242863
4981246403
4981251041
4981255131
4981260319
4981265140
4981268681
4981273807
4981277897
4981281986
4981285465
4981290531
4981294376
4981298954
4981302982
4981307194
4981312626
4981316837
4981321354
4981327335
4981331669
4981336002
4981340030
4981344547
4981349491
4981352665
4981356693
4981362796
4981367740
4981371463
4981377079
4981381839
4981386295
4981390567
4981395328
4981399967
4981405033
4981409854
4981413700
4981417362
4981422611
4981427127
4981431583
4981436038
4981440860
4981444950
4981450321
4981454471
4981460452
4981465457
4981469913
4981474796
4981479862
4981484439
4981488345
4981492801
4981497989
4981503665
4981509219
4981518131
4981523319
4981530399
4981535831
4981540775
4981546207
4981551028
4981556216
4981561465
4981567813
4981573001
4981576846
4981581363
4981585269
4981589480
4981598697
4981603702
4981608340
4981612857
4981617129
4981621036
4981625430
4981631167
4981635623
4981640201
4981645083
4981650577
4981654361
4981659732
4981664309
4981669009
4981674258
4981679385
4981684451
4981689090
4981693850
4981700320
4981705996
4981710818
4981716311
4981722781
4981728945
4981734744
4981739749
4981744448
4981750003
4981756167
4981761599
4981767031
4981772891
4981778262
4981783206
4981787600
4981794497
4981806033
4981811160
4981817873
4981821475
4981827639
4981832644
4981836977
4981842837
4981847720
4981854861
4981860110
4981865176
4981870303
4981875979
4981880740
4981885866
4981889712
4981897890
4981902834
4981908449
4981914248
4981917849
4981924380
4981928774
4981933962
4981939272
4981945254
4981950136
4981955996
4981960878
4981967714
4981973146
4981979250
4981984865
4981990908
4981997194
4982004091
4982011599
4982018801
4982026918
4982034181
4982041994
4982048891
4982054506
4982062441
4982068239
4982075380
4982080202
4982086855
4982097292
4982101869
4982106691
4982114931
4982121706
4982127565
4982132570
4982138734
4982144899
4982150819
4982156923
4982163087
4982168153
4982172487
4982178712
4982183961
4982189516
4982195192
4982201967
4982206605
4982211305
4982216371
4982221254
4982226686
4982232911
4982237611
4982242311
4982246766
4982253053
4982258180
4982262819
4982268129
4982273683
4982279115
4982284364
4982290406
4982294740
4982299867
4982304200
4982309816
4982315614
4982321107
4982326173
4982331727
4982338197
4982342530
4982347596
4982352845
4982359498
4982366090
4982372132
4982377686
4982381715
4982386414
4982389832
4982396790
4982402955
4982409730
4982415589
4982421082
4982425599
4982431214
4982437074
4982443116
4982447083
4982452760
4982458497
4982463807
4982468873
4982474305
4982480653
4982485902
4982489136
4982494874
4982500916
4982508057
4982511780
4982518860
4982523499
4982529542
4982534302
4982542969
4982550660
4982556092
4982562012
4982567872
4982573487
4982578309
4982584168
4982589173
4982595215
4982600891
4982606751
4982611756
4982618347
4982623474
4982627320
4982634766
4982642945
4982649292
4982656922
4982661682
4982667847
4982673828
4982681641
4982692200
4982697449
4982703186
4982708435
4982712097
4982719544
4982726318
4982732178
4982736633
4982741577
4982746887
4982752502
4982759338
4982762634
4982769348
4982775635
4982781555
4982787353
4982793518
4982797119
4982803894
4982809814
4982817016
4982822937
4982826843
4982834228
4982837524
4982844665
4982850586
4982855163
4982860534
4982865295
4982871215
4982876770
4982883117
4982889526
4982895385
4982900940
4982907714
4982913085
4982918823
4982923950
4982930175
4982936401
4982940246
4982946350
4982951415
4982955078
4982965270
4982971862
4982977599
4982983520
4982989135
4982994140
4983001586
4983006164
4983013000
4983018798
4983024352
4983031127
4983036926
4983042785
4983047057
4983052856
4983060119
4983066405
4983073058
4983078307
4983083556
4983088927
4983092834
4983099669
4983105285
4983113524
4983118651
4983125426
4983131652
4983137450
4983141662
4983151000
4983155700
4983163573
4983167785
4983177794
4983181884
4983189452
4983195983
4983203429
4983208739
4983216613
4983222472
4983228270
4983233824
4983240294
4983246947
4983254088
4983263182
4983271544
4983278380
4983287901
4983292479
4983300963
4983306273
4983313048
4983318175
4983323058
4983327757
4983331725
4983336852
4983342528
4983348143
4983354796
4983360533
4983366148
4983372435
4983378783
4983384398
4983389586
4983395689
4983401671
4983408507
4983413328
4983418211
4983424864
4983429808
4983436216
4983441099
4983445189
4983452940
4983458922
4983464171
4983470335
4983476072
4983481443
4983486937
4983491697
4983498167
4983504148
4983509886
4983515318
4983520384
4983526182
4983532835
4983536192
4983542845
4983549009
4983554502
4983560240
4983567808
4983573484
4983578489
4983584470
4983589414
4983595213
4983601377
4983607664
4983613645
4983620298
4983625547
4983631040
4983638303
4983645750
4983652158
4983657590
4983662229
4983669370
4983675474
4983680356
4983687742
4983694639
4983700498
4983704038
4983710569
4983717161
4983720884
4983728208
4983734372
4983738706
4983745786
4983752256
4983758237
4983765073
4983773069
4983777646
4983784299
4983791013
4983797849
4983804013
4983811521
4983816342
4983823239
4983828549
4983833554
4983838437
4983846067
4983852597
4983859433
4983866086
4983872861
4983879880
4983883908
4983890317
4983897397
4983902951
4983911679
4983915585
4983920895
4983925900
4983930905
4983936520
4983941708
4983946774
4983952756
4983958493
4983963620
4983968686
4983973691
4983978635
4983984128
4983990719
4983996823
4984003354
4984007931
4984013486
4984020199
4984025570
4984030942
4984036129
4984041562
4984047055
4984052243
4984056332
4984061947
4984066281
4984072201
4984079953
4984086178
4984091427
4984095761
4984100338
4984106808
4984115536
4984123776
4984129940
4984135556
4984141354
4984146847
4984150143
4984156491
4984161678
4984164364
4984171261
4984178646
4984183773
4984189755
4984194210
4984199459
4984205563
4984210629
4984217587
4984224422
4984229183
4984234127
4984238644
4984243404
4984248898
4984253963
4984260494
4984266415
4984271175
4984276668
4984282101
4984287044
4984291378
4984296932
4984303280
4984308346
4984314510
4984319881
4984325130
4984330684
4984336422
4984341427
4984346065
4984352535
4984357906
4984363216
4984368160
4984373226
4984377742
4984383297
4984389339
4984396358
4984403499
4984408016
4984413509
4984419063
4984425960
4984429988
4984437984
4984445980
4984451839
4984457576
4984463252
4984469417
4984474239
4984479732
4984485530
4984492061
4984498287
4984503719
4984508479
4984513484
4984519283
4984523372
4984530208
4984535152
4984541194
4984544978
4984551204
4984555904
4984559993
4984564693
4984569820
4984575130
4984580195
4984585017
4984589534
4984595515
4984600886
4984605159
4984612300
4984617610
4984623530
4984628962
4984633296
4984638850
4984643855
4984648738
4984654841
4984660212
4984665278
4984670771
4984675532
4984680415
4984685481
4984690120
4984696345
4984703364
4984709834
4984715083
4984718806
4984723262
4984728511
4984732905
4984738032
4984746394
4984752131
4984757075
4984763606
4984768366
4984773249
4984777705
4984783198
4984791132
4984796442
4984802607
4984806147
4984813532
4984818110
4984822627
4984827692
4984832880
4984838374
4984846552
4984851923
4984857966
4984863764
4984868708
4984873774
4984878962
4984885187
4984891291
4984896845
4984901606
4984906611
4984913569
4984919184
4984923823
4984930475
4984935541
4984940607
4984945185
4984950922
4984956415
4984960260
4984965815
4984973139
4984980158
4984984919
4984991632
4984995722
4985003168
4985012567
4985018610
4985028009
4985033808
4985040155
4985043573
4985050653
4985055780
4985061823
4985068720
4985073786
4985079279
4985084955
4985090387
4985096124
4985103449
4985109430
4985116693
4985122369
4985127374
4985132989
4985137140
4985142511
4985148737
4985154474
4985160638
4985166559
4985171014
4985176568
4985182245
4985187128
4985194147
4985199518
4985204828
4985210687
4985216668
4985221002
4985226373
4985233941
4985239984
4985244989
4985250116
4985255487
4985261041
4985266412
4985272515
4985278924
4985284784
4985289239
4985294915
4985302423
4985306573
4985313958
4985318902
4985325250
4985332208
4985336236
4985342950
4985348626
4985355340
4985361077
4985365594
4985371148
4985378533
4985384393
4985390069
4985396356
4985401299
4985407159
4985412530
4985418267
4985424493
4985431084
4985438470
4985443719
4985449700
4985455926
4985461114
4985466790
4985471551
4985478814
4985483758
4985488457
4985494256
4985499138
4985505608
4985510857
4985516961
4985522271
4985528496
4985532952
4985538750
4985545281
4985551934
4985558098
4985565972
4985571892
4985579216
4985584648
4985590691
4985597405
4985603813
4985609612
4985616509
4985622429
4985629631
4985635308
4985639397
4985645989
4985650810
4985657768
4985662651
4985669853
4985675713
4985681328
4985685661
4985691460
4985698235
4985704094
4985708488
4985714165
4985721550
4985727470
4985733086
4985739250
4985744133
4985750114
4985754814
4985761040
4985766106
4985773674
4985778679
4985784172
4985788750
4985794304
4985800895
4985805778
4985811210
4985818535
4985823601
4985829582
4985835258
4985841118
4985847709
4985852714
4985857963
4985863273
4985869377
4985876518
4985880485
4985887687
4985893241
4985898551
4985904594
4985910453
4985916374
4985923820
4985928153
4985933708
4985939994
4985945609
4985951164
4985956779
4985962150
4985969230
4985975211
4985980705
4985986320
4985991142
4985996940
4986003654
4986011832
4986017142
4986023185
4986028556
4986033988
4986039970
4986043510
4986049369
4986058158
4986064200
4986069877
4986075980
4986081107
4986085746
4986092032
4986097831
4986104850
4986111808
4986118888
4986123221
4986128226
4986133658
4986138785
4986146720
4986152518
4986159903
4986168876
4986175040
4986179984
4986186759
4986191275
4986198600
4986205497
4986212638
4986218192
4986222586
4986227408
4986234854
4986240958
4986245841
4986254019
4986259207
4986264029
4986270499
4986275443
4986279166
4986285147
4986292777
4986298880
4986304923
4986310599
4986316519
4986322745
4986328360
4986333182
4986339407
4986346365
4986352347
4986357840
4986363760
4986369986
4986374136
4986380118
4986386343
4986394461
4986400259
4986405630
4986411429
4986417349
4986423086
4986426199
4986432730
4986439627
4986446035
4986452688
4986457998
4986463491
4986469839
4986473501
4986480947
4986486624
4986491140
4986497061
4986503897
4986510122
4986514212
4986519644
4986525808
4986532095
4986538809
4986545095
4986551199
4986557241
4986561697
4986567373
4986572561
4986577627
4986585378
4986591665
4986598318
4986603872
4986608694
4986613638
4986619253
4986625906
4986629812
4986637807
4986643789
4986648672
4986654348
4986660024
4986665517
4986669973
4986675832
4986684255
4986690114
4986695485
4986701772
4986706411
4986711965
4986717092
4986723317
4986729726
4986736013
4986742116
4986748342
4986754506
4986760854
4986766286
4986772084
4986779714
4986786245
4986792958
4986800038
4986803945
4986810048
4986816518
4986823293
4986830922
4986837026
4986843373
4986848317
4986855946
4986860463
4986865895
4986871694
4986877492
4986883229
4986889272
4986896413
4986901784
4986905995
4986910878
4986917958
4986921742
4986927052
4986934560
4986941823
4986947133
4986953664
4986958607
4986964162
4986968556
4986977040
4986982655
4986988637
4986993641
4987000294
4987005116
4987010304
4987015126
4987021046
4987029835
4987036000
4987040638
4987046376
4987052418
4987057484
4987063771
4987069691
4987075428
4987081471
4987086659
4987093006
4987098255
4987103688
4987109425
4987113331
4987122120
4987128102
4987133351
4987138905
4987143299
4987147755
4987153187
4987158253
4987164295
4987171497
4987176380
4987181324
4987187611
4987190846
4987195667
4987202930
4987206226
4987213612
4987218739
4987225147
4987230091
4987234608
4987239429
4987244068
4987249439
4987257069
4987263477
4987269031
4987274402
4987279651
4987285572
4987290882
4987295643
4987302601
4987308582
4987314014
4987320972
4987327137
4987333912
4987339832
4987347095
4987355762
4987367176
4987371631
4987377857
4987384510
4987390552
4987396350
4987402393
4987409778
4987417346
4987424243
4987430225
4987435291
4987440479
4987445911
4987452381
4987456592
4987461536
4987467395
4987472522
4987477893
4987482837
4987488086
4987492297
4987499011
4987503406
4987507983
4987514331
4987520374
4987524158
4987530749
4987541553
4987546619
4987553210
4987558459
4987564685
4987568957
4987576098
4987581592
4987587207
4987592761
4987598620
4987604114
4987609302
4987615039
4987620776
4987626635
4987631823
4987636706
4987643908
4987647876
4987655078
4987660022
4987665332
4987672045
4987678637
4987683398
4987689318
4987694079
4987699694
4987706408
4987712573
4987718371
4987724230
4987730700
4987736193
4987741503
4987747729
4987752368
4987757983
4987765124
4987770861
4987777514
4987783007
4987788622
4987794848
4987799914
4987805468
4987811144
4987817248
4987822680
4987827807
4987832690
4987838915
4987845019
4987850695
4987857165
4987862658
4987869738
4987875231
4987879015
4987887499
4987892565
4987897448
4987903612
4987910265
4987917406
4987921984
4987927599
4987933031
4987939867
4987946337
4987952135
4987959154
4987966234
4987973009
4987979052
4987985521
4987991320
4987997057
4988002306
4988010485
4988017992
4988022936
4988028429
4988034105
4988039354
4988044542
4988050951
4988056810
4988062853
4988068712
4988074938
4988080431
4988085497
4988090990
4988096849
4988102403
4988108507
4988114549
4988120897
4988127245
4988132738
4988140489
4988146654
4988152025
4988158800
4988164781
4988171373
4988175706
4988182298
4988186509
4988193834
4988197496
4988203538
4988209215
4988215867
4988221238
4988226304
4988231859
4988237718
4988243394
4988249131
4988255906
4988262498
4988267869
4988273423
4988278733
4988284959
4988290574
4988296739
4988302049
4988307969
4988313401
4988318955
4988323594
4988329576
4988334947
4988339463
4988347032
4988353990
4988360154
4988364854
4988370530
4988376817
4988381455
4988388474
4988392564
4988399583
4988405686
4988410508
4988416062
4988420762
4988426255
4988433152
4988438035
4988443894
4988450425
4988457749
4988462693
4988468613
4988474045
4988477585
4988485032
4988488633
4988495896
4988502183
4988507248
4988512803
4988519089
4988523240
4988529526
4988535019
4988540757
4988547532
4988553635
4988559739
4988566880
4988572556
4988578842
4988583176
4988589157
4988597336
4988602707
4988610459
4988618027
4988623215
4988628830
4988633469
4988640122
4988647019
4988653122
4988659714
4988665695
4988670822
4988676254
4988681992
4988688217
4988695297
4988701096
4988707565
4988713119
4988719040
4988722519
4988729721
4988736130
4988741501
4988749435
4988754684
4988758346
4988765060
4988770737
4988776474
4988781479
4988786606
4988795395
4988801315
4988806869
4988813339
4988817672
4988823227
4988828048
4988834091
4988842331
4988846542
4988852829
4988859176
4988865402
4988870346
4988876449
4988882125
4988888046
4988894393
4988899765
4988905746
4988911605
4988915206
4988921676
4988926986
4988932968
4988940353
4988961776
4988965072
4988968978
4988971236
4988973556
4988975570
4988978072
4988980331
4988982650
4988985275
4988987350
4988989608
4988991622
4988994003
4988996078
4988998275
4989000289
4989002486
4989004623
4989006942
4989008773
4989010787
4989013045
4989015121
4989017440
4989019698
4989022262
4989025252
4989028121
4989031295
4989033797
4989035995
4989038192
4989040694
4989043014
4989045089
4989047408
4989049361
4989051559
4989053756
4989057418
4989059432
4989061751
4989064315
4989066451
4989068465
4989070846
4989073043
4989074996
4989077376
4989079452
4989081771
4989083968
4989086349
4989088363
4989091781
4989094527
4989097640
4989100326
4989102706
4989105086
4989107161
4989109786
4989111861
4989114608
4989116866
4989119124
4989121261
4989123336
4989125594
4989128096
4989130294
4989132613
4989134871
4989137191
4989139144
4989141707
4989144332
4989146956
4989149276
4989151717
4989153792
4989155928
4989158675
4989161727
4989164901
4989167464
4989169783
4989171920
4989174361
4989176314
4989178878
4989181380
4989183333
4989185652
4989187545
4989189925
4989192000
4989194380
4989196822
4989198775
4989200911
4989202925
4989205184
4989207198
4989209517
4989211409
4989213973
4989216170
4989218428
4989220809
4989223250
4989226180
4989228865
4989232283
4989234541
4989236922
4989239424
4989241622
4989243758
4989246687
4989248641
4989250716
4989254317
4989257063
4989259505
4989261641
4989264082
4989266097
4989268294
4989270491
4989272749
4989274764
4989276900
4989278731
4989280684
4989287215
4989290389
4989293806
4989297102
4989300398
4989303938
4989307173
4989310042
4989312422
4989315413
4989317915
4989320601
4989322981
4989325239
4989327559
4989329573
4989332259
4989334395
4989336592
4989338667
4989340987
4989343306
4989345442
4989347700
4989349715
4989352034
4989354170
4989356428
4989358626
4989361860
4989364424
4989367354
4989369917
4989372420
4989376021
4989380781
4989385298
4989390730
4989395674
4989401838
4989406050
4989411848
4989416853
4989421614
4989427473
4989432295
4989436201
4989440413
4989445478
4989450727
4989456099
4989460737
4989464888
4989469526
4989474897
4989481062
4989485578
4989491133
4989495832
4989500959
4989506086
4989510542
4989513838
4989519636
4989522932
4989529829
4989534712
4989538923
4989542829
4989546980
4989554304
4989559248
4989563947
4989568708
4989573225
4989579755
4989583357
4989589521
4989595136
4989599104
4989604230
4989608686
4989614240
4989619916
4989626081
4989630231
4989636579
4989642438
4989647260
4989652631
4989658491
4989664350
4989669172
4989674543
4989679670
4989684553
4989693220
4989700788
4989705121
4989711347
4989717695
4989723432
4989728986
4989732587
4989738691
4989744550
4989751386
4989756696
4989761823
4989769147
4989774823
4989780805
4989788251
4989792829
4989802106
4989806134
4989813397
4989818830
4989826154
4989832257
4989839032
4989842938
4989849164
4989854230
4989860394
4989867902
4989872784
4989878400
4989884930
4989891827
4989899030
4989904340
4989909711
4989915936
4989920880
4989926251
4989930585
4989936688
4989941083
4989946332
4989951031
4989956952
4989961774
4989967816
4989973248
4989978619
4989984417
4989990521
4989996258
4990000470
4990007061
4990012494
4990017559
4990022564
4990029522
4990035077
4990040081
4990046124
4990050335
4990056866
4990062786
4990068158
4990074871
4990080914
4990086468
4990092022
4990097759
4990103131
4990109966
4990116619
4990120281
4990127300
4990133404
4990139568
4990144695
4990148724
4990155132
4990161358
4990167156
4990171795
4990180767
4990185894
4990192486
4990196880
4990202557
4990209393
4990215130
4990220440
4990230022
4990235882
4990242473
4990246502
4990252178
4990256878
4990260906
4990268230
4990271587
4990279888
4990285625
4990290264
4990297100
4990301861
4990306804
4990311382
4990317791
4990325176
4990331035
4990335796
4990339946
4990345867
4990351360
4990355632
4990363506
4990371440
4990379314
4990386882
4990395061
4990401592
4990409892
4990415874
4990422466
4990429057
4990433086
4990440166
4990447551
4990453166
4990459270
4990464885
4990470989
4990477214
4990484355
4990490459
4990494304
4990501384
4990505778
4990512920
4990516765
4990522807
4990528422
4990535686
4990540507
4990547160
4990552409
4990558757
4990564372
4990569682
4990576884
4990583171
4990588725
4990592936
4990600871
4990604777
4990610637
4990615764
4990622844
4990630534
4990634562
4990640055
4990645915
4990651957
4990658610
4990664530
4990669169
4990675883
4990681742
4990686991
4990692851
4990698832
4990704020
4990710673
4990715861
4990720072
4990725382
4990731242
4990737589
4990743998
4990749369
4990755351
4990761515
4990766154
4990773112
4990776957
4990784647
4990788432
4990795695
4990801920
4990805888
4990813273
4990818278
4990824137
4990830485
4990836893
4990841837
4990848368
4990854471
4990860026
4990864420
4990874491
4990882181
4990886637
4990892557
4990897440
4990904154
4990909525
4990915567
4990923563
4990927652
4990933756
4990939005
4990945475
4990950602
4990956888
4990962320
4990969156
4990976236
4990981485
4990987406
4990992655
4991000894
4991006876
4991014017
4991017984
4991025980
4991032022
4991039285
4991043375
4991050272
4991056558
4991061746
4991066934
4991073160
4991080423
4991088419
4991094583
4991098611
4991105753
4991110269
4991116067
4991124734
4991130472
4991136453
4991143777
4991147867
4991154397
4991160013
4991164773
4991170633
4991175210
4991180642
4991185525
4991192544
4991198831
4991205056
4991208902
4991216653
4991221719
4991227823
4991234048
4991238015
4991243936
4991249734
4991256875
4991261514
4991269754
4991276651
4991281716
4991287454
4991291909
4991298379
4991303933
4991309426
4991315652
4991320901
4991326638
4991332681
4991338723
4991343484
4991347634
4991355264
4991360207
4991366616
4991372292
4991377175
4991382912
4991388222
4991394875
4991400002
4991403847
4991409951
4991416177
4991422463
4991427102
4991432900
4991438943
4991445717
4991450722
4991456582
4991462746
4991467263
