4897715183
4897721592
4897727390
4897731968
4897737950
4897742832
4897747959
4897753391
4897758274
4897763279
4897769260
4897775486
4897780064
4897786289
4897791660
4897798496
4897803867
4897810459
4897814793
4897823032
4897828831
4897836460
4897844395
4897851292
4897859653
4897865635
4897872593
4897879917
4897886143
4897896152
4897904575
4897912388
4897922458
4897929416
4897941867
4897950351
4897961032
4897966526
4897975986
4897982456
4897988254
4897995883
4898002292
4898008090
4898014438
4898020908
4898028720
4898035251
4898040500
4898048129
4898053439
4898060581
4898065952
4898074741
4898081210
4898088535
4898094882
4898100681
4898108310
4898114413
4898120761
4898129001
4898136203
4898141513
4898147861
4898153171
4898161410
4898166720
4898175448
4898182590
4898189975
4898196505
4898203769
4898210421
4898217685
4898224521
4898232333
4898239596
4898245456
4898252047
4898260287
4898267062
4898274081
4898281100
4898287387
4898294406
4898302401
4898308505
4898316012
4898322054
4898330111
4898340975
4898347811
4898354647
4898361239
4898368319
4898376559
4898382479
4898389315
4898398470
4898406466
4898412081
4898420199
4898429537
4898437167
4898443880
4898451205
4898461642
4898470919
4898480929
4898488314
4898496248
4898506746
4898513643
4898520418
4898529146
4898536226
4898543734
4898551973
4898565584
4898575228
4898583345
4898593233
4898601168
4898608248
4898616731
4898623567
4898633333
4898640413
4898651094
4898658296
4898667268
4898674287
4898682100
4898691316
4898698946
4898705721
4898713411
4898721284
4898728181
4898737703
4898744905
4898753816
4898761079
4898768526
4898776094
4898784944
4898792573
4898799714
4898807161
4898815400
4898822847
4898831147
4898838594
4898846284
4898853181
4898860322
4898868013
4898874726
4898883882
4898890290
4898897676
4898905000
4898912263
4898922334
4898929292
4898937776
4898944550
4898953462
4898960053
4898968232
4898975922
4898984711
4898990449
4898999726
4899006867
4899013642
4899023225
4899030915
4899038727
4899045808
4899053803
4899061432
4899069428
4899076447
4899083649
4899090729
4899098053
4899106965
4899113617
4899120759
4899126862
4899137604
4899146149
4899154206
4899162934
4899169525
4899176361
4899183625
4899192414
4899198883
4899208039
4899214447
4899223175
4899231964
4899237763
4899246430
4899253082
4899261688
4899270111
4899279633
4899286285
4899293976
4899302093
4899310577
4899320770
4899328705
4899335297
4899343780
4899350616
4899364532
4899372040
4899378570
4899388275
4899394439
4899402923
4899409271
4899416839
4899425384
4899430999
4899439911
4899447357
4899454193
4899460540
4899467559
4899476043
4899482757
4899488922
4899497650
4899503631
4899510345
4899517669
4899524566
4899532684
4899539214
4899545928
4899553130
4899561431
4899567535
4899576629
4899583465
4899589507
4899598418
4899604827
4899614532
4899621246
4899628081
4899634917
4899643096
4899650115
4899657744
4899664886
4899672942
4899679717
4899687285
4899694549
4899706572
4899713225
4899721587
4899728240
4899737456
4899745208
4899751250
4899758574
4899765044
4899774687
4899783721
4899791167
4899798674
4899804900
4899813628
4899820586
4899828459
4899835539
4899844145
4899852141
4899858855
4899866179
4899874968
4899882292
4899889738
4899897978
4899905608
4899913054
4899921233
4899928557
4899936247
4899943327
4899951323
4899959746
4899969084
4899976713
4899984343
4899993071
4900000944
4900008085
4900014799
4900021818
4900029081
4900036406
4900042997
4900049467
4900055571
4900063688
4900071806
4900080290
4900087980
4900096586
4900103788
4900111296
4900119047
4900127409
4900136076
4900143705
4900151579
4900159513
4900167204
4900173795
4900182035
4900188993
4900197355
4900205961
4900211698
4900218473
4900224332
4900233915
4900241483
4900252653
4900259672
4900266935
4900272794
4900277738
4900284574
4900289945
4900296659
4900304227
4900309232
4900316861
4900322110
4900329740
4900334378
4900341336
4900348905
4900353727
4900360562
4900366056
4900371732
4900377774
4900384366
4900391263
4900397000
4900401883
4900407559
4900413480
4900419095
4900424344
4900432889
4900439176
4900445645
4900451077
4900457242
4900462613
4900467862
4900475003
4900481107
4900488797
4900493314
4900500027
4900505521
4900511136
4900516507
4900523099
4900528409
4900534085
4900540677
4900545621
4900551297
4900554837
4900560574
4900568326
4900573636
4900580472
4900586087
4900592129
4900597500
4900601773
4900607327
4900613675
4900618741
4900622891
4900628079
4900634427
4900641079
4900653469
4900658230
4900666470
4900676235
4900682827
4900688076
4900695645
4900702664
4900707363
4900711941
4900718594
4900724636
4900731167
4900737148
4900743313
4900750027
4900754177
4900759365
4900767422
4900772488
4900777981
4900784023
4900789761
4900796169
4900801601
4900806118
4900811245
4900817409
4900823574
4900829739
4900835842
4900841762
4900847988
4900853176
4900857815
4900863491
4900869777
4900875454
4900880642
4900886623
4900892666
4900898647
4900905178
4900911281
4900915859
4900921047
4900926540
4900931545
4900935939
4900941066
4900948391
4900953029
4900960231
4900965908
4900970424
4900975246
4900979885
4900986110
4900991664
4900998989
4901004909
4901011196
4901016933
4901022914
4901028529
4901032924
4901039882
4901044948
4901051845
4901057094
4901062587
4901069057
4901076137
4901082423
4901088039
4901094447
4901099696
4901105250
4901110316
4901116786
4901123622
4901129420
4901135951
4901141261
4901147853
4901152797
4901157985
4901163783
4901169764
4901182399
4901187892
4901197841
4901207728
4901213038
4901218531
4901226710
4901232570
4901237147
4901243861
4901248378
4901256434
4901263148
4901270045
4901275233
4901280299
4901287257
4901291407
4901296595
4901303065
4901307765
4901313746
4901319239
4901324000
4901330409
4901337550
4901342738
4901348719
4901354212
4901359278
4901365260
4901370448
4901376551
4901381312
4901387720
4901393092
4901398463
4901403956
4901408778
4901414820
4901421595
4901427637
4901433558
4901440089
4901445704
4901450159
4901455591
4901461512
4901467981
4901474329
4901479639
4901485865
4901489649
4901496851
4901502649
4901507410
4901513208
4901517664
4901523401
4901528040
4901534082
4901538660
4901545069
4901550745
4901555872
4901561914
4901567224
4901573206
4901580042
4901585840
4901590784
4901597681
4901601953
4901608118
4901613855
4901619043
4901626245
4901631799
4901636804
4901644617
4901650293
4901655420
4901660608
4901667505
4901673364
4901679285
4901685815
4901690942
4901696680
4901701562
4901708704
4901716882
4901721826
4901730005
4901736291
4901744958
4901753686
4901760766
4901767419
4901774927
4901779443
4901784753
4901790613
4901795617
4901800134
4901804834
4901810815
4901818261
4901823266
4901830529
4901835839
4901840783
4901845727
4901850427
4901856897
4901862084
4901867334
4901872888
4901878442
4901883813
4901889550
4901896997
4901902184
4901906640
4901911767
4901918054
4901922570
4901927148
4901933862
4901939782
4901945214
4901950219
4901954675
4901960534
4901967126
4901973046
4901978112
4901985192
4901989465
4901995873
4901999963
4902004967
4902011010
4902016137
4902020775
4902030236
4902036156
4902042809
4902049401
4902054589
4902061059
4902066674
4902072655
4902077782
4902082970
4902087975
4902092370
4902097435
4902102929
4902108483
4902113671
4902119408
4902126976
4902132836
4902137474
4902143273
4902151390
4902157494
4902163414
4902168663
4902173790
4902180443
4902185875
4902190880
4902196251
4902202110
4902207787
4902214440
4902220360
4902225365
4902231224
4902237145
4902242821
4902251610
4902259239
4902267662
4902273705
4902280113
4902285973
4902294334
4902300072
4902307091
4902311668
4902316307
4902322960
4902329918
4902335045
4902339622
4902344627
4902350364
4902355491
4902360801
4902367088
4902372642
4902377769
4902382896
4902388023
4902392540
4902399559
4902404930
4902412681
4902417259
4902422203
4902428001
4902433311
4902437950
4902445091
4902450950
4902457359
4902462608
4902467735
4902472862
4902477439
4902482933
4902489829
4902495323
4902501792
4902505699
4902513145
4902516746
4902524680
4902530235
4902535117
4902541892
4902547141
4902551963
4902557578
4902563560
4902568748
4902573692
4902579551
4902584251
4902589439
4902594566
4902601157
4902605796
4902612937
4902618369
4902624534
4902630637
4902636252
4902641196
4902648276
4902653892
4902658957
4902666282
4902672202
4902676963
4902682273
4902689109
4902694724
4902700950
4902706748
4902713034
4902718406
4902723044
4902729819
4902734153
4902741294
4902745749
4902752646
4902757529
4902762961
4902769675
4902774192
4902780173
4902785849
4902794821
4902802573
4902807089
4902816672
4902822653
4902827902
4902835654
4902842001
4902848166
4902855246
4902861227
4902866476
4902871970
4902877768
4902884116
4902889975
4902895651
4902900961
4902906943
4902914084
4902918906
4902923788
4902930746
4902938315
4902943564
4902950583
4902955954
4902961020
4902967734
4902972372
4902979452
4902985006
4902990439
4902995627
4903002279
4903007040
4903014181
4903018881
4903025900
4903031881
4903037252
4903043173
4903048910
4903053671
4903060446
4903065084
4903072714
4903078573
4903085287
4903091085
4903097372
4903102621
4903108541
4903114156
4903119772
4903125143
4903132284
4903139181
4903144430
4903151327
4903158285
4903164632
4903169942
4903175069
4903182149
4903188375
4903193746
4903198385
4903206319
4903211874
4903217428
4903222738
4903228841
4903234212
4903239767
4903248250
4903253499
4903259481
4903265218
4903270894
4903276082
4903283040
4903289083
4903295919
4903300679
4903307454
4903312520
4903319112
4903323384
4903328572
4903336324
4903342305
4903349263
4903355733
4903361348
4903367452
4903375630
4903381490
4903387593
4903393880
4903401265
4903407552
4903413350
4903418843
4903424214
4903430135
4903435750
4903442952
4903448506
4903454549
4903460103
4903467427
4903473531
4903478169
4903485249
4903490620
4903496419
4903501790
4903508259
4903515156
4903520955
4903526631
4903532307
4903539326
4903544026
4903551472
4903558247
4903563923
4903570515
4903575703
4903581074
4903587178
4903592549
4903598713
4903604023
4903610005
4903616719
4903622212
4903627522
4903632954
4903638630
4903645649
4903651081
4903656941
4903664326
4903669209
4903675984
4903681782
4903687580
4903692829
4903699665
4903704975
4903711323
4903717182
4903723957
4903729694
4903736347
4903741657
4903747212
4903752522
4903757710
4903765156
4903770100
4903776936
4903781757
4903789265
4903794758
4903800922
4903806232
4903812946
4903817890
4903824665
4903831440
4903836811
4903843403
4903848408
4903853901
4903859699
4903865680
4903877216
4903887348
4903896808
4903905903
4903914264
4903922992
4903932453
4903943012
4903952533
4903961872
4903971149
4903983234
4903990680
4904000324
4904008808
4904017291
4904024860
4904032428
4904042438
4904053424
4904061420
4904071002
4904078509
4904087176
4904097491
4904105670
4904113849
4904123004
4904131732
4904140826
4904149432
4904157489
4904166278
4904174334
4904182940
4904190997
4904198993
4904208087
4904217181
4904223651
4904233721
4904242877
4904252398
4904260211
4904268023
4904278155
4904285113
4904294756
4904302447
4904311602
4904321307
4904328326
4904336199
4904345293
4904353594
4904363238
4904370257
4904380083
4904388506
4904396380
4904403521
4904414141
4904420855
4904430132
4904439898
4904447649
4904455401
4904463823
4904471575
4904480669
4904488665
4904495989
4904506304
4904513262
4904522417
4904530168
4904538896
4904548906
4904558184
4904567156
4904574114
4904584612
4904593157
4904603655
4904612261
4904621843
4904630022
4904639848
4904649492
4904659685
4904669084
4904673967
4904684953
4904693010
4904701555
4904707231
4904715654
4904723527
4904734025
4904743364
4904752458
4904760637
4904774675
4904782609
4904791215
4904800126
4904808244
4904817277
4904825395
4904834550
4904843705
4904852616
4904862260
4904870256
4904879777
4904888078
4904895829
4904903947
4904914750
4904923905
4904932084
4904941117
4904950517
4904958695
4904967973
4904975846
4904988480
4904995133
4905005631
4905015519
4905023881
4905031876
4905040726
4905051590
4905058365
4905068802
4905078568
4905086197
4905094132
4905102189
4905112320
4905121781
4905129105
4905138016
4905146927
4905156632
4905165421
4905173538
4905182877
4905193314
4905200333
4905209488
4905216629
4905226334
4905236282
4905244583
4905252335
4905261795
4905269669
4905279190
4905287002
4905293167
4905299698
4905305191
4905311233
4905319351
4905325882
4905331558
4905337723
4905345657
4905351272
4905357376
4905362747
4905369156
4905375076
4905380142
4905391006
4905396560
4905402420
4905407730
4905415054
4905424820
4905431594
4905438858
4905446426
4905453628
4905458572
4905465164
4905469863
4905477188
4905483230
4905488784
4905494521
4905499282
4905507583
4905514053
4905519119
4905524551
4905530105
4905535659
4905541946
4905547622
4905552871
4905559097
4905565627
4905570022
4905575576
4905580886
4905586440
4905592666
4905600417
4905605361
4905611037
4905616225
4905621840
4905628493
4905633925
4905641433
4905648147
4905654006
4905661391
4905666518
4905672011
4905679335
4905685195
4905693740
4905698134
4905703872
4905710402
4905717238
4905721633
4905728163
4905734267
4905739821
4905744887
4905749526
4905756728
4905761305
4905768691
4905774550
4905780654
4905786452
4905792983
4905799269
4905805373
4905811232
4905817519
4905822157
4905829359
4905836256
4905842116
4905848769
4905854079
4905860548
4905865980
4905871657
4905878065
4905883681
4905890700
4905896254
4905902235
4905908400
4905914076
4905919325
4905924757
4905931471
4905937697
4905944777
4905951491
4905957472
4905963209
4905972364
4905978163
4905985365
4905991285
4905996962
4906002516
4906007643
4906013685
4906019667
4906025770
4906031385
4906037245
4906044081
4906048048
4906054945
4906061964
4906068739
4906074781
4906079176
4906086988
4906091505
4906097608
4906104383
4906109083
4906116163
4906120985
4906125806
4906131544
4906138563
4906144605
4906149976
4906155836
4906160596
4906167188
4906172864
4906180433
4906186231
4906191358
4906197217
4906202222
4906209180
4906214429
4906219861
4906225416
4906232740
4906237317
4906242200
4906248853
4906254285
4906264234
4906273023
4906279065
4906285596
4906290906
4906296094
4906302015
4906308789
4906312879
4906319593
4906323438
4906329480
4906335218
4906341443
4906349500
4906355115
4906359937
4906365918
4906370008
4906377271
4906382703
4906387464
4906393933
4906398267
4906405286
4906409497
4906417004
4906422437
4906428479
4906434399
4906439038
4906445935
4906453748
4906459912
4906466016
4906474316
4906479626
4906486523
4906495434
4906500500
4906506970
4906512280
4906517529
4906523938
4906529553
4906534253
4906540051
4906547253
4906553113
4906558972
4906565747
4906572094
4906577527
4906582898
4906587719
4906593213
4906600171
4906606091
4906611828
4906618847
4906623730
4906629711
4906635144
4906640515
4906646801
4906652355
4906659252
4906664868
4906671154
4906677258
4906682263
4906688061
4906693737
4906699780
4906706555
4906711620
4906719067
4906724377
4906730297
4906736095
4906743359
4906747204
4906754345
4906759411
4906764294
4906770763
4906776256
4906781200
4906787365
4906793957
4906799999
4906804943
4906810558
4906815624
4906822643
4906827587
4906833935
4906839245
4906844188
4906850475
4906858104
4906863781
4906868663
4906874035
4906881969
4906886425
4906890758
4906898204
4906904430
4906909923
4906915599
4906920909
4906927379
4906934642
4906940807
4906947032
4906952159
4906960094
4906965953
4906971507
4906979198
4906985057
4906990733
4906996349
4907003368
4907007945
4907013255
4907020946
4907026927
4907032115
4907037852
4907043468
4907048717
4907053661
4907059886
4907065257
4907070323
4907077220
4907081859
4907088023
4907093761
4907099010
4907103892
4907109263
4907116160
4907121348
4907126536
4907131236
4907138072
4907143138
4907149180
4907153331
4907160167
4907165843
4907171824
4907177317
4907182628
4907189402
4907194835
4907200816
4907206065
4907212840
4907218577
4907223643
4907229808
4907236216
4907242381
4907247996
4907253184
4907259226
4907265391
4907272166
4907278086
4907282786
4907290171
4907296092
4907301646
4907308421
4907313853
4907318491
4907325022
4907332529
4907337778
4907342905
4907348460
4907354075
4907357859
4907366221
4907371653
4907378062
4907383311
4907391672
4907397532
4907403391
4907410349
4907415659
4907421641
4907427317
4907432749
4907439097
4907444040
4907451120
4907459665
4907466196
4907475718
4907482370
4907487986
4907495737
4907501657
4907508005
4907514841
4907519846
4907525339
4907532053
4907536264
4907542490
4907547434
4907554758
4907558725
4907564096
4907571115
4907576547
4907581247
4907587473
4907594675
4907599436
4907605051
4907611276
4907616769
4907622873
4907628915
4907634225
4907638986
4907646127
4907651804
4907656503
4907661325
4907666879
4907672250
4907677804
4907685251
4907690805
4907696298
4907702646
4907708810
4907715585
4907720285
4907725595
4907732187
4907737985
4907744027
4907749521
4907756234
4907761117
4907767892
4907772836
4907779306
4907784677
4907788949
4907795968
4907801889
4907807748
4907813424
4907818002
4907824472
4907829354
4907835641
4907841561
4907847299
4907852670
4907858590
4907862252
4907868234
4907876229
4907880990
4907886605
4907893624
4907897897
4907904733
4907909982
4907916207
4907922128
4907927621
4907932015
4907937691
4907943368
4907949960
4907955758
4907963570
4907971078
4907977364
4907983712
4907988717
4907997384
4908003182
4908009774
4908017586
4908022591
4908029122
4908036751
4908042305
4908048043
4908053963
4908059945
4908065011
4908069893
4908075875
4908081368
4908086617
4908097359
4908102547
4908108101
4908113350
4908118965
4908127388
4908133797
4908140084
4908146858
4908151497
4908157356
4908163704
4908169197
4908174507
4908181526
4908188606
4908193794
4908199898
4908205086
4908210762
4908217171
4908224556
4908229378
4908234627
4908241524
4908247017
4908253059
4908258064
4908263985
4908270210
4908277229
4908282417
4908289131
4908294929
4908299568
4908305916
4908310554
4908317085
4908322944
4908328743
4908333748
4908339973
4908345283
4908350959
4908355598
4908361763
4908368232
4908372749
4908377388
4908383491
4908388496
4908393013
4908400642
4908407051
4908411872
4908418159
4908423042
4908428291
4908435615
4908440315
4908446723
4908451240
4908458015
4908463630
4908473029
4908478584
4908487678
4908493293
4908499946
4908507026
4908514472
4908520271
4908524543
4908531135
4908535896
4908542121
4908547004
4908552375
4908559516
4908564216
4908571967
4908576789
4908582954
4908589850
4908594001
4908601325
4908606086
4908614264
4908619758
4908624396
4908630073
4908637092
4908642219
4908648871
4908654120
4908659980
4908666083
4908672248
4908679145
4908684516
4908690863
4908696601
4908701850
4908708136
4908714362
4908721564
4908725348
4908731818
4908738104
4908743537
4908748175
4908755255
4908759833
4908766059
4908771796
4908776434
4908783820
4908788641
4908795599
4908801154
4908807745
4908811591
4908816840
4908823676
4908828619
4908834906
4908839850
4908845770
4908850836
4908855292
4908862433
4908868414
4908874945
4908880682
4908885199
4908890570
4908895819
4908901861
4908907660
4908914068
4908919134
4908924811
4908931708
4908936102
4908941717
4908948614
4908953436
4908958563
4908965155
4908971441
4908976751
4908983892
4908990484
4908996893
4909002386
4909010199
4909016302
4909020452
4909027716
4909033392
4909039495
4909045355
4909050421
4909057501
4909062261
4909068670
4909074407
4909080877
4909086675
4909092596
4909097845
4909103887
4909108892
4909115484
4909121038
4909125311
4909131841
4909137212
4909142828
4909148260
4909154180
4909159978
4909166692
4909172063
4909178899
4909183538
4909190435
4909196233
4909202154
4909207219
4909213323
4909217779
4909225164
4909230352
4909236638
4909243718
4909249639
4909255376
4909260259
4909266362
4909271917
4909277288
4909284246
4909290898
4909295659
4909301702
4909306829
4909312566
4909318669
4909323308
4909330937
4909335942
4909341985
4909347051
4909353581
4909359075
4909364751
4909370061
4909376592
4909382756
4909387639
4909393865
4909400334
4909404973
4909411748
4909418889
4909425237
4909431340
4909436894
4909442326
4909448918
4909453984
4909459904
4909464665
4909474980
4909480351
4909487980
4909493840
4909503239
4909508793
4909514531
4909522954
4909529789
4909534184
4909539677
4909544194
4909549321
4909556584
4909562138
4909568425
4909573124
4909579167
4909583073
4909588871
4909594242
4909600895
4909606022
4909610966
4909616459
4909621342
4909626652
4909633122
4909638798
4909643315
4909649479
4909654728
4909660038
4909664494
4909669438
4909676579
4909680790
4909687626
4909694096
4909700321
4909705570
4909711613
4909718510
4909725285
4909729801
4909737431
4909742435
4909748356
4909753361
4909759098
4909764713
4909772465
4909777408
4909783390
4909788517
4909795353
4909801884
4909808780
4909813846
4909820316
4909825931
4909831485
4909838871
4909845035
4909851017
4909856876
4909862857
4909868534
4909873905
4909880619
4909886783
4909892398
4909899417
4909906192
4909914798
4909919620
4909924808
4909929630
4909935184
4909942020
4909946781
4909953067
4909959049
4909965091
4909970462
4909976993
4909983585
4909988834
4909997134
4910003238
4910008487
4910013980
4910019778
4910025027
4910031619
4910038455
4910042972
4910048038
4910054446
4910059817
4910065433
4910070926
4910077884
4910082522
4910088077
4910094852
4910099124
4910105533
4910111758
4910117557
4910123599
4910128665
4910134768
4910140750
4910145633
4910151370
4910158511
4910165469
4910170596
4910176699
4910181155
4910185855
4910192752
4910198184
4910204898
4910209902
4910214480
4910219546
4910226748
4910231387
4910237612
4910242190
4910247683
4910252627
4910257632
4910263552
4910269106
4910274661
4910278872
4910285098
4910292117
4910297060
4910304568
4910310122
4910316042
4910322329
4910326052
4910333681
4910339297
4910344607
4910352969
4910358279
4910363772
4910368105
4910374880
4910380739
4910385805
4910392397
4910398745
4910404116
4910411196
4910416811
4910422548
4910428286
4910434511
4910439760
4910445131
4910451601
4910456423
4910461367
4910469728
4910475649
4910481630
4910487062
4910496828
4910502504
4910509218
4910516603
4910522829
4910528200
4910533571
4910540041
4910545961
4910550661
4910556825
4910563112
4910568483
4910573000
4910578554
4910582582
4910588808
4910594606
4910601015
4910606630
4910611208
4910616823
4910620912
4910627870
4910634157
4910638979
4910645021
4910651674
4910656923
4910662904
4910669252
4910675233
4910680238
4910686891
4910692323
4910697694
4910703431
4910708619
4910714723
4910720338
4910727479
4910732667
4910737062
4910744935
4910750856
4910757508
4910763124
4910769410
4910778566
4910786927
4910798158
4910806642
4910812501
4910819093
4910825807
4910833619
4910840272
4910847657
4910853028
4910859315
4910864869
4910870301
4910876344
4910882203
4910887513
4910894654
4910903016
4910909303
4910916016
4910923524
4910928712
4910934083
4910938966
4910946839
4910951050
4910957642
4910964356
4910970643
4910975403
4910980530
4910987610
4910993775
4910999695
4911005372
4911011841
4911019166
4911025818
4911033020
4911038636
4911043702
4911049866
4911055787
4911062439
4911067017
4911071595
4911078369
4911082764
4911088074
4911094849
4911100525
4911105225
4911112305
4911117493
4911123169
4911128479
4911134827
4911140503
4911146118
4911152405
4911156738
4911162171
4911168518
4911173950
4911179871
4911184937
4911190796
4911196594
4911202881
4911208435
4911213440
4911218018
4911225586
4911231262
4911236450
4911242187
4911247559
4911254272
4911259277
4911266113
4911272705
4911277527
4911283569
4911288452
4911292969
4911299255
4911304199
4911311828
4911316772
4911322998
4911327942
4911333130
4911339477
4911344421
4911351684
4911357666
4911363220
4911368896
4911374267
4911381469
4911386535
4911391662
4911398681
4911403015
4911409301
4911413574
4911420410
4911425048
4911429809
4911437194
4911443176
4911447997
4911454650
4911459655
4911464843
4911471496
4911476562
4911483642
4911488586
4911493896
4911500121
4911504699
4911509399
4911515807
4911523071
4911529784
4911535522
4911542419
4911547912
4911553100
4911560607
4911567870
4911576476
4911585387
4911590575
4911596374
4911600951
4911607360
4911612731
4911619384
4911624511
4911629393
4911634459
4911641234
4911649352
4911655944
4911662963
4911668212
4911673095
4911678283
4911683776
4911688353
4911694640
4911700988
4911706176
4911711302
4911716490
4911722777
4911728209
4911735716
4911741759
4911746459
4911752684
4911757872
4911763060
4911767760
4911775084
4911780821
4911786070
4911792662
4911796629
4911803038
4911807555
4911813170
4911820738
4911827208
4911832335
4911838621
4911844176
4911850096
4911855040
4911860655
4911866698
4911872313
4911877440
4911883848
4911889036
4911895384
4911899779
4911906492
4911912108
4911920164
4911925291
4911931578
4911937010
4911943724
4911951231
4911957945
4911962950
4911968687
4911977415
4911983213
4911988707
4911994932
4912000608
4912007017
4912012815
4912019102
4912024412
4912029844
4912035154
4912041685
4912047178
4912054380
4912061155
4912066648
4912074644
4912081663
4912088071
4912093870
4912101316
4912107236
4912114011
4912119627
4912125242
4912131467
4912137632
4912143980
4912149412
4912156187
4912161130
4912166807
4912171384
4912178098
4912183286
4912187925
4912194272
4912198240
4912204709
4912209653
4912216428
4912221982
4912227842
4912233640
4912239560
4912246213
4912252012
4912258359
4912264035
4912269162
4912276487
4912281919
4912287900
4912293210
4912299314
4912305356
4912310239
4912317746
4912322751
4912328427
4912334897
4912340146
4912344907
4912351254
4912355954
4912362241
4912367612
4912372617
4912377561
4912385129
4912396664
4912411435
4912416379
4912423337
4912428952
4912435117
4912441098
4912446835
4912451596
4912457883
4912463071
4912468930
4912475705
4912481320
4912486569
4912492673
4912500424
4912505429
4912512204
4912517392
4912523678
4912529049
4912534481
4912539914
4912545590
4912551571
4912557919
4912563595
4912568905
4912574032
4912578915
4912584103
4912589535
4912594906
4912604672
4912611325
4912615170
4912621762
4912629879
4912635678
4912643002
4912647946
4912654537
4912660702
4912666866
4912672848
4912678097
4912683773
4912688778
4912694759
4912701717
4912707699
4912712704
4912718319
4912725155
4912730465
4912735592
4912742367
4912747555
4912755001
4912760982
4912766231
4912772274
4912778194
4912785030
4912789730
4912796810
4912802486
4912808101
4912812435
4912819393
4912825924
4912831356
4912838436
4912842708
4912847835
4912852718
4912859127
4912863887
4912871273
4912877132
4912882625
4912887935
4912895137
4912900753
4912906002
4912911739
4912919185
4912923885
4912930171
4912935420
4912939815
4912945918
4912950679
4912958309
4912963435
4912968868
4912973628
4912980037
4912983333
4912991817
4912998592
4913004085
4913009883
4913015315
4913021480
4913028316
4913034480
4913040401
4913045711
4913052547
4913059138
4913065120
4913071345
4913077388
4913083186
4913088252
4913094417
4913099605
4913107295
4913113582
4913119502
4913124629
4913130305
4913137996
4913143489
4913151057
4913158564
4913164546
4913170893
4913176814
4913184748
4913190180
4913195979
4913201289
4913208064
4913213496
4913220210
4913226618
4913231623
4913235957
4913243769
4913248347
4913254389
4913260615
4913265437
4913270442
4913276057
4913282526
4913288203
4913294611
4913299128
4913305231
4913312128
4913317805
4913326350
4913332026
4913339167
4913344843
4913349970
4913355891
4913362116
4913367609
4913373835
4913380121
4913384699
4913391779
4913398066
4913403620
4913408686
4913414240
4913419611
4913425165
4913432550
4913437677
4913444452
4913447626
4913456171
4913460627
4913467585
4913472223
4913480402
4913486078
4913491999
4913497248
4913503229
4913508112
4913516290
4913521173
4913526117
4913531366
4913536920
4913544122
4913549371
4913556207
4913561273
4913567438
4913573236
4913578607
4913583673
4913590692
4913596674
4913601801
4913608453
4913614618
4913619562
4913624689
4913630365
4913638116
4913646112
4913652765
4913663507
4913671808
4913678399
4913687433
4913692743
4913698541
4913703241
4913710260
4913716363
4913723199
4913728265
4913734063
4913740472
4913745843
4913751275
4913758233
4913764093
4913769708
4913775811
4913782220
4913787225
4913792718
4913798272
4913803460
4913808587
4913814752
4913821282
4913826287
4913831902
4913837701
4913844109
4913849175
4913855523
4913861199
4913865960
4913872552
4913878838
4913884271
4913889458
4913894646
4913899529
4913906731
4913912530
4913918450
4913924309
4913930169
4913936761
4913942071
4913947869
4913953728
4913960930
4913966424
4913971978
4913976739
4913981438
4913988030
4913993157
4913999016
4914004632
4914010003
4914014946
4914020745
4914024346
4914031121
4914036309
4914042046
4914046074
4914052178
4914056816
4914061882
4914068718
4914072869
4914077751
4914083611
4914088677
4914092949
4914099297
4914105522
4914110588
4914116448
4914124077
4914128594
4914137993
4914144035
4914153679
4914160942
4914167656
4914173515
4914178032
4914184502
4914190483
4914197746
4914203911
4914209892
4914215935
4914223503
4914229423
4914235222
4914242363
4914247185
4914253410
4914259270
4914264396
4914272819
4914277397
4914284965
4914290336
4914295402
4914302604
4914308159
4914314384
4914320182
4914325309
4914330314
4914336662
4914341606
4914347648
4914353141
4914359001
4914364128
4914370109
4914375907
4914379875
4914387931
4914394096
4914399040
4914404350
4914409355
4914414543
4914420524
4914427665
4914432792
4914439323
4914442741
4914449577
4914455924
4914461540
4914467155
4914471915
4914477103
4914483146
4914488517
4914493949
4914500419
4914506766
4914512992
4914518058
4914523368
4914528678
4914539176
4914547660
4914557731
4914563956
4914570914
4914577689
4914583671
4914588736
4914595694
4914601554
4914608024
4914616080
4914625663
4914633475
4914640067
4914645743
4914653006
4914660880
4914668509
4914679434
4914713309
4914723990
4914730826
4914739066
4914744559
4914752005
4914759634
4914766104
4914772452
4914778555
4914784476
4914791861
4914798819
4914804312
4914812247
4914818777
4914825674
4914831412
4914838003
4914844656
4914850210
4914856192
4914863638
4914869742
4914874930
4914880423
4914889212
4914894766
4914900808
4914907034
4914913260
4914918448
4914925650
4914931265
4914937124
4914942862
4914949514
4914957571
4914962576
4914968191
4914974111
4914980337
4914985342
4914991629
4914996816
4915001882
4915007192
4915013723
4915021719
4915027761
4915033437
4915038564
4915043936
4915048269
4915056265
4915063223
4915067556
4915074880
4915080923
4915088430
4915095266
4915100820
4915107351
4915114431
4915120290
4915127614
4915139760
4915146841
4915154165
4915162099
4915173452
4915180227
4915191945
4915213857
4915224721
4915231435
4915238149
4915245168
4915252553
4915258229
4915266103
4915271596
4915280812
4915286000
4915291738
4915299306
4915304799
4915310658
4915317006
4915324819
4915330800
4915337331
4915343251
4915349965
4915357045
4915362355
4915368276
4915374806
4915380910
4915386586
4915391774
4915396291
4915403615
4915410390
4915416981
4915422108
4915427846
4915434987
4915439809
4915445668
4915452016
4915458241
4915468007
4915477223
4915488148
4915494984
4915501698
4915507130
4915512623
4915519581
4915525746
4915530568
4915536976
4915543019
4915549244
4915554188
4915562184
4915567066
4915572621
4915579762
4915584767
4915589955
4915595143
4915601185
4915606800
4915611805
4915620167
4915625538
4915634449
4915639332
4915647450
4915655079
4915660694
4915668873
4915673817
4915681995
4915687061
4915695972
4915701832
4915709217
4915720753
4915728199
4915736072
4915742603
4915750233
4915760120
4915767017
4915773853
4915782032
4915788379
4915794666
4915801990
4915807972
4915815174
4915822986
4915830738
4915837268
4915843433
4915848804
4915855274
4915860523
4915867420
4915872547
4915877979
4915883228
4915888904
4915895740
4915903308
4915909717
4915914905
4915920764
4915925342
4915930164
4915936572
4915941333
4915947803
4915952930
4915972766
4915978626
4915985461
4915991382
4915996814
4916002185
4916007251
4916014453
4916020434
4916025378
4916033679
4916039172
4916046252
4916052173
4916057788
4916063281
4916069812
4916075549
4916081592
4916088122
4916093738
4916100390
4916107409
4916118335
4916139270
4916156848
4916174426
4916189013
4916203662
4916218981
4916236559
4916255175
4916275561
4916287890
4916294176
4916302355
4916311510
4916318651
4916325060
4916332629
4916339892
4916347094
4916353319
4916358996
4916365771
4916371569
4916378283
4916384386
4916390123
4916394640
4916399706
4916406542
4916413622
4916418444
4916424120
4916429247
4916433702
4916441332
4916446459
4916451342
4916457567
4916463549
4916468676
4916475511
4916482408
4916490099
4916495043
4916499925
4916506273
4916511095
4916517809
4916522569
4916527818
4916534837
4916540697
4916544603
4916550890
4916555956
4916562120
4916568895
4916574632
4916579149
4916585619
4916591051
4916596849
4916601549
4916606309
4916613512
4916618883
4916624254
4916630052
4916635423
4916641221
4916647020
4916652391
4916658739
4916667344
4916674486
4916679551
4916684800
4916693101
4916698839
4916704820
4916709642
4916715135
4916720994
4916726793
4916733201
4916738572
4916743028
4916748216
4916754441
4916760240
4916765245
4916771165
4916777024
4916784776
4916790513
4916796372
4916804978
4916812547
4916818040
4916828355
4916836289
4916842027
4916848557
4916853989
4916858689
4916867356
4916872117
4916879380
4916884629
4916894212
4916899949
4916906602
4916913804
4916920029
4916926011
4916932297
4916937180
4916943955
4916949875
4916955918
4916961167
4916967820
4916972275
4916978989
4916985703
4916990342
4916998154
4917003281
4917009690
4917014817
4917020188
4917025742
4917031723
4917037949
4917042466
4917048691
4917053940
4917061081
4917065781
4917072800
4917077072
4917083847
4917090012
4917093979
4917100388
4917107041
4917112045
4917116501
4917124008
4917129990
4917136215
4917140793
4917146408
4917152512
4917159714
4917164047
4917170456
4917176620
4917184067
4917189926
4917195419
4917201950
4917207016
4917213486
4917219528
4917225693
4917232162
4917237350
4917241440
4917248337
4917254440
4917260055
4917266220
4917271286
4917278610
4917286972
4917295211
4917302475
4917307724
4917315170
4917320785
4917326156
4917334701
4917341964
4917345993
4917352767
4917357589
4917364120
4917370101
4917377120
4917382308
4917388107
4917395004
4917400314
4917405746
4917411544
4917416183
4917422714
4917427841
4917433761
4917439010
4917443282
4917450057
4917453536
4917459151
4917462997
4917466781
4917471236
4917475204
4917480819
4917485702
4917489913
4917495101
4917498580
4917503829
4917507125
4917511397
4917516341
4917520614
4917525069
4917529769
4917534408
4917540389
4917545455
4917549361
4917553451
4917557967
4917563277
4917568343
4917573348
4917578109
4917582320
4917587264
4917592513
4917596846
4917600142
4917606307
4917611556
4917615523
4917619857
4917625716
4917631514
4917636275
4917641585
4917645735
4917653365
4917657149
4917664900
4917668868
4917674544
4917678206
4917683638
4917687728
4917692671
4917696334
4917702803
4917707503
4917713973
4917719283
4917724959
4917730940
4917735579
4917740767
4917746687
4917753767
4917758589
4917764143
4917768904
4917771590
4917777022
4917782637
4917786787
4917792525
4917797224
4917801619
4917806319
4917812483
4917818465
4917823530
4917828474
4917833113
4917837507
4917841597
4917846052
4917849837
4917856123
4917861372
4917866743
4917871260
4917876631
4917882307
4917887373
4917892622
4917898298
4917902693
4917909285
4917913862
4917918989
4917922651
4917928816
4917933882
4917938703
4917944197
4917948103
4917951582
4917955915
4917961347
4917965437
4917969343
4917973554
4917979048
4917981977
4917986921
4917991682
4917995466
4918000593
4918004926
4918009748
4918013777
4918018842
4918023542
4918029279
4918035322
4918038740
4918046980
4918051679
4918056989
4918062482
4918066206
4918071638
4918076398
4918081220
4918086225
4918090253
4918094953
4918099775
4918105634
4918111738
4918117231
4918121992
4918128705
4918133832
4918139203
4918144758
4918151533
4918156659
4918162092
4918166913
4918173688
4918178876
4918184797
4918190168
4918195966
4918199567
4918208661
4918214948
4918221662
4918232404
4918238263
4918244489
4918250409
4918255475
4918260907
4918265912
4918273236
4918277875
4918282880
4918287457
4918292279
4918296857
4918301740
4918306928
4918310712
4918316937
4918322186
4918327863
4918334088
4918338910
4918344708
4918350812
4918355939
4918360455
4918364728
4918371075
4918375714
4918380841
4918386883
4918392804
4918397931
4918404034
4918410199
4918415265
4918422223
4918426495
4918432538
4918438580
4918443829
4918447918
4918454327
4918459332
4918463727
4918471356
4918476727
4918481793
4918488446
4918494244
4918500958
4918506939
4918511334
4918517804
4918521832
4918529400
4918535199
4918541180
4918547589
4918553326
4918558270
4918562481
4918568341
4918574627
4918580853
4918586773
4918592022
4918597332
4918604534
4918608441
4918615704
4918620159
4918628216
4918633282
4918637310
4918644878
4918650860
4918655560
4918661297
4918666973
4918673992
4918679302
4918683880
4918690227
4918696636
4918702007
4918705669
4918711712
4918717388
4918723675
4918728985
4918735821
4918742168
4918747417
4918752666
4918759380
4918765117
4918769573
4918775676
4918779705
4918787517
4918798320
4918804973
4918812053
4918818340
4918826030
4918831768
4918837383
4918843914
4918850261
4918857158
4918865459
4918870403
4918876018
4918880413
4918886516
4918891338
4918898540
4918902995
4918908489
4918913555
4918918804
4918924846
4918931438
4918936870
4918943340
4918948100
4918953227
4918960490
4918965923
4918972819
4918978374
4918981792
4918989848
4918993327
4919000957
4919004619
4919010600
4919016276
4919022380
4919028789
4919034282
4919040935
4919046367
4919052409
4919057841
4919064006
4919070231
4919075602
4919079631
4919089152
4919093119
4919099833
4919105998
4919112162
4919118327
4919123942
4919130473
4919136210
4919142314
4919148356
4919154277
4919157756
4919165019
4919171672
4919176554
4919182780
4919188578
4919196086
4919202921
4919209147
4919213786
4919219706
4919226237
4919230143
4919235514
4919243144
4919250529
4919255106
4919260661
4919267008
4919271647
4919278178
4919282938
4919290446
4919296183
4919301920
4919308695
4919313822
4919318461
4919325052
4919331522
4919335978
4919341959
4919347819
4919353800
4919359415
4919364725
4919371439
4919376200
4919381998
4919388346
4919394449
4919399698
4919404337
4919410440
4919416361
4919421610
4919429178
4919436197
4919440226
4919452677
4919458902
4919466776
4919470804
4919478189
4919485697
4919493265
4919497904
4919504007
4919509073
4919514993
4919518961
4919525003
4919531290
4919536234
4919543802
4919549295
4919554727
4919560770
4919567422
4919571573
4919577310
4919583597
4919589639
4919596292
4919601968
4919606302
4919612649
4919617410
4919623025
4919629007
4919635599
4919640664
4919646951
4919651956
4919656167
4919664651
4919668618
4919674112
4919680948
4919687356
4919693094
4919698282
4919705178
4919709817
4919715676
4919721658
4919725686
4919732339
4919738870
4919745767
4919750894
4919754983
4919761148
4919767678
4919773843
4919778848
4919785073
4919791604
4919796792
4919803445
4919809976
4919816811
4919820107
4919827798
4919835793
4919842568
4919849038
4919854348
4919861184
4919867226
4919874367
4919880471
4919885415
4919892495
4919899941
4919906350
4919912209
4919917153
4919922768
4919929543
4919935280
4919940835
4919946816
4919954323
4919959023
4919962807
4919968483
4919974465
4919980568
4919987038
4919993020
4919999428
4920005532
4920009682
4920016091
4920022316
4920027260
4920032753
4920037270
4920043312
4920052162
4920058571
4920063454
4920070107
4920078713
4920085732
4920093117
4920100746
4920109352
4920115456
4920121193
4920127419
4920132118
4920136391
4920142006
4920148048
4920153542
4920160255
4920166542
4920172829
4920176918
4920183021
4920190041
4920195961
4920200661
4920206215
4920211220
4920218361
4920223915
4920228798
4920235939
4920242836
4920247780
4920253639
4920260170
4920263710
4920270424
4920275917
4920282753
4920287697
4920292518
4920297706
4920302955
4920308448
4920314491
4920320228
4920324745
4920331947
4920338661
4920343971
4920348426
4920353431
4920360755
4920364784
4920372413
4920378517
4920385902
4920389686
4920395728
4920402137
4920405738
4920412818
4920417823
4920423988
4920430946
4920437782
4920441871
4920448035
4920453468
4920458717
4920464820
4920469703
4920475806
4920483009
4920489051
4920493568
4920499061
4920503821
4920509986
4920514686
4920521277
4920528663
4920533973
4920538856
4920544410
4920549598
4920556373
4920560889
4920569312
4920574988
4920582618
4920590247
4920595923
4920599707
4920605872
4920611487
4920617713
4920624182
4920629798
4920635657
4920642493
4920647986
4920652869
4920660559
4920669287
4920676367
4920682715
4920689429
4920696326
4920702002
4920706946
4920712073
4920719580
4920725684
4920732825
4920739050
4920743872
4920748450
4920754309
4920759192
4920766211
4920771765
4920776770
4920780127
4920785925
4920790198
4920795264
4920799841
4920805151
4920811072
4920816931
4920823401
4920829382
4920835058
4920839880
4920845984
4920851782
4920858618
4920862707
4920868872
4920873877
4920879187
4920885595
4920889746
4920895178
4920903845
4920908728
4920915014
4920920935
4920926428
4920931799
4920938024
4920942419
4920949377
4920954443
4920960668
4920966467
4920971166
4920974462
4920981237
4920985937
4920989355
4920996496
4921000890
4921009252
4921014257
4921022680
4921029089
4921035253
4921041662
4921048009
4921052953
4921058080
4921064977
4921070715
4921074865
4921081090
4921084875
4921093542
4921099340
4921104711
4921108983
4921116674
4921120946
4921127111
4921133336
4921140172
4921146215
4921152685
4921158727
4921164769
4921170568
4921175390
4921180639
4921187474
4921193395
4921197728
4921204442
4921211278
4921215062
4921220983
4921226903
4921233007
4921239904
4921245763
4921251744
4921259252
4921264073
4921271031
4921278783
4921285558
4921291356
4921302586
4921307897
4921312596
4921321446
4921328160
4921333470
4921339024
4921345067
4921351292
4921358067
4921364598
4921370763
4921375218
4921381688
4921388158
4921393834
4921400059
4921406041
4921411473
4921416051
4921421177
4921427342
4921432347
4921437352
4921444798
4921450352
4921455906
4921461583
4921467320
4921473057
4921478306
4921483738
4921489781
4921495762
4921501561
4921506871
4921512303
4921518040
4921524144
4921530003
4921534947
4921541416
4921547459
4921552342
4921557408
4921564244
4921569615
4921576267
4921580906
4921587132
4921595249
4921599888
4921605686
4921610996
4921616489
4921622349
4921627842
4921633518
4921640049
4921645542
4921651463
4921657627
4921661167
4921667698
4921672642
4921677952
4921684360
4921691318
4921696018
4921701816
4921706150
4921711887
4921717380
4921724705
4921729404
4921735142
4921740757
4921746311
4921751987
4921758152
4921763828
4921767368
4921775058
4921782566
4921790378
4921794590
4921797397
4921805393
4921811740
4921817112
4921823093
4921828403
4921834445
4921839267
4921844516
4921851718
4921856723
4921860507
4921867526
4921876743
4921884067
4921894321
4921898959
4921904880
4921912082
4921918185
4921925388
4921931979
4921936862
4921942050
4921947055
4921953098
4921959567
4921967013
4921971835
4921977573
4921983920
4921989413
4921994174
4921999606
4922005343
4922011569
4922015536
4922022067
4922027560
4922034945
4922038669
4922045016
4922051059
4922055819
4922061252
4922067294
4922073092
4922079989
4922084018
4922089999
4922095736
4922101474
4922106967
4922112399
4922119662
4922125827
4922131259
4922136630
4922141452
4922148043
4922152804
4922158358
4922163912
4922169528
4922175021
4922180392
4922186862
4922192172
4922198031
4922203707
4922207919
4922217196
4922222445
4922227938
4922233920
4922237276
4922244906
4922248507
4922256136
4922262362
4922268038
4922272738
4922276339
4922284334
4922288424
4922294344
4922299898
4922304903
4922313692
4922319552
4922325472
4922331209
4922336702
4922340731
4922346773
4922353487
4922359835
4922365389
4922372042
4922377657
4922382235
4922389376
4922394625
4922400423
4922406588
4922413729
4922419100
4922423067
4922429171
4922435884
4922441439
4922447420
4922453523
4922460726
4922466097
4922473055
4922479585
4922485872
4922493074
4922498628
4922506380
4922514620
4922521700
4922529390
4922535555
4922540193
4922546724
4922552461
4922557222
4922564180
4922572359
4922575899
4922582551
4922587617
4922594148
4922599275
4922604890
4922609773
4922614595
4922619722
4922625520
4922630830
4922636140
4922641633
4922647798
4922653169
4922658967
4922664827
4922669954
4922676851
4922682527
4922686555
4922691865
4922699311
4922704499
4922708345
4922713655
4922720246
4922725923
4922732881
4922737580
4922743318
4922748506
4922755403
4922761384
4922767182
4922771394
4922777558
4922783235
4922787995
4922794343
4922801362
4922807465
4922812837
4922817902
4922825288
4922829743
4922835419
4922841767
4922847810
4922855134
4922886811
4922889741
4922892426
4922894440
4922896638
4922898652
4922901276
4922903718
4922905976
4922908112
4922910126
4922912568
4922914460
4922916657
4922918671
4922920624
4922922944
4922925080
4922927094
4922929535
4922931733
4922933991
4922936432
4922938508
4922941010
4922943451
4922945893
4922948334
4922951386
4922954072
4922956757
4922959076
4922961091
4922963593
4922965485
4922967621
4922969758
4922971955
4922974152
4922976044
4922978058
4922980500
4922982697
4922985138
4922987397
4922989411
4922991669
4922993622
4922995636
4922997834
4923000153
4923002106
4923004608
4923007111
4923009308
4923011261
4923013825
4923017060
4923019745
4923022675
4923024872
4923027069
4923029084
4923031403
4923033539
4923035858
4923037750
4923040009
4923042633
4923044586
4923046906
4923049042
4923051178
4923053803
4923055878
4923057953
4923059845
4923061920
4923063873
4923065949
4923069550
4923071503
4923073883
4923077240
4923079621
4923082367
4923085785
4923088715
4923091217
4923093598
4923095490
4923097504
4923099884
4923102264
4923104279
4923106415
4923108856
4923110748
4923112701
4923115082
4923117584
4923119293
4923121735
4923123993
4923125946
4923127960
4923130280
4923132477
4923134857
4923136871
4923139008
4923141022
4923143219
4923145233
4923148407
4923151276
4923154633
4923157379
4923159637
4923162262
4923164276
4923167389
4923170807
4923174591
4923178253
4923180694
4923182770
4923184845
4923186920
4923188812
4923190704
4923192779
4923194916
4923197418
4923199371
4923201568
4923203644
4923205658
4923207672
4923210480
4923213836
4923217132
4923220367
4923223602
4923226837
4923230255
4923233307
4923236419
4923239776
4923242889
4923246124
4923249237
4923251129
4923253753
4923256378
4923258880
4923261078
4923263275
4923265533
4923267669
4923269806
4923271881
4923274078
4923275970
4923278473
4923280670
4923282928
4923285797
4923288665
4923290863
4923292938
4923295806
4923298858
4923301178
4923304657
4923307708
4923310272
4923312591
4923314849
4923316986
4923319061
4923321075
4923323699
4923325958
4923329681
4923331756
4923333831
4923336517
4923338348
4923340728
4923342864
4923345184
4923347015
4923349212
4923351470
4923353424
4923355560
4923357879
4923360076
4923363250
4923366241
4923368682
4923371673
4923373931
4923376251
4923378448
4923382232
4923387725
4923391692
4923396392
4923401946
4923405181
4923412322
4923417388
4923422210
4923426849
4923431792
4923436309
4923442107
4923446929
4923451812
4923457000
4923462188
4923466216
4923472259
4923477325
4923482146
4923487090
4923491668
4923497527
4923501861
4923507415
4923512847
4923517913
4923521392
4923528045
4923531157
4923536834
4923542266
4923546721
4923551787
4923556304
4923561675
4923566619
4923570586
4923575164
4923581939
4923586516
4923592742
4923599089
4923603789
4923609038
4923614653
4923618315
4923626311
4923630522
4923638640
4923642546
4923647795
4923654082
4923660430
4923665984
4923669585
4923680022
4923690154
4923696196
4923705901
4923713042
4923723051
4923731108
4923740630
4923750090
4923758574
4923766875
4923778776
4923785124
4923792082
4923799406
4923806364
4923814238
4923823210
4923831144
4923839201
4923848417
4923855558
4923863920
4923870695
4923878996
4923886991
4923895292
4923902800
4923910307
4923919523
4923926542
4923933866
4923942777
4923949613
4923959867
4923968534
4923976896
4923984464
4923991667
4924000089
4924007780
4924015897
4924024747
4924032560
4924040250
4924048185
4924055509
4924063505
4924072599
4924079984
4924086271
4924093900
4924104398
4924111234
4924119596
4924126310
4924134427
4924143216
4924149991
4924157010
4924163907
4924173856
4924181485
4924188138
4924194730
4924204129
4924211881
4924220731
4924228726
4924236905
4924244473
4924250577
4924258267
4924266507
4924274259
4924284818
4924291226
4924300504
4924308682
4924316434
4924324673
4924332547
4924340665
4924348416
4924357022
4924367093
4924374417
4924383755
4924391263
4924399014
4924406216
4924414761
4924421597
4924429043
4924438626
4924448697
4924455410
4924462735
4924469571
4924476834
4924484280
4924491848
4924499234
4924507290
4924514065
4924521939
4924531277
4924538723
4924545498
4924553799
4924561978
4924576565
4924584744
4924593411
4924603176
4924611294
4924618008
4924626125
4924634243
4924640957
4924648830
4924658962
4924666042
4924675381
4924680324
4924691555
4924696743
4924705776
4924715114
4924722561
4924730617
4924737636
4924745632
4924752712
4924761928
4924768337
4924778164
4924786159
4924795131
4924803249
4924811489
4924819545
4924826747
4924834621
4924842311
4924850185
4924858608
4924866115
4924874233
4924881801
4924888881
4924896510
4924904079
4924911342
4924920741
4924927089
4924933131
4924938258
4924942409
4924946620
4924952724
4924957912
4924962062
4924967738
4924972438
4924978053
4924984462
4924990504
4924996242
4925000453
4925004786
4925010280
4925014308
4925019374
4925024806
4925029994
4925035792
4925040065
4925046290
4925051051
4925055629
4925059779
4925065577
4925070643
4925074733
4925079554
4925085353
4925089503
4925095057
4925101588
4925107142
4925112025
4925117762
4925121485
4925127223
4925130702
4925136378
4925141017
4925146144
4925151087
4925156519
4925161097
4925165614
4925170191
4925174647
4925180079
4925185938
4925192042
4925198512
4925203944
4925209315
4925213831
4925218592
4925224635
4925230128
4925235987
4925241297
4925247279
4925251612
4925256495
4925262232
4925267237
4925273279
4925278101
4925282130
4925287379
4925292628
4925297632
4925304285
4925309168
4925314478
4925317896
4925324305
4925327601
4925333887
4925336756
4925343165
4925348536
4925353296
4925358179
4925363062
4925368128
4925372644
4925378748
4925383875
4925388391
4925393274
4925398340
4925403589
4925409082
4925413965
4925419702
4925425073
4925429224
4925434473
4925440393
4925445459
4925450830
4925456018
4925461206
4925466882
4925472437
4925477442
4925482996
4925486475
4925493128
4925498499
4925504724
4925510522
4925514917
4925520471
4925525659
4925531213
4925536829
4925542505
4925547082
4925552759
4925558496
4925564294
4925568994
4925574487
4925580408
4925586389
4925593042
4925599450
4925605005
4925610620
4925615381
4925621179
4925625207
4925630761
4925636377
4925641992
4925647546
4925653039
4925658288
4925663598
4925670129
4925674768
4925682397
4925687768
4925693383
4925699121
4925703393
4925710290
4925717797
4925724511
4925730920
4925737756
4925744775
4925748864
4925756738
4925761071
4925766931
4925773217
4925779748
4925785729
4925791161
4925797387
4925803490
4925809167
4925814660
4925818566
4925826196
4925832543
4925838097
4925843407
4925846642
4925852807
4925857934
4925864098
4925869469
4925876427
4925879845
4925887658
4925893090
4925897423
4925902978
4925909142
4925914879
4925923058
4925927941
4925931664
4925938317
4925943688
4925949364
4925953637
4925958764
4925963707
4925970116
4925975426
4925979210
4925984581
4925989647
4925995385
4926001488
4926007469
4926013756
4926019188
4926024193
4926030480
4926035607
4926041283
4926045677
4926052086
4926061974
4926066979
4926071312
4926076988
4926084496
4926091393
4926096886
4926101219
4926108177
4926114403
4926120201
4926126793
4926131920
4926138206
4926144554
4926150841
4926157249
4926164940
4926170189
4926176903
4926183067
4926186973
4926195152
4926199180
4926205467
4926213402
4926219322
4926224449
4926229759
4926235252
4926240989
4926246238
4926251976
4926259727
4926265892
4926272728
4926279197
4926284812
4926292320
4926298667
4926305564
4926312705
4926322837
4926328819
4926336021
4926342369
4926348838
4926354576
4926360618
4926368186
4926372398
4926380454
4926386619
4926394187
4926398338
4926406699
4926411582
4926417075
4926423911
4926428123
4926435142
4926441062
4926445518
4926453330
4926457664
4926466819
4926470664
4926477134
4926480979
4926489524
4926493369
4926499656
4926505271
4926510032
4926515281
4926521628
4926526694
4926530661
4926536765
4926541892
4926548911
4926553855
4926559714
4926565451
4926573020
4926579551
4926584616
4926590598
4926597007
4926602622
4926609824
4926615378
4926619589
4926626364
4926633261
4926640341
4926646811
4926651999
4926658347
4926663962
4926670859
4926678122
4926683005
4926691306
4926695273
4926703452
4926707907
4926715781
4926719870
4926725607
4926733054
4926739035
4926744406
4926750754
4926757040
4926763754
4926770407
4926776388
4926782919
4926787008
4926794577
4926800985
4926808493
4926814901
4926819357
4926825338
4926831442
4926837118
4926843588
4926848715
4926857443
4926862692
4926868917
4926874533
4926879782
4926887350
4926892233
4926899618
4926906332
4926913595
4926920126
4926924764
4926930502
4926937643
4926945211
4926949972
4926961447
4926971639
4926976522
4926983846
4926989706
4926995260
4927001852
4927008566
4927013937
4927019613
4927025961
4927031759
4927036031
4927043294
4927047323
4927055379
4927062520
4927068380
4927073568
4927079976
4927085348
4927089254
4927095907
4927104574
4927110189
4927115682
4927120748
4927124410
4927131734
4927135518
4927142720
4927148275
4927155294
4927161153
4927166707
4927170308
4927175862
4927181050
4927185994
4927191793
4927199056
4927204549
4927209066
4927215108
4927221822
4927226216
4927232198
4927237813
4927242269
4927249654
4927255696
4927262105
4927268025
4927275166
4927281514
4927287862
4927296590
4927301289
4927307759
4927314595
4927320393
4927326802
4927332783
4927339619
4927345967
4927349995
4927357381
4927363667
4927368855
4927375325
4927381611
4927387166
4927391377
4927400715
4927407490
4927412983
4927419270
4927424519
4927431782
4927438557
4927443562
4927450642
4927455525
4927461567
4927467793
4927474568
4927480305
4927486470
4927491780
4927499104
4927507710
4927512715
4927519428
4927525654
4927530903
4927538044
4927544270
4927550556
4927555256
4927561787
4927570026
4927577778
4927584309
4927588581
4927597919
4927602985
4927610371
4927616169
4927623920
4927629841
4927636249
4927643085
4927648456
4927654987
4927662617
4927666706
4927673481
4927679951
4927685322
4927690937
4927698444
4927702472
4927710529
4927717609
4927724018
4927728656
4927734150
4927741840
4927747638
4927753498
4927759845
4927763568
4927770160
4927776508
4927783283
4927787311
4927794940
4927799945
4927806110
4927811542
4927816791
4927823871
4927829608
4927834796
4927841571
4927846942
4927852558
4927859699
4927865070
4927871173
4927876666
4927882587
4927888751
4927895526
4927900104
4927906757
4927913531
4927919940
4927926105
4927932147
4927938251
4927942645
4927948016
4927955951
4927962543
4927968158
4927973468
4927980182
4927985675
4927989703
4927997577
4928003131
4928009723
4928016192
4928022845
4928029315
4928034991
4928041156
4928047931
4928052569
4928061236
4928068011
4928074176
4928080767
4928086566
4928091815
