4865803705
4865810053
4865815607
4865821039
4865826532
4865831476
4865836786
4865843744
4865850214
4865856439
4865862665
4865868341
4865873834
4865880731
4865887018
4865891779
4865898920
4865905512
4865912531
4865917963
4865925531
4865931024
4865936639
4865944452
4865950983
4865958490
4865962945
4865969842
4865977472
4865983697
4865991693
4865998590
4866005731
4866013727
4866021173
4866031793
4866043878
4866053582
4866061151
4866069818
4866076776
4866084222
4866092523
4866098809
4866108758
4866114068
4866121820
4866128716
4866133721
4866142816
4866149285
4866157586
4866164727
4866171685
4866178826
4866186883
4866192376
4866200860
4866209649
4866214776
4866221978
4866229851
4866236932
4866244622
4866251641
4866258355
4866267083
4866274651
4866282158
4866287469
4866296136
4866301385
4866309502
4866318108
4866325860
4866332207
4866337944
4866345696
4866353447
4866360405
4866366509
4866376580
4866384148
4866390496
4866397087
4866405937
4866413201
4866419853
4866427300
4866435234
4866441948
4866449028
4866456535
4866463677
4866470024
4866475334
4866483940
4866492302
4866499626
4866507622
4866515373
4866521355
4866528069
4866537651
4866544731
4866552666
4866559990
4866565300
4866572807
4866581047
4866590629
4866598259
4866609428
4866618034
4866626640
4866632621
4866642143
4866648796
4866656730
4866665702
4866672538
4866679863
4866687553
4866696281
4866702018
4866711540
4866718742
4866728568
4866739311
4866747856
4866757011
4866766044
4866776969
4866786002
4866792533
4866801017
4866808158
4866814323
4866824027
4866830497
4866839591
4866846671
4866854179
4866861381
4866869193
4866876884
4866886771
4866894645
4866902213
4866910453
4866918021
4866923453
4866931510
4866938712
4866946219
4866953971
4866962088
4866968680
4866977286
4866984977
4866993155
4867000663
4867006888
4867015677
4867021903
4867029532
4867038382
4867044547
4867053885
4867060416
4867069754
4867076651
4867083792
4867091666
4867098624
4867107413
4867113211
4867122488
4867131461
4867139578
4867146048
4867154104
4867161795
4867168020
4867175955
4867182181
4867192557
4867199392
4867208975
4867216055
4867222586
4867231375
4867238882
4867244680
4867253836
4867259207
4867268179
4867273489
4867283071
4867288870
4867299246
4867308157
4867316274
4867321890
4867330801
4867339834
4867346121
4867354604
4867362539
4867371694
4867378042
4867387930
4867394399
4867404897
4867411672
4867421926
4867428640
4867438894
4867447683
4867454397
4867463003
4867471120
4867478383
4867486806
4867494130
4867510732
4867519704
4867529531
4867538137
4867547597
4867555593
4867563527
4867572072
4867579396
4867588552
4867595693
4867603200
4867612111
4867620351
4867627126
4867634694
4867641957
4867649709
4867658437
4867667226
4867674611
4867682179
4867688893
4867696400
4867704030
4867712392
4867718312
4867729726
4867737172
4867744435
4867752675
4867760426
4867768178
4867773854
4867783619
4867791615
4867798573
4867806141
4867813954
4867822072
4867830372
4867836354
4867845143
4867852223
4867858937
4867865895
4867874440
4867882191
4867890858
4867898304
4867909230
4867916004
4867923634
4867932423
4867939808
4867947682
4867954395
4867962696
4867969898
4867976978
4867984852
4867992054
4867999439
4868007618
4868014881
4868021961
4868029957
4868038380
4868045765
4868053638
4868059986
4868069629
4868075733
4868084461
4868093921
4868101917
4868110218
4868117298
4868125049
4868129810
4868140430
4868150196
4868158863
4868167774
4868175586
4868183521
4868191577
4868201343
4868209888
4868223377
4868235340
4868243823
4868253406
4868261401
4868266162
4868276538
4868284656
4868291614
4868299854
4868307239
4868316699
4868324878
4868331836
4868338061
4868344287
4868349902
4868355517
4868360827
4868367541
4868374316
4868380603
4868387195
4868393359
4868398791
4868404712
4868410083
4868416308
4868422534
4868429980
4868435107
4868440783
4868446887
4868454028
4868460315
4868467517
4868474231
4868479968
4868486071
4868492419
4868497241
4868504199
4868509020
4868516223
4868523425
4868528369
4868534167
4868541125
4868548571
4868554553
4868560900
4868566332
4868572497
4868578356
4868583178
4868588793
4868595019
4868600451
4868607043
4868612719
4868617907
4868623278
4868628832
4868634814
4868640612
4868647570
4868653063
4868658739
4868665026
4868670397
4868675402
4868680834
4868686327
4868692125
4868698778
4868704638
4868709337
4868715502
4868720812
4868726366
4868733263
4868739000
4868744432
4868749926
4868755602
4868762194
4868766405
4868774157
4868781420
4868786974
4868792528
4868798998
4868804674
4868810167
4868817552
4868822374
4868828661
4868834947
4868839525
4868845628
4868850389
4868858263
4868864244
4868870104
4868874498
4868880602
4868887193
4868892381
4868898607
4868905565
4868909532
4868915758
4868922105
4868928026
4868933336
4868938951
4868946153
4868951463
4868957200
4868962205
4868968370
4868972459
4868979234
4868985032
4868990404
4868996995
4869002549
4869009752
4869014451
4869021653
4869026902
4869032396
4869038255
4869043809
4869049119
4869054307
4869060167
4869065843
4869073960
4869079576
4869085435
4869089158
4869095506
4869102464
4869106614
4869113755
4869118577
4869125535
4869130601
4869135789
4869142259
4869147996
4869152451
4869160569
4869166551
4869170762
4869177781
4869183335
4869188401
4869192796
4869200120
4869205613
4869212144
4869218186
4869223374
4869229050
4869234788
4869241563
4869246079
4869252183
4869256455
4869262986
4869267686
4869275132
4869282151
4869288498
4869293686
4869299424
4869305344
4869310166
4869317978
4869324082
4869330246
4869335862
4869342636
4869348740
4869352890
4869359055
4869364975
4869371994
4869376755
4869382920
4869387924
4869393784
4869399704
4869405014
4869410935
4869416611
4869422836
4869428757
4869434860
4869439499
4869445175
4869449692
4869457260
4869462631
4869468979
4869473984
4869479233
4869486252
4869490646
4869497787
4869504379
4869509079
4869515305
4869520492
4869525803
4869531906
4869537643
4869543259
4869550278
4869554672
4869560837
4869565231
4869571701
4869578537
4869584518
4869591171
4869599716
4869606552
4869611923
4869618515
4869625900
4869630600
4869636703
4869641098
4869647079
4869653732
4869659347
4869665023
4869673202
4869678085
4869683944
4869690170
4869694320
4869701644
4869707443
4869713790
4869717819
4869724655
4869730148
4869735214
4869741134
4869746871
4869755050
4869760360
4869765670
4869771041
4869776962
4869783187
4869788375
4869795577
4869801681
4869806930
4869813155
4869817977
4869824447
4869829146
4869837081
4869842940
4869849410
4869855819
4869861068
4869867049
4869872359
4869879195
4869885909
4869891097
4869896895
4869902144
4869907271
4869912459
4869917830
4869925765
4869930648
4869937117
4869942061
4869948104
4869953109
4869958541
4869965377
4869971114
4869977217
4869982833
4869987654
4869993392
4869998824
4870005293
4870011702
4870015669
4870022017
4870027327
4870033431
4870039534
4870044661
4870052413
4870057417
4870063887
4870068221
4870074629
4870079695
4870085738
4870091353
4870097884
4870104109
4870109785
4870115706
4870120467
4870127119
4870131880
4870138594
4870144148
4870150191
4870155379
4870161665
4870167219
4870172957
4870179732
4870184309
4870189741
4870195845
4870201094
4870206099
4870211592
4870217268
4870224348
4870230696
4870235151
4870241377
4870246992
4870253279
4870257978
4870265486
4870269575
4870276167
4870281172
4870286665
4870292585
4870298567
4870304853
4870309614
4870316206
4870321028
4870327436
4870333601
4870339582
4870344099
4870351057
4870357526
4870363630
4870369795
4870374921
4870381391
4870386457
4870395307
4870401228
4870406843
4870411115
4870417402
4870423872
4870429609
4870436445
4870441389
4870447797
4870452802
4870458723
4870463910
4870469098
4870476117
4870481428
4870488935
4870493818
4870499494
4870507184
4870514142
4870519941
4870526044
4870531232
4870536847
4870541974
4870547528
4870553693
4870558759
4870565534
4870571088
4870577069
4870582746
4870588178
4870593976
4870599713
4870606793
4870612164
4870617658
4870622724
4870628522
4870633649
4870641034
4870647015
4870652936
4870658978
4870663739
4870670087
4870674542
4870680951
4870686139
4870693585
4870697919
4870703778
4870709454
4870715131
4870720990
4870725690
4870733380
4870739972
4870745648
4870751019
4870756390
4870762555
4870767621
4870771771
4870779278
4870784649
4870790631
4870796368
4870800763
4870807293
4870812787
4870820233
4870824261
4870830792
4870836285
4870841961
4870848431
4870854168
4870861065
4870866436
4870872235
4870877362
4870883099
4870888775
4870894390
4870901165
4870907574
4870913738
4870918743
4870925884
4870931500
4870937298
4870943218
4870950359
4870954449
4870960857
4870967144
4870972576
4870977276
4870983196
4870989849
4870995098
4871000835
4871006023
4871012249
4871018169
4871023296
4871031231
4871037884
4871043560
4871048443
4871055218
4871061443
4871067547
4871074871
4871079998
4871086101
4871091472
4871096843
4871102642
4871108318
4871115642
4871120952
4871126629
4871131694
4871138652
4871144146
4871149578
4871156414
4871161418
4871167705
4871174175
4871179424
4871188274
4871196880
4871201579
4871207378
4871212932
4871220256
4871225322
4871232280
4871237468
4871243205
4871249736
4871254375
4871261516
4871267863
4871273601
4871278972
4871285320
4871291972
4871296123
4871301799
4871307658
4871312968
4871317912
4871324687
4871332561
4871337016
4871342143
4871348002
4871354045
4871360087
4871366191
4871371806
4871377543
4871383586
4871390056
4871396647
4871402507
4871407084
4871412394
4871419230
4871424968
4871430705
4871437175
4871442668
4871448466
4871454570
4871459391
4871467265
4871474223
4871480143
4871485636
4871492594
4871497599
4871502482
4871510050
4871515727
4871520915
4871526103
4871531291
4871536784
4871542887
4871549601
4871556193
4871561015
4871566203
4871570780
4871577433
4871582255
4871588236
4871595316
4871600931
4871606852
4871613383
4871618998
4871623148
4871629679
4871633890
4871641947
4871647379
4871654215
4871659220
4871664591
4871669169
4871676432
4871682596
4871688151
4871694193
4871700602
4871706644
4871712687
4871718607
4871723917
4871730265
4871734476
4871740641
4871747049
4871752481
4871757242
4871763712
4871769266
4871774820
4871778787
4871785196
4871791117
4871797342
4871801798
4871809061
4871815408
4871822061
4871827982
4871832742
4871839273
4871844339
4871849222
4871854837
4871861856
4871866251
4871872720
4871876749
4871883890
4871890359
4871897073
4871901773
4871907632
4871913126
4871918497
4871925821
4871931192
4871937478
4871943094
4871949930
4871953897
4871961160
4871967386
4871971719
4871977884
4871982278
4871990274
4871996072
4872002969
4872009195
4872015176
4872020425
4872027139
4872034463
4872039224
4872045266
4872049417
4872055764
4872060037
4872068093
4872073953
4872079446
4872084634
4872091775
4872097817
4872103799
4872109170
4872114602
4872120583
4872126138
4872130776
4872138162
4872144326
4872148782
4872154946
4872162453
4872167458
4872173440
4872178994
4872184609
4872190530
4872196938
4872202004
4872208047
4872214150
4872219216
4872224892
4872229836
4872234536
4872241677
4872247292
4872254006
4872259072
4872265297
4872270302
4872275918
4872281472
4872287392
4872293190
4872297341
4872303383
4872309304
4872315529
4872322182
4872328286
4872333535
4872340309
4872345131
4872351601
4872358193
4872365761
4872371132
4872377114
4872385170
4872390480
4872396523
4872401039
4872407204
4872412697
4872419411
4872424721
4872432106
4872438942
4872446571
4872452980
4872457558
4872464516
4872471046
4872476418
4872481361
4872487282
4872493813
4872499245
4872506081
4872513222
4872519752
4872523720
4872530128
4872534584
4872541603
4872546181
4872554603
4872561561
4872566017
4872572059
4872578590
4872584205
4872589088
4872595802
4872601661
4872608497
4872612770
4872618263
4872624855
4872631446
4872637306
4872642067
4872649391
4872654029
4872660255
4872665382
4872673622
4872679359
4872685340
4872692054
4872698219
4872703956
4872708534
4872714698
4872718665
4872725074
4872731361
4872737953
4872743507
4872749244
4872756019
4872761878
4872767493
4872773719
4872780067
4872785316
4872792823
4872798377
4872804420
4872809730
4872816321
4872822486
4872827857
4872833472
4872839759
4872846168
4872852149
4872858191
4872863746
4872870398
4872876502
4872881934
4872888831
4872894629
4872901221
4872907508
4872912940
4872919532
4872925269
4872931494
4872937659
4872944434
4872951758
4872956214
4872962317
4872969214
4872973242
4872980261
4872986487
4872994116
4872999732
4873005103
4873012000
4873017798
4873024451
4873031043
4873037451
4873043738
4873049475
4873056250
4873063208
4873068030
4873076331
4873082007
4873088049
4873093909
4873098303
4873105566
4873111914
4873118323
4873123633
4873129248
4873136084
4873142798
4873148291
4873157873
4873164648
4873169714
4873176184
4873181006
4873188025
4873192724
4873198095
4873203711
4873209448
4873215673
4873221472
4873227819
4873233618
4873239599
4873245459
4873251074
4873256140
4873261938
4873269201
4873274816
4873279760
4873285131
4873291052
4873297460
4873302709
4873309179
4873315038
4873321264
4873327062
4873331945
4873338476
4873343725
4873350927
4873356420
4873363866
4873371984
4873377050
4873382360
4873389074
4873395971
4873401586
4873407812
4873412328
4873419164
4873424169
4873429784
4873440282
4873446996
4873452245
4873457799
4873463170
4873470128
4873476720
4873482213
4873488683
4873494298
4873499974
4873504857
4873511022
4873517614
4873524450
4873530431
4873535863
4873541844
4873545629
4873552770
4873560521
4873565526
4873571996
4873577672
4873585301
4873591588
4873597020
4873604039
4873608251
4873615392
4873621007
4873626073
4873633031
4873640904
4873645726
4873651707
4873657506
4873663182
4873670567
4873677830
4873683202
4873689305
4873694554
4873699864
4873705846
4873711766
4873717564
4873723729
4873729344
4873735631
4873741978
4873748143
4873754490
4873760411
4873766942
4873772374
4873777134
4873782811
4873789036
4873796177
4873802342
4873807347
4873814366
4873820958
4873827122
4873833531
4873840000
4873844761
4873851353
4873854649
4873861851
4873867710
4873874546
4873880345
4873886326
4873903721
4873909886
4873914890
4873921787
4873928928
4873934849
4873941196
4873947666
4873952610
4873957798
4873965305
4873970676
4873976292
4873983128
4873988316
4873994297
4874000645
4874006687
4874011692
4874019626
4874024204
4874030857
4874036411
4874042759
4874048130
4874054355
4874060093
4874066990
4874072178
4874077793
4874084324
4874090671
4874096714
4874102024
4874108616
4874115268
4874121921
4874129001
4874134189
4874140659
4874145298
4874151645
4874157627
4874163608
4874170200
4874175083
4874182651
4874187168
4874192600
4874199985
4874206760
4874213535
4874219333
4874225009
4874229892
4874236789
4874241794
4874248691
4874254916
4874261081
4874269382
4874275241
4874281284
4874287631
4874294833
4874300876
4874306369
4874312656
4874318454
4874323276
4874329867
4874334811
4874341586
4874347079
4874352694
4874358920
4874364474
4874370212
4874377353
4874383395
4874388400
4874393527
4874398532
4874405062
4874411898
4874417392
4874423251
4874427951
4874434054
4874439913
4874446933
4874450839
4874457247
4874464877
4874469454
4874475863
4874482882
4874487277
4874492709
4874497836
4874505404
4874511019
4874516329
4874523409
4874527865
4874533358
4874539462
4874546236
4874553255
4874558810
4874563326
4874570467
4874576754
4874582491
4874588534
4874592684
4874599154
4874605868
4874613253
4874619539
4874625704
4874631014
4874637545
4874645052
4874651949
4874657808
4874665926
4874671053
4874677706
4874683626
4874689364
4874695833
4874700350
4874708101
4874713472
4874719027
4874726900
4874731844
4874735323
4874743502
4874751436
4874757295
4874764192
4874769258
4874775484
4874781648
4874787264
4874792879
4874799715
4874805330
4874812044
4874817049
4874822908
4874829622
4874834444
4874841707
4874848665
4874854280
4874860384
4874865450
4874872652
4874879854
4874885103
4874890474
4874896821
4874902315
4874907503
4874914949
4874920930
4874927766
4874933198
4874938692
4874943025
4874949434
4874955964
4874961641
4874967134
4874974214
4874979158
4874984102
4874990266
4874997102
4875001497
4875008638
4875013215
4875019685
4875025727
4875031160
4875036225
4875042390
4875048860
4875054658
4875060823
4875066499
4875073152
4875077851
4875083100
4875090425
4875095796
4875101228
4875107087
4875112641
4875119477
4875123872
4875131928
4875137177
4875143281
4875150849
4875155122
4875163239
4875171540
4875177766
4875182832
4875188996
4875195771
4875200104
4875206574
4875211518
4875218110
4875224396
4875230012
4875235871
4875241181
4875247162
4875252167
4875260468
4875265107
4875270783
4875277436
4875282807
4875288910
4875294770
4875299897
4875306061
4875311554
4875316071
4875322846
4875329132
4875335114
4875341584
4875347931
4875354218
4875358368
4875364533
4875370392
4875375824
4875382355
4875388764
4875393952
4875398468
4875405060
4875410980
4875416962
4875423493
4875429352
4875434784
4875440704
4875447052
4875452057
4875459503
4875466278
4875471588
4875477264
4875483124
4875489288
4875495697
4875500702
4875507355
4875513763
4875519684
4875525238
4875530670
4875536590
4875542755
4875550750
4875555877
4875562835
4875568329
4875572784
4875579437
4875585357
4875590912
4875597320
4875602142
4875607940
4875614837
4875620025
4875625640
4875632293
4875637359
4875643768
4875650787
4875656951
4875661712
4875668914
4875674713
4875681610
4875687957
4875692535
4875698760
4875705108
4875711395
4875717498
4875723357
4875729888
4875735931
4875741058
4875745574
4875752837
4875758147
4875764922
4875770965
4875776397
4875781768
4875787200
4875791534
4875798858
4875805450
4875810149
4875816253
4875821380
4875828948
4875834929
4875840362
4875845733
4875852019
4875857573
4875862639
4875867949
4875873320
4875879424
4875883941
4875890838
4875897185
4875902678
4875907256
4875912810
4875917449
4875923796
4875931548
4875937529
4875941558
4875948332
4875952483
4875958403
4875964995
4875970793
4875976225
4875982390
4875987822
4875992949
4875998198
4876003508
4876009184
4876015654
4876021391
4876027068
4876032805
4876037932
4876044279
4876050566
4876054961
4876061797
4876067717
4876072844
4876079314
4876085234
4876090666
4876097258
4876101958
4876108122
4876113371
4876119414
4876124235
4876131254
4876138212
4876142607
4876149931
4876154387
4876160612
4876165495
4876172575
4876178740
4876183867
4876188871
4876195463
4876201200
4876207792
4876214262
4876220427
4876226225
4876239347
4876248197
4876256376
4876263639
4876275846
4876284513
4876293607
4876302580
4876310880
4876322355
4876331876
4876339506
4876348234
4876358121
4876366422
4876374357
4876383878
4876392240
4876400724
4876408292
4876418180
4876426542
4876434659
4876444730
4876452970
4876461637
4876470121
4876480680
4876489896
4876497647
4876506925
4876517057
4876526334
4876535672
4876544950
4876553800
4876563321
4876573331
4876582364
4876591641
4876600369
4876610867
4876618985
4876627408
4876639005
4876645963
4876657925
4876668179
4876674893
4876686307
4876694180
4876703641
4876713162
4876722989
4876732571
4876741238
4876749844
4876758694
4876768582
4876776272
4876787136
4876796292
4876804043
4876813992
4876822964
4876830838
4876842190
4876851956
4876859707
4876868618
4876879238
4876886318
4876896389
4876903713
4876912502
4876922756
4876929897
4876938503
4876948208
4876957790
4876964626
4876974209
4876984096
4876994289
4877002224
4877011318
4877019497
4877029140
4877037075
4877045192
4877053249
4877060817
4877070278
4877077968
4877086879
4877100673
4877110256
4877118679
4877127285
4877136135
4877143398
4877153957
4877163112
4877172450
4877180507
4877189601
4877197597
4877206508
4877215175
4877223842
4877233852
4877242763
4877251491
4877260951
4877269252
4877278895
4877287807
4877296290
4877304225
4877314357
4877323207
4877332362
4877342372
4877349818
4877359523
4877369593
4877378749
4877387477
4877395900
4877405238
4877414454
4877423548
4877430873
4877442347
4877450221
4877459437
4877467799
4877478358
4877484400
4877494593
4877505396
4877512415
4877523402
4877531702
4877540858
4877548914
4877558009
4877568690
4877575281
4877585535
4877594630
4877602015
4877608851
4877620203
4877629542
4877635157
4877640894
4877646448
4877650232
4877656702
4877664087
4877669214
4877675562
4877680017
4877686792
4877691980
4877697901
4877703577
4877709986
4877716761
4877722986
4877729273
4877733667
4877740320
4877746912
4877752771
4877760095
4877765161
4877770288
4877775293
4877780786
4877786279
4877792139
4877798731
4877805322
4877810449
4877817651
4877822229
4877827844
4877833765
4877840784
4877846033
4877851587
4877857873
4877862390
4877867761
4877874902
4877881311
4877886865
4877893274
4877898401
4877905542
4877910119
4877915491
4877921594
4877927270
4877934045
4877938623
4877943750
4877949853
4877955407
4877961572
4877968591
4877973291
4877980066
4877985131
4877992700
4877998132
4878004480
4878009362
4878014611
4878021325
4878027368
4878033471
4878039331
4878044702
4878049340
4878055932
4878063439
4878069726
4878074059
4878080529
4878087243
4878092004
4878097131
4878103112
4878109582
4878114648
4878120263
4878126183
4878131982
4878139367
4878146203
4878153100
4878160912
4878166466
4878172570
4878178918
4878184228
4878192284
4878198083
4878203515
4878209130
4878216515
4878221337
4878226769
4878231408
4878237816
4878243920
4878250023
4878256249
4878262230
4878268639
4878276452
4878282250
4878288781
4878295250
4878301903
4878306053
4878313805
4878318871
4878325157
4878330590
4878337853
4878343285
4878348961
4878354088
4878359886
4878367211
4878371239
4878377464
4878383385
4878388268
4878392662
4878398399
4878405846
4878412010
4878418053
4878423363
4878428551
4878434166
4878439415
4878444359
4878451134
4878457359
4878464195
4878468712
4878474815
4878479393
4878484886
4878492210
4878496300
4878502769
4878507896
4878513756
4878520714
4878525291
4878532127
4878542076
4878548607
4878552879
4878558738
4878564415
4878569481
4878576988
4878583091
4878588707
4878594444
4878599876
4878605247
4878610801
4878616722
4878623741
4878628868
4878636192
4878641746
4878646934
4878653465
4878658531
4878664024
4878671348
4878677574
4878683616
4878688072
4878695274
4878700340
4878707176
4878712547
4878718772
4878727256
4878733787
4878739219
4878745689
4878752586
4878759055
4878766196
4878771506
4878777793
4878781943
4878788779
4878795798
4878803611
4878809470
4878815696
4878822165
4878828574
4878836265
4878841208
4878848960
4878854697
4878859031
4878865867
4878871665
4878877585
4878883445
4878888877
4878895407
4878901450
4878906760
4878911887
4878917624
4878924704
4878930014
4878937155
4878944724
4878950644
4878955832
4878961020
4878966330
4878973532
4878979147
4878985739
4878991171
4878996420
4879003989
4879009116
4879014426
4879019614
4879026389
4879031515
4879039023
4879045065
4879049826
4879055075
4879061056
4879069479
4879074423
4879081564
4879085776
4879092184
4879096884
4879102194
4879108175
4879113424
4879118124
4879125570
4879131613
4879136923
4879142660
4879149435
4879157736
4879164267
4879171469
4879178671
4879183859
4879189108
4879194845
4879200643
4879207479
4879215231
4879221884
4879228292
4879234091
4879240560
4879246908
4879252523
4879258077
4879265585
4879272177
4879278951
4879286092
4879294393
4879302084
4879309286
4879314840
4879320394
4879326131
4879333089
4879338033
4879345541
4879350851
4879356710
4879363546
4879370382
4879376180
4879383382
4879388875
4879394918
4879401449
4879408529
4879414693
4879419271
4879425496
4879433126
4879439351
4879444967
4879451619
4879457967
4879462789
4879469381
4879474141
4879481160
4879487203
4879494039
4879498067
4879503926
4879510091
4879514363
4879520650
4879526509
4879532552
4879537984
4879545247
4879550679
4879554952
4879561543
4879567769
4879575459
4879581380
4879589192
4879595479
4879601460
4879608479
4879613423
4879620564
4879625996
4879631490
4879637654
4879643513
4879650532
4879656941
4879661275
4879668111
4879674519
4879681111
4879686482
4879692586
4879697346
4879704426
4879710225
4879715657
4879722127
4879727376
4879733174
4879739094
4879746541
4879750691
4879756672
4879761006
4879767964
4879774434
4879779988
4879785237
4879791645
4879796162
4879802327
4879808064
4879813923
4879818806
4879824726
4879832295
4879836994
4879843891
4879848225
4879854511
4879860249
4879866047
4879871296
4879877277
4879882099
4879888874
4879894123
4879899250
4879904743
4879911152
4879917194
4879923359
4879929951
4879935139
4879941547
4879947712
4879953266
4879959431
4879966083
4879971516
4879977619
4879984150
4879989094
4879994404
4879999958
4880005085
4880012165
4880018085
4880024006
4880030658
4880035358
4880041645
4880048725
4880061847
4880071857
4880083759
4880092792
4880100238
4880105915
4880112751
4880118671
4880125080
4880130512
4880136615
4880141925
4880148090
4880154071
4880162006
4880167926
4880173480
4880179096
4880184650
4880190509
4880196552
4880203571
4880210529
4880223895
4880236407
4880244952
4880253680
4880261737
4880267230
4880273151
4880279315
4880284747
4880289874
4880295489
4880300921
4880307330
4880312701
4880318988
4880323871
4880329852
4880335345
4880341021
4880344622
4880353350
4880357074
4880363299
4880370074
4880376422
4880382037
4880388140
4880393878
4880400408
4880405535
4880411639
4880417803
4880423785
4880429522
4880434222
4880440875
4880447466
4880452044
4880458941
4880466448
4880470477
4880477129
4880481707
4880487933
4880493731
4880500323
4880509173
4880514727
4880522112
4880528338
4880533526
4880539996
4880546221
4880552325
4880557390
4880562884
4880567705
4880575091
4880580034
4880586199
4880592547
4880598284
4880603289
4880608355
4880615374
4880619646
4880626421
4880632708
4880638140
4880644793
4880649248
4880656023
4880662371
4880667559
4880674395
4880679522
4880686602
4880691301
4880698748
4880704668
4880710894
4880717790
4880722917
4880728105
4880734941
4880739397
4880746111
4880751787
4880758806
4880765276
4880770403
4880775041
4880781694
4880786943
4880793291
4880800371
4880804521
4880811113
4880817216
4880822099
4880828569
4880834184
4880840532
4880846941
4880851823
4880858537
4880864702
4880869340
4880876787
4880881181
4880888078
4880896135
4880902482
4880908098
4880913957
4880921708
4880928178
4880934343
4880940263
4880946550
4880952104
4880956315
4880962663
4880969743
4880975236
4880981034
4880985673
4880992570
4880997819
4881004472
4881010270
4881017289
4881023332
4881029923
4881036820
4881041581
4881048173
4881055131
4881060685
4881067277
4881073197
4881079179
4881084123
4881089982
4881096818
4881103104
4881108598
4881112931
4881120621
4881125565
4881131486
4881136674
4881142838
4881149857
4881155656
4881162369
4881167008
4881171647
4881178361
4881183243
4881188920
4881195267
4881200394
4881206315
4881211991
4881219498
4881223710
4881230607
4881235795
4881241654
4881248429
4881253617
4881258866
4881265458
4881270951
4881276261
4881282791
4881287125
4881293045
4881299088
4881304886
4881311478
4881318070
4881323929
4881329422
4881334732
4881340470
4881346207
4881352860
4881357254
4881363968
4881369400
4881373673
4881380325
4881385819
4881392227
4881396927
4881403519
4881409927
4881416702
4881422806
4881429337
4881434830
4881440079
4881445511
4881451797
4881457291
4881463394
4881469498
4881474808
4881480484
4881485977
4881491714
4881496780
4881502640
4881509536
4881515213
4881521255
4881527725
4881533828
4881539322
4881544265
4881550979
4881557205
4881562576
4881567825
4881573806
4881580032
4881586013
4881594009
4881600723
4881605667
4881611526
4881617874
4881622940
4881627700
4881634780
4881640762
4881645828
4881651199
4881658584
4881663345
4881668350
4881676467
4881682754
4881687881
4881693191
4881699966
4881705581
4881711684
4881718948
4881727737
4881736953
4881743423
4881750259
4881758193
4881765273
4881771438
4881777236
4881783584
4881788650
4881794082
4881800124
4881804519
4881810561
4881816482
4881822219
4881828383
4881833815
4881838210
4881844497
4881851943
4881856032
4881861525
4881868056
4881873488
4881877944
4881883010
4881891249
4881895949
4881901442
4881905959
4881912917
4881917617
4881923110
4881928786
4881934706
4881940627
4881951613
4881957106
4881961928
4881968642
4881974623
4881980116
4881985854
4881991774
4881996535
4882002028
4882009230
4882015150
4882019850
4882024062
4882030592
4882035902
4882040907
4882048598
4882054884
4882060927
4882066481
4882073622
4882079848
4882086256
4882092116
4882098829
4882104628
4882111158
4882117140
4882121840
4882128370
4882133925
4882139296
4882146803
4882151075
4882157484
4882163954
4882168959
4882176161
4882182936
4882187757
4882194288
4882199842
4882205946
4882211561
4882215895
4882222669
4882227552
4882233778
4882240003
4882246107
4882251051
4882258558
4882264417
4882269300
4882275465
4882279920
4882286085
4882292310
4882298536
4882304639
4882309644
4882315321
4882320814
4882327528
4882333570
4882339246
4882345899
4882350538
4882357374
4882362562
4882369337
4882374402
4882380872
4882386365
4882392713
4882398389
4882404004
4882410169
4882416578
4882421583
4882428113
4882434461
4882440625
4882445630
4882452405
4882456800
4882464429
4882471570
4882476331
4882482007
4882488294
4882493848
4882498975
4882505078
4882509351
4882515760
4882521314
4882527539
4882534009
4882538281
4882545850
4882551770
4882557874
4882563977
4882569531
4882575513
4882582410
4882588391
4882595654
4882602185
4882608533
4882614636
4882622021
4882627393
4882634473
4882640515
4882647351
4882652539
4882659497
4882664685
4882669690
4882676831
4882682934
4882687390
4882693921
4882699841
4882705090
4882710217
4882717297
4882723340
4882729809
4882735852
4882740429
4882746960
4882753064
4882759472
4882766430
4882770886
4882777294
4882781750
4882788769
4882794323
4882799877
4882806225
4882813061
4882818066
4882824169
4882830273
4882835461
4882841625
4882847546
4882854321
4882858532
4882864513
4882872448
4882876782
4882882580
4882890820
4882897045
4882902966
4882907726
4882915173
4882920361
4882925304
4882932445
4882938183
4882943737
4882948315
4882955456
4882960033
4882966564
4882972057
4882978710
4882982860
4882988781
4882995861
4883001903
4883006847
4883013195
4883019054
4883024059
4883030529
4883036632
4883042125
4883048107
4883055675
4883062084
4883067821
4883073864
4883079784
4883086559
4883092052
4883099254
4883105175
4883111400
4883116954
4883123790
4883130138
4883136485
4883142650
4883149608
4883154796
4883162120
4883166026
4883172435
4883180187
4883184703
4883191295
4883196727
4883202281
4883207652
4883216258
4883221324
4883227977
4883233775
4883239696
4883244945
4883251597
4883257091
4883261912
4883268016
4883273021
4883279735
4883284617
4883290599
4883296519
4883302073
4883307994
4883314341
4883319651
4883324412
4883331065
4883336131
4883342723
4883348948
4883354380
4883359751
4883365245
4883371104
4883376231
4883385997
4883391551
4883397776
4883403269
4883407786
4883414805
4883421458
4883426035
4883433055
4883438365
4883444102
4883450327
4883455882
4883463206
4883468211
4883475108
4883479746
4883485789
4883491282
4883497080
4883502879
4883510325
4883516795
4883523936
4883529490
4883535898
4883543162
4883548105
4883554392
4883560129
4883566965
4883572336
4883577097
4883582468
4883588633
4883595286
4883599985
4883607920
4883614939
4883619639
4883630442
4883636911
4883644541
4883649118
4883656504
4883663584
4883668833
4883674814
4883680857
4883687265
4883693186
4883699655
4883704294
4883711862
4883717966
4883724619
4883729440
4883735178
4883741403
4883748117
4883753061
4883759470
4883765939
4883771494
4883778513
4883784311
4883789316
4883795541
4883801340
4883807687
4883814096
4883819711
4883824228
4883830759
4883835763
4883843393
4883847726
4883854745
4883861825
4883866830
4883872079
4883877267
4883884714
4883889718
4883896066
4883902414
4883907052
4883912851
4883919320
4883924997
4883932138
4883938119
4883944101
4883948800
4883955270
4883961007
4883967355
4883972543
4883979013
4883984140
4883990609
4883995736
4884002389
4884008859
4884015328
4884020455
4884030709
4884035226
4884043466
4884048592
4884055550
4884060555
4884065987
4884073006
4884078072
4884083443
4884088692
4884094613
4884102120
4884107980
4884113229
4884120064
4884125313
4884129891
4884138375
4884143014
4884148751
4884156197
4884161568
4884168221
4884174080
4884181099
4884187203
4884193795
4884199898
4884206612
4884211190
4884217720
4884222786
4884229195
4884234383
4884240975
4884246468
4884254158
4884259713
4884265206
4884272957
4884277352
4884284066
4884289925
4884294503
4884300667
4884307747
4884313301
4884318672
4884325447
4884330574
4884334908
4884340645
4884347664
4884354317
4884361092
4884366402
4884371773
4884377815
4884383675
4884390694
4884396370
4884402840
4884406746
4884413643
4884419258
4884424934
4884431831
4884437324
4884446846
4884453438
4884460762
4884466438
4884473762
4884479255
4884485542
4884490181
4884495613
4884502632
4884507759
4884514106
4884519966
4884526436
4884531685
4884536506
4884543586
4884550788
4884555244
4884561225
4884567939
4884573371
4884577827
4884584663
4884590705
4884597541
4884603095
4884608833
4884614875
4884620918
4884625251
4884633186
4884637885
4884643562
4884650276
4884656379
4884661994
4884666938
4884677985
4884683784
4884689582
4884696052
4884702644
4884708991
4884714484
4884721686
4884726691
4884733283
4884739875
4884744391
4884750800
4884757209
4884761909
4884768928
4884774970
4884781684
4884787848
4884791999
4884798346
4884804633
4884809516
4884814887
4884821723
4884827033
4884832831
4884838141
4884843940
4884850959
4884857733
4884863715
4884869086
4884874518
4884880133
4884885993
4884890570
4884897345
4884903754
4884909735
4884916876
4884922247
4884928046
4884932929
4884938117
4884946295
4884951788
4884957770
4884962103
4884969244
4884974860
4884979926
4884986700
4884992194
4884997137
4885003851
4885008856
4885014716
4885019720
4885026129
4885032538
4885036871
4885043646
4885049322
4885053900
4885059515
4885064764
4885072149
4885077704
4885082647
4885088507
4885093939
4885100653
4885106695
4885111029
4885118536
4885123724
4885130316
4885134649
4885141912
4885147345
4885153265
4885158575
4885165045
4885171270
4885176641
4885181768
4885187445
4885192633
4885199468
4885205938
4885213873
4885219732
4885225958
4885231634
4885237188
4885242498
4885249883
4885254034
4885261541
4885267034
4885273809
4885278753
4885284307
4885289312
4885295782
4885301824
4885307745
4885313360
4885319158
4885325262
4885329656
4885335638
4885341680
4885346685
4885352483
4885358098
4885363286
4885370183
4885375921
4885381536
4885386785
4885392766
4885398565
4885405095
4885410955
4885417608
4885422857
4885427434
4885435369
4885440374
4885446843
4885452153
4885458928
4885464788
4885470769
4885475896
4885480474
4885485784
4885492253
4885498601
4885504949
4885509282
4885515630
4885521489
4885527471
4885532231
4885538945
4885544560
4885550053
4885557073
4885562871
4885569035
4885574529
4885580144
4885584172
4885590764
4885596684
4885602788
4885608586
4885614934
4885619939
4885625737
4885631169
4885638676
4885644292
4885649418
4885655766
4885659916
4885666081
4885671025
4885677556
4885683903
4885689885
4885694523
4885699589
4885706242
4885711308
4885717839
4885725163
4885730412
4885734501
4885741276
4885747441
4885753056
4885759220
4885766239
4885771672
4885777836
4885783451
4885788883
4885795353
4885800297
4885806217
4885812199
4885817204
4885821659
4885826115
4885830265
4885834721
4885839237
4885844486
4885849003
4885852848
4885857609
4885862186
4885866764
4885871159
4885875797
4885881107
4885884037
4885889347
4885893925
4885898197
4885902897
4885908146
4885911930
4885914249
4885920597
4885925968
4885929264
4885934452
4885938846
4885944401
4885949894
4885954288
4885959476
4885963688
4885967533
4885973148
4885977909
4885981754
4885987919
4885992435
4885997257
4886001957
4886007206
4886011661
4886017093
4886021610
4886025211
4886030521
4886035221
4886041629
4886046939
4886051761
4886056217
4886060611
4886065128
4886070255
4886073795
4886078922
4886084537
4886088016
4886093326
4886098331
4886102786
4886107913
4886114383
4886118289
4886122440
4886127261
4886132938
4886136600
4886141422
4886145877
4886151431
4886156131
4886161075
4886165775
4886170474
4886173831
4886179568
4886185245
4886189578
4886196475
4886201297
4886206912
4886211307
4886217593
4886222537
4886227054
4886231509
4886237002
4886241946
4886246829
4886251712
4886257388
4886261050
4886265872
4886269229
4886274722
4886279605
4886283145
4886286502
4886292727
4886296084
4886302615
4886307864
4886312198
4886317569
4886321963
4886327334
4886333560
4886337832
4886342227
4886348941
4886353823
4886358889
4886363284
4886367434
4886374026
4886378237
4886382266
4886388003
4886392642
4886397158
4886401614
4886407168
4886413210
4886417361
4886422000
4886427981
4886433474
4886438784
4886443484
4886449587
4886454897
4886461672
4886466616
4886470889
4886475832
4886481753
4886486391
4886491701
4886497988
4886504153
4886508547
4886514040
4886518496
4886523012
4886528689
4886533266
4886537966
4886545168
4886550051
4886556032
4886561953
4886569582
4886575564
4886581362
4886587587
4886593935
4886599978
4886605410
4886612978
4886617678
4886623232
4886630495
4886637941
4886643923
4886650942
4886656252
4886661501
4886668581
4886673952
4886680178
4886686769
4886692140
4886699831
4886705873
4886712892
4886719240
4886726198
4886732851
4886738954
4886749391
4886754518
4886763368
4886771974
4886779237
4886786317
4886791689
4886795778
4886802248
4886807924
4886813173
4886817506
4886823793
4886827333
4886835634
4886840333
4886846193
4886851564
4886855836
4886862733
4886868593
4886873170
4886881471
4886888185
4886892946
4886899537
4886904725
4886909425
4886918580
4886922975
4886929017
4886935792
4886941163
4886947084
4886951905
4886957826
4886964906
4886972474
4886976747
4886982362
4886989991
4886995423
4887000611
4887005799
4887012269
4887017945
4887024476
4887028932
4887034791
4887041200
4887046510
4887053346
4887057679
4887064454
4887068848
4887075867
4887080811
4887087891
4887093507
4887098939
4887105653
4887111695
4887115784
4887122437
4887127625
4887135316
4887139344
4887146119
4887151734
4887156983
4887160767
4887168091
4887172364
4887178956
4887186036
4887190552
4887195008
4887199463
4887207337
4887212342
4887219483
4887224305
4887231079
4887235840
4887242432
4887248413
4887255310
4887260559
4887266785
4887272400
4887277405
4887284302
4887290039
4887295044
4887299927
4887305481
4887311829
4887317200
4887323853
4887330261
4887337769
4887343506
4887347839
4887356934
4887364807
4887370605
4887377686
4887382446
4887388367
4887393127
4887398437
4887403992
4887409607
4887415649
4887421997
4887426147
4887431640
4887437561
4887444336
4887448547
4887454162
4887459839
4887465393
4887471435
4887476745
4887482483
4887489258
4887494445
4887500000
4887504516
4887512512
4887518798
4887524353
4887528442
4887534423
4887538757
4887548828
4887555114
4887561950
4887567321
4887571716
4887579223
4887586059
4887592529
4887599182
4887604675
4887609252
4887615905
4887621154
4887627685
4887633117
4887640685
4887647582
4887653381
4887659972
4887666808
4887673949
4887679321
4887685973
4887691283
4887697387
4887703063
4887708984
4887715026
4887721740
4887726378
4887731628
4887738158
4887742126
4887749694
4887755980
4887760619
4887766356
4887773436
4887779967
4887784362
4887790465
4887796752
4887801329
4887808287
4887813659
4887820739
4887826537
4887833434
4887838744
4887843444
4887852965
4887854979
4887864134
4887868407
4887875670
4887880065
4887886534
4887890807
4887902342
4887908751
4887915099
4887921935
4887929137
4887935362
4887944029
4887950011
4887955626
4887964781
4887972533
4887978270
4887985350
4887992613
4887998961
4888003050
4888009276
4888013121
4888020201
4888024412
4888034788
4888040037
4888045592
4888051451
4888057982
4888063536
4888068480
4888075560
4888080809
4888087217
4888092527
4888097349
4888102598
4888107542
4888112913
4888118467
4888125792
4888132505
4888138304
4888143431
4888148497
4888154722
4888160093
4888164244
4888169920
4888176206
4888181333
4888188658
4888194273
4888200620
4888205625
4888211485
4888217161
4888223142
4888227964
4888232969
4888238096
4888244749
4888249632
4888253599
4888262632
4888266782
4888272886
4888278928
4888284055
4888288267
4888297300
4888303037
4888308347
4888315244
4888320432
4888324155
4888331296
4888336973
4888343748
4888348997
4888354612
4888361326
4888367002
4888372129
4888378660
4888383298
4888387998
4888395078
4888400998
4888406614
4888412595
4888417905
4888424497
4888429563
4888435544
4888441953
4888447019
4888452024
4888459897
4888466611
4888472104
4888476743
4888481504
4888488400
4888494748
4888499265
4888505612
4888511472
4888516171
4888522458
4888529233
4888536679
4888543515
4888548276
4888556638
4888561032
4888567685
4888573483
4888580746
4888586972
4888592587
4888596982
4888603635
4888609067
4888614133
4888618405
4888624875
4888629635
4888635556
4888640805
4888646298
4888653317
4888658444
4888664425
4888670590
4888675473
4888679989
4888687558
4888693600
4888699826
4888704281
4888710995
4888716305
4888723080
4888728939
4888734066
4888738034
4888746640
4888752438
4888759213
4888763180
4888770382
4888776669
4888783077
4888788204
4888793087
4888800045
4888805538
4888810726
4888817379
4888821896
4888828243
4888835384
4888839840
4888846615
4888850826
4888857540
4888861629
4888869869
4888873592
4888879208
4888884090
4888890865
4888897152
4888903255
4888908199
4888914303
4888918880
4888925228
4888932369
4888936947
4888944698
4888949154
4888955196
4888959713
4888966488
4888973018
4888977840
4888983089
4888990719
4888997982
4889003719
4889009945
4889019222
4889025570
4889032222
4889038204
4889043575
4889050411
4889057857
4889061702
4889068416
4889074153
4889080867
4889085811
4889090511
4889098934
4889104488
4889111812
4889116756
4889123409
4889128352
4889137386
4889140315
4889151790
4889160152
4889165340
4889171870
4889178767
4889186580
4889192439
4889197688
4889205562
4889212703
4889217708
4889222652
4889226924
4889233516
4889237788
4889243464
4889248958
4889256160
4889261226
4889266475
4889270686
4889274836
4889281123
4889288813
4889296077
4889303584
4889309321
4889316523
4889322505
4889327021
4889333491
4889338557
4889347041
4889352290
4889358149
4889362239
4889368464
4889373164
4889380488
4889385066
4889391535
4889398554
4889404658
4889410761
4889416255
4889421870
4889427668
4889433955
4889439692
4889444880
4889451777
4889457148
4889462885
4889469965
4889475397
4889482783
4889487910
4889494562
4889499018
4889507136
4889512324
4889519465
4889525568
4889530573
4889537348
4889545099
4889551386
4889556696
4889562006
4889568903
4889574823
4889580256
4889587702
4889592585
4889599665
4889606562
4889611444
4889617670
4889624567
4889629267
4889636164
4889640863
4889648432
4889655146
4889660944
4889667047
4889671991
4889678217
4889685053
4889691156
4889696771
4889703974
4889710077
4889714838
4889721918
4889728815
4889733209
4889740350
4889744989
4889752924
4889757990
4889765497
4889771783
4889777826
4889784662
4889792291
4889796747
4889808588
4889816156
4889822015
4889827264
4889837213
4889841974
4889846734
4889851495
4889856805
4889861993
4889866205
4889870782
4889877130
4889881768
4889888726
4889893426
4889899835
4889905267
4889910272
4889914727
4889919000
4889925164
4889930169
4889935662
4889941644
4889948236
4889953729
4889960015
4889966729
4889971490
4889977654
4889981683
4889986688
4889992425
4889998528
4890002374
4890009637
4890016168
4890022088
4890028008
4890032708
4890039910
4890044732
4890050164
4890055535
4890061822
4890066705
4890071404
4890076470
4890084466
4890090386
4890095452
4890101922
4890107842
4890112542
4890117791
4890122674
4890128289
4890133843
4890140191
4890146172
4890149712
4890156731
4890162713
4890170708
4890175957
4890183220
4890188469
4890194207
4890200493
4890205864
4890210564
4890217156
4890222832
4890229607
4890234124
4890241387
4890246514
4890251030
4890260674
4890265434
4890273430
4890278923
4890285088
4890289421
4890295952
4890301140
4890305718
4890310356
4890317558
4890323662
4890331780
4890335869
4890344231
4890351067
4890356743
4890362480
4890372063
4890381401
4890387260
4890393181
4890401115
4890408195
4890413689
4890418754
4890427421
4890435966
4890442009
4890445732
4890452690
4890458305
4890463920
4890468254
4890474174
4890480034
4890486259
4890491020
4890496574
4890501518
4890506218
4890510795
4890516960
4890524101
4890530082
4890535270
4890542167
4890546684
4890550773
4890557609
4890562431
4890568839
4890573356
4890581535
4890585990
4890592643
4890596916
4890603385
4890610038
4890616264
4890622916
4890627921
4890634147
4890640617
4890646476
4890655814
4890660758
4890668693
4890674186
4890680961
4890685294
4890691459
4890698600
4890706046
4890712211
4890718009
4890724723
4890729545
4890735038
4890739066
4890743094
4890750785
4890754935
4890761649
4890768302
4890773246
4890779166
4890783561
4890790335
4890794852
4890800345
4890805045
4890810599
4890816031
4890821280
4890826285
4890831534
4890837882
4890843558
4890850272
4890858634
4890865714
4890870780
4890875907
4890881461
4890888480
4890893118
4890898367
4890903067
4890909720
4890914114
4890920767
4890925101
4890930594
4890935782
4890941214
4890945181
4890951102
4890957388
4890960867
4890968253
4890978018
4890983694
4890991507
4890999625
4891005179
4891012686
4891019949
4891026602
4891031485
4891037283
4891042593
4891048025
4891051809
4891057730
4891062185
4891068533
4891072744
4891080984
4891085501
4891090994
4891095877
4891104361
4891111013
4891117056
4891123465
4891131521
4891137564
4891144338
4891149771
4891155569
4891161489
4891168691
4891175222
4891181631
4891187490
4891193289
4891197988
4891203787
4891208730
4891213491
4891219412
4891224538
4891228506
4891234609
4891240835
4891248525
4891254812
4891260793
4891266042
4891271535
4891277822
4891283071
4891289175
4891293264
4891299184
4891306081
4891311880
4891316762
4891322561
4891327260
4891331106
4891340688
4891347097
4891354299
4891359548
4891364370
4891371022
4891375661
4891379750
4891386159
4891392751
4891397451
4891404164
4891409536
4891415822
4891420278
4891426015
4891430165
4891435598
4891441945
4891447072
4891453054
4891459401
4891466237
4891469960
4891476369
4891482289
4891488088
4891494191
4891500295
4891507253
4891511830
4891516469
4891524281
4891530141
4891535085
4891543141
4891548878
4891555775
4891561452
4891567738
4891576100
4891581410
4891587819
4891593800
4891599354
4891604848
4891610707
4891616688
4891622059
4891628285
4891632618
4891640004
4891644703
4891652028
4891656605
4891663502
4891667836
4891674366
4891680470
4891686085
4891691517
4891696278
4891702626
4891709034
4891714100
4891719044
4891727528
4891733265
4891737904
4891744190
4891748890
4891755909
4891761341
4891767872
4891773792
4891778309
4891783741
4891790455
4891797047
4891800831
4891809010
4891813038
4891818897
4891825672
4891832203
4891838429
4891844471
4891849110
4891854786
4891859852
4891866810
4891873585
4891879322
4891883839
4891888599
4891895496
4891901661
4891906849
4891913196
4891922413
4891928699
4891934376
4891940601
4891946705
4891952320
4891957386
4891963428
4891970630
4891976612
4891981922
4891985889
4891993213
4891997303
4892003589
4892007556
4892016529
4892023304
4892029102
4892035572
4892041309
4892046863
4892051502
4892058338
4892064075
4892071826
4892077381
4892082263
4892087940
4892093494
4892099292
4892105518
4892114612
4892120349
4892127246
4892131335
4892139026
4892145984
4892151050
4892159717
4892164783
4892174670
4892180408
4892186633
4892190967
4892195788
4892201953
4892207141
4892212817
4892216296
4892222766
4892227893
4892232898
4892237964
4892243823
4892249865
4892255725
4892260425
4892266284
4892271838
4892277331
4892283068
4892289843
4892295825
4892302539
4892308459
4892314440
4892320239
4892324755
4892329821
4892337695
4892344958
4892353503
4892358569
4892364428
4892370288
4892376452
4892380236
4892387560
4892393664
4892399035
4892403857
4892410265
4892415698
4892421984
4892426806
4892432238
4892442248
4892448229
4892453234
4892459704
4892465685
4892470873
4892475573
4892483019
4892489367
4892496081
4892500048
4892507372
4892511095
4892517321
4892520861
4892530626
4892536547
4892542528
4892546984
4892551561
4892557726
4892562304
4892568224
4892576098
4892583666
4892589342
4892594713
4892600756
4892604845
4892611193
4892615892
4892623888
4892628832
4892633776
4892638414
4892644701
4892649278
4892654955
4892661180
4892668321
4892673815
4892679125
4892685961
4892692491
4892697069
4892704515
4892714403
4892722459
4892727831
4892734666
4892740648
4892746446
4892752183
4892759264
4892765916
4892772325
4892777147
4892782213
4892786668
4892791246
4892799364
4892805101
4892810472
4892816026
4892822130
4892827684
4892833299
4892838914
4892844713
4892850145
4892857774
4892863267
4892870347
4892876207
4892881211
4892886094
4892892503
4892897630
4892904405
4892909104
4892915147
4892920091
4892925523
4892932542
4892937486
4892942491
4892949754
4892954270
4892959825
4892965745
4892971848
4892976609
4892982163
4892988450
4892994798
4893001267
4893005418
4893011643
4893017197
4893021958
4893027268
4893035752
4893041734
4893048142
4893052109
4893058335
4893063523
4893069138
4893072922
4893080125
4893085496
4893093186
4893098008
4893102585
4893109849
4893115159
4893120713
4893126694
4893134812
4893140122
4893144150
4893149094
4893154587
4893159592
4893164780
4893170823
4893177109
4893183274
4893187729
4893194382
4893198532
4893205002
4893211838
4893218369
4893223374
4893229538
4893234543
4893240097
4893245346
4893252487
4893257981
4893266159
4893272141
4893277634
4893284348
4893291428
4893296188
4893306442
4893313400
4893319016
4893326767
4893333054
4893338974
4893343674
4893349472
4893356064
4893361008
4893366684
4893371078
4893376877
4893382187
4893386764
4893394089
4893400680
4893406601
4893412704
4893419174
4893423691
4893429245
4893435775
4893439987
4893446823
4893450973
4893457687
4893463363
4893467514
4893472641
4893478683
4893484787
4893490585
4893496383
4893501632
4893507186
4893513412
4893519393
4893524642
4893529403
4893535873
4893540756
4893548324
4893552535
4893560470
4893565353
4893569869
4893575973
4893582137
4893587264
4893594466
4893598800
4893605758
4893610214
4893615768
4893622237
4893626449
4893634994
4893639205
4893645919
4893651351
4893657638
4893663253
4893668136
4893673629
4893680038
4893686507
4893692489
4893698470
4893702987
4893707931
4893713668
4893720138
4893726180
4893733321
4893740645
4893746200
4893752730
4893757857
4893763045
4893769271
4893773726
4893781844
4893787642
4893792098
4893796553
4893804915
4893809371
4893816268
4893823592
4893830062
4893837508
4893843672
4893849471
4893856368
4893862227
4893869734
4893875533
4893880538
4893894148
4893899947
4893907942
4893914046
4893921553
4893927657
4893934554
4893940657
4893948714
4893955427
4893961531
4893966048
4893971052
4893975569
4893983320
4893990278
4893996992
4894002424
4894007063
4894011946
4894018233
4894023726
4894031233
4894037092
4894042463
4894047224
4894053694
4894058577
4894065107
4894070723
4894077375
4894083479
4894090132
4894095015
4894099531
4894105329
4894111860
4894116682
4894121321
4894130903
4894137678
4894143659
4894147810
4894153730
4894159590
4894166181
4894171797
4894176557
4894182783
4894188886
4894193830
4894200544
4894206220
4894211103
4894217512
4894222273
4894228925
4894235334
4894240278
4894245588
4894250104
4894256940
4894262067
4894268598
4894273664
4894278120
4894285322
4894289594
4894296491
4894301069
4894308698
4894313459
4894321943
4894327619
4894334699
4894341047
4894345746
4894351300
4894356122
4894362836
4894368390
4894375104
4894380414
4894384992
4894390119
4894395124
4894400251
4894406110
4894413556
4894418561
4894425763
4894430585
4894436933
4894441571
4894447919
4894455853
4894461469
4894466229
4894473920
4894479840
4894485028
4894492474
4894497235
4894509686
4894515912
4894523053
4894529034
4894534405
4894539593
4894546979
4894551617
4894557416
4894563580
4894569440
4894574444
4894580304
4894585187
4894591778
4894596478
4894602398
4894608563
4894613446
4894619122
4894625104
4894631939
4894636151
4894644207
4894650128
4894655499
4894661175
4894665997
4894671551
4894677777
4894683697
4894689556
4894694989
4894700665
4894706707
4894713055
4894716900
4894724346
4894729229
4894733746
4894741802
4894747540
4894751812
4894755963
4894762982
4894767437
4894774578
4894779644
4894786175
4894791668
4894797772
4894803875
4894809856
4894813702
4894820538
4894825420
4894832867
4894838543
4894842998
4894847820
4894855389
4894860943
4894865887
4894870403
4894876934
4894881878
4894886028
4894893169
4894899212
4894905742
4894910198
4894915630
4894921123
4894929058
4894933635
4894940471
4894946636
4894953350
4894959392
4894966289
4894972698
4894977703
4894983745
4894989421
4894993450
4894999919
4895004131
4895011272
4895015789
4895022563
4895026775
4895034343
4895038494
4895045146
4895049358
4895056316
4895062297
4895075725
4895085735
4895094829
4895100322
4895109111
4895115398
4895122844
4895130717
4895135722
4895142680
4895148723
4895154094
4895158122
4895163920
4895169292
4895176433
4895181560
4895186320
4895191142
4895195842
4895199260
4895205607
4895211772
4895215800
4895221476
4895225505
4895231730
4895235698
4895239299
4895247355
4895253947
4895260051
4895265117
4895269511
4895275004
4895278971
4895284465
4895290995
4895297343
4895301982
4895307292
4895311930
4895318339
4895322917
4895327189
4895333354
4895339762
4895344767
4895351664
4895357035
4895361796
4895366496
4895375163
4895381266
4895388285
4895392985
4895399516
4895404948
4895409098
4895413737
4895420756
4895425944
4895433756
4895439677
4895444620
4895449930
4895456156
4895461832
4895466715
4895474589
4895480387
4895486063
4895491923
4895497538
4895502787
4895508280
4895513224
4895521769
4895527811
4895533732
4895538858
4895544535
4895550638
4895554117
4895561502
4895567423
4895574503
4895580240
4895584879
4895590494
4895596170
4895601480
4895606790
4895611917
4895619730
4895625589
4895631937
4895641275
4895649698
4895655557
4895662699
4895668314
4895676859
4895681497
4895691751
4895696146
4895703165
4895708170
4895712442
4895718362
4895724344
4895730325
4895736917
4895743570
4895749368
4895756509
4895763040
4895768533
4895774393
4895781351
4895785928
4895793924
4895798013
4895803811
4895808877
4895814309
4895819986
4895824991
4895829995
4895837381
4895842630
4895849221
4895854409
4895859903
4895864053
4895870218
4895875589
4895881448
4895887246
4895893472
4895898904
4895904885
4895908914
4895915933
4895921548
4895926675
4895932839
4895938516
4895943887
4895950112
4895955667
4895961099
4895966531
4895972939
4895978799
4895984780
4895988320
4895994912
4896000466
4896006020
4896010903
4896017800
4896023598
4896029885
4896034829
4896040871
4896045937
4896051369
4896057290
4896063088
4896068337
4896075173
4896080178
4896085854
4896091897
4896096840
4896101296
4896107949
4896116799
4896122170
4896126626
4896133645
4896138039
4896142006
4896148964
4896153054
4896162575
4896171975
4896177590
4896184365
4896191872
4896198769
4896206887
4896212868
4896222389
4896228798
4896241921
4896251198
4896261818
4896279152
4896289040
4896296242
4896306374
4896313576
4896319618
4896329262
4896335243
4896342262
4896348549
4896355812
4896360573
4896365883
4896372475
4896377235
4896382118
4896389564
4896395485
4896401039
4896405861
4896413063
4896418556
4896423378
4896428016
4896434791
4896439430
4896446998
4896452675
4896457740
4896462806
4896467445
4896472328
4896479530
4896484901
4896491859
4896496131
4896503211
4896507362
4896512855
4896518226
4896526283
4896532264
