4833305619
4833312822
4833317338
4833322404
4833327409
4833332414
4833337174
4833341630
4833346269
4833351518
4833355485
4833360124
4833365556
4833371049
4833375504
4833382157
4833386979
4833391679
4833396806
4833402299
4833407609
4833413102
4833417252
4833422929
4833429765
4833435685
4833441239
4833447465
4833454118
4833459855
4833465775
4833472977
4833479020
4833485001
4833493058
4833499772
4833506608
4833510880
4833518754
4833525528
4833532486
4833540360
4833547013
4833554154
4833562699
4833568192
4833576371
4833584061
4833591751
4833599137
4833605118
4833612076
4833619339
4833627274
4833633560
4833639359
4833647354
4833653824
4833661270
4833668839
4833675003
4833680740
4833689468
4833696488
4833704727
4833711624
4833720657
4833727798
4833731949
4833743607
4833752518
4833759903
4833767532
4833774246
4833782608
4833790603
4833797928
4833805618
4833813736
4833821121
4833828872
4833836868
4833844314
4833853347
4833860733
4833868606
4833875808
4833879959
4833890518
4833899246
4833907180
4833915664
4833922927
4833930068
4833938125
4833945144
4833953140
4833958450
4833968459
4833975295
4833982620
4833988662
4833998916
4834006850
4834015945
4834025222
4834034316
4834045303
4834052016
4834060927
4834068801
4834075454
4834082900
4834090652
4834098281
4834105910
4834114211
4834120620
4834127334
4834136367
4834144362
4834151381
4834158583
4834165297
4834174941
4834183852
4834192214
4834199538
4834208327
4834215285
4834223769
4834229689
4834239882
4834245986
4834254836
4834263014
4834270094
4834279677
4834286086
4834295424
4834300246
4834310622
4834316359
4834325209
4834333205
4834341505
4834348708
4834354689
4834363417
4834371779
4834379408
4834386549
4834392592
4834401381
4834409132
4834417677
4834422316
4834432814
4834439161
4834449049
4834455580
4834463087
4834469923
4834478529
4834484877
4834490004
4834500074
4834508863
4834514967
4834522657
4834530897
4834537123
4834545423
4834552564
4834561781
4834570326
4834577467
4834583448
4834592237
4834599500
4834609449
4834617872
4834623975
4834633375
4834639844
4834647108
4834656324
4834664381
4834673414
4834680006
4834689344
4834695569
4834704358
4834713758
4834721265
4834732007
4834740857
4834749280
4834755811
4834763807
4834771741
4834782422
4834787610
4834797986
4834807019
4834814527
4834822522
4834828809
4834836865
4834847180
4834853101
4834860242
4834870679
4834877149
4834885938
4834894971
4834903272
4834911877
4834919141
4834928601
4834936291
4834943982
4834951977
4834957898
4834968091
4834975964
4834986340
4834995617
4835004712
4835012890
4835023633
4835031506
4835038342
4835045788
4835052624
4835061108
4835068127
4835079663
4835082653
4835095349
4835104016
4835110302
4835119519
4835125439
4835133068
4835141796
4835149792
4835156506
4835164318
4835170361
4835178600
4835186962
4835195568
4835202648
4835211254
4835218639
4835227856
4835236156
4835243908
4835251049
4835258251
4835264843
4835274547
4835282055
4835288463
4835296093
4835305126
4835310192
4835320080
4835326244
4835337963
4835344249
4835354747
4835363231
4835369762
4835378002
4835386608
4835394298
4835401439
4835408702
4835415966
4835423778
4835430553
4835437328
4835446117
4835453441
4835459911
4835468273
4835474803
4835482860
4835489757
4835496959
4835504161
4835511180
4835518932
4835525645
4835533153
4835539561
4835546336
4835555125
4835562266
4835569163
4835576488
4835584117
4835591868
4835600657
4835606700
4835615855
4835621592
4835630076
4835637950
4835644420
4835652476
4835660777
4835667369
4835677195
4835684520
4835693309
4835698374
4835706858
4835712107
4835721751
4835730296
4835738597
4835745799
4835754038
4835762339
4835768443
4835778025
4835785899
4835793650
4835800669
4835809397
4835816965
4835825693
4835831980
4835841196
4835852061
4835857432
4835864695
4835871287
4835876902
4835883066
4835890024
4835896433
4835901743
4835908518
4835914866
4835921946
4835928721
4835936106
4835943979
4835950998
4835957773
4835962778
4835970774
4835975901
4835983896
4835988962
4835997385
4836003000
4836012400
4836018869
4836025339
4836031259
4836036630
4836044504
4836050363
4836054331
4836062143
4836066904
4836072885
4836078745
4836086008
4836092783
4836097482
4836104562
4836109323
4836116098
4836121957
4836128305
4836133920
4836139474
4836146249
4836150583
4836157175
4836163339
4836169015
4836175546
4836181711
4836187387
4836193307
4836198495
4836204355
4836210458
4836216012
4836222909
4836229074
4836234140
4836240548
4836246835
4836251474
4836258187
4836271920
4836278207
4836283395
4836290048
4836295236
4836301828
4836309152
4836315682
4836319711
4836326303
4836333077
4836337289
4836343881
4836349984
4836355599
4836361886
4836367806
4836372506
4836378854
4836385445
4836391061
4836398629
4836402963
4836410226
4836416451
4836421700
4836426217
4836433236
4836440804
4836446175
4836452279
4836457894
4836463875
4836469369
4836475594
4836482552
4836487252
4836495186
4836500252
4836507149
4836513985
4836520699
4836525521
4836532235
4836538704
4836547615
4836554085
4836559517
4836567147
4836574105
4836579598
4836585762
4836591683
4836597176
4836602730
4836609383
4836614205
4836621529
4836626534
4836632759
4836637581
4836644112
4836649483
4836655586
4836661385
4836668160
4836673592
4836679573
4836685371
4836691292
4836697090
4836704231
4836710213
4836715401
4836721626
4836727058
4836732735
4836738167
4836744270
4836750740
4836756599
4836763069
4836767708
4836774299
4836780342
4836785896
4836793587
4836799385
4836804695
4836810005
4836816902
4836822822
4836828376
4836834114
4836840095
4836846077
4836852363
4836857002
4836863533
4836868232
4836875007
4836882209
4836888252
4836894416
4836899971
4836906623
4836912605
4836918708
4836923896
4836930732
4836935981
4836941963
4836948188
4836954231
4836960273
4836966316
4836973579
4836977851
4836984687
4836989875
4836997382
4837001777
4837008186
4837013923
4837019416
4837026984
4837031989
4837038276
4837047980
4837054389
4837061103
4837066779
4837073859
4837079902
4837085639
4837091742
4837100470
4837106757
4837113471
4837120368
4837126655
4837133002
4837140082
4837145392
4837152167
4837156867
4837162909
4837169501
4837175055
4837180426
4837186103
4837192877
4837198615
4837205023
4837209235
4837216071
4837220404
4837227301
4837233710
4837240058
4837245307
4837250678
4837255255
4837262946
4837268927
4837274603
4837281256
4837285529
4837292242
4837298285
4837303534
4837310004
4837316534
4837321783
4837327338
4837332709
4837340094
4837346014
4837351813
4837357123
4837363226
4837370245
4837374457
4837381109
4837387335
4837393927
4837399115
4837406439
4837411810
4837417975
4837423712
4837429632
4837435797
4837442755
4837448248
4837454351
4837460882
4837465521
4837472601
4837477667
4837484747
4837489996
4837495611
4837501715
4837508856
4837514776
4837520147
4837525579
4837531500
4837536566
4837542791
4837548895
4837555120
4837560858
4837565374
4837572881
4837578985
4837583074
4837590582
4837597234
4837602789
4837610418
4837615728
4837622930
4837629034
4837635137
4837641180
4837649236
4837653997
4837661626
4837668096
4837674322
4837679693
4837685918
4837690496
4837698858
4837703313
4837709966
4837715947
4837721563
4837728399
4837735296
4837741460
4837747564
4837753118
4837757817
4837764653
4837769780
4837776128
4837782842
4837789861
4837795842
4837801213
4837806706
4837812444
4837820012
4837826543
4837832463
4837837163
4837843205
4837847966
4837854558
4837859563
4837866887
4837872136
4837878484
4837884282
4837890080
4837896062
4837903447
4837909306
4837913945
4837920171
4837924870
4837932011
4837937810
4837944218
4837950444
4837955998
4837961674
4837967595
4837974431
4837978825
4837986271
4837991398
4837997624
4838002263
4838009526
4838015019
4838020756
4838028386
4838033940
4838040104
4838046269
4838053288
4838056523
4838064885
4838070622
4838077030
4838083134
4838088017
4838094792
4838099980
4838106571
4838112492
4838119389
4838125736
4838130314
4838137089
4838142216
4838147892
4838155827
4838166569
4838171757
4838176701
4838185123
4838190922
4838196659
4838202579
4838209049
4838216129
4838223514
4838231632
4838237858
4838244511
4838249576
4838254948
4838261478
4838267277
4838272770
4838279484
4838284122
4838290958
4838296818
4838303470
4838309269
4838314579
4838320316
4838325870
4838331058
4838336246
4838343265
4838346500
4838354862
4838360416
4838365970
4838371341
4838377079
4838383487
4838388614
4838394901
4838400577
4838406070
4838411624
4838416751
4838424198
4838427738
4838435855
4838441715
4838445621
4838453372
4838459415
4838465335
4838472781
4838477908
4838482669
4838489444
4838493716
4838500613
4838506961
4838512515
4838518008
4838522769
4838529544
4838537051
4838541812
4838548892
4838552493
4838560000
4838566287
4838574161
4838578372
4838584537
4838589358
4838596194
4838602298
4838609500
4838615237
4838621829
4838626162
4838633731
4838638797
4838643679
4838650576
4838656436
4838662905
4838669986
4838675418
4838681521
4838687319
4838694400
4838700198
4838706423
4838711428
4838719180
4838725466
4838730959
4838737795
4838743533
4838749880
4838754946
4838761111
4838767031
4838773867
4838779360
4838784121
4838791811
4838796999
4838801882
4838807253
4838813296
4838819460
4838823489
4838831301
4838836489
4838841494
4838847842
4838853823
4838859560
4838864382
4838871706
4838876406
4838882754
4838889040
4838893862
4838900332
4838905886
4838911257
4838916262
4838922548
4838928957
4838936159
4838942202
4838948915
4838953005
4838960207
4838964601
4838971254
4838978334
4838983705
4838990541
4838995668
4839001284
4839008119
4839012514
4839019472
4839024721
4839030275
4839036684
4839042726
4839047853
4839056032
4839062502
4839067873
4839073061
4839079897
4839085207
4839091737
4839097353
4839100710
4839107851
4839114931
4839119752
4839126283
4839131288
4839136415
4839143495
4839148622
4839153383
4839160097
4839166444
4839171998
4839178102
4839185792
4839191591
4839197694
4839204774
4839212709
4839218446
4839226503
4839234010
4839239503
4839245057
4839250245
4839257569
4839262574
4839268129
4839274781
4839279908
4839286317
4839292665
4839298036
4839305055
4839312074
4839317567
4839324037
4839328553
4839335877
4839341737
4839347169
4839354371
4839359132
4839365601
4839371034
4839376405
4839382569
4839388001
4839394410
4839399110
4839405274
4839411134
4839416749
4839422913
4839427857
4839434205
4839440186
4839445130
4839451966
4839457581
4839463135
4839469666
4839473816
4839480897
4839487122
4839493470
4839498841
4839503418
4839509949
4839515320
4839522583
4839527832
4839532349
4839539185
4839545227
4839550110
4839557618
4839563782
4839569702
4839574951
4839580078
4839585816
4839590943
4839597534
4839604187
4839609375
4839614380
4839620362
4839624451
4839631409
4839638428
4839642395
4839650208
4839655335
4839662476
4839667053
4839673889
4839680237
4839685608
4839693970
4839704651
4839709045
4839716797
4839723328
4839728088
4839734741
4839738525
4839744629
4839749878
4839755371
4839762024
4839767944
4839774109
4839779114
4839786804
4839792846
4839799560
4839805053
4839809570
4839817749
4839824096
4839830871
4839836914
4839842956
4839847900
4839854187
4839861755
4839866027
4839872741
4839880493
4839885131
4839891113
4839895935
4839903381
4839910583
4839915405
4839921325
4839926940
4839932922
4839939941
4839945129
4839951782
4839958190
4839964843
4839969604
4839974426
4839981750
4839987243
4839993163
4840000243
4840003478
4840010558
4840017333
4840022094
4840029357
4840036498
4840042602
4840047484
4840052611
4840059569
4840066039
4840072875
4840079772
4840085753
4840091308
4840096312
4840101012
4840114135
4840119017
4840126403
4840132445
4840138915
4840145018
4840155883
4840162169
4840167418
4840172972
4840179930
4840187926
4840194091
4840202880
4840207518
4840215331
4840222838
4840229308
4840234801
4840240843
4840247069
4840252745
4840258360
4840263731
4840269103
4840275511
4840281920
4840286681
4840291991
4840297240
4840304381
4840309264
4840316038
4840322813
4840329222
4840335325
4840342711
4840348143
4840354124
4840360045
4840366331
4840372801
4840377928
4840386229
4840392210
4840398802
4840404844
4840411131
4840416624
4840424681
4840429197
4840435728
4840441832
4840447203
4840453245
4840458799
4840464720
4840469602
4840476866
4840481932
4840487608
4840493406
4840497984
4840505857
4840510557
4840518186
4840523802
4840529417
4840535703
4840541929
4840546873
4840553281
4840559873
4840565183
4840573362
4840580198
4840586912
4840592588
4840598020
4840603879
4840608823
4840616758
4840622190
4840628355
4840635496
4840639219
4840646543
4840654233
4840660276
4840666379
4840675168
4840681699
4840687558
4840692930
4840700986
4840708493
4840714414
4840720151
4840724668
4840731809
4840735227
4840744199
4840749265
4840754941
4840761594
4840766111
4840773435
4840778623
4840785703
4840790769
4840795651
4840801816
4840808286
4840813107
4840819089
4840823605
4840830197
4840837460
4840842770
4840848508
4840852048
4840859677
4840866757
4840872189
4840878171
4840884152
4840889706
4840896481
4840904233
4840909299
4840915707
4840921261
4840926938
4840933224
4840939084
4840946042
4840953610
4840958127
4840965268
4840971188
4840977170
4840983273
4840988705
4840994137
4841001278
4841006039
4841013852
4841019162
4841028073
4841034481
4841041073
4841046261
4841052792
4841058712
4841065853
4841071408
4841077328
4841083493
4841088986
4841094906
4841102413
4841108456
4841113827
4841119503
4841127438
4841134518
4841143490
4841149349
4841154598
4841160152
4841170651
4841175655
4841181576
4841190060
4841198177
4841203548
4841209530
4841217037
4841222103
4841228084
4841235287
4841241695
4841246883
4841253780
4841260067
4841265072
4841270138
4841277584
4841282284
4841288570
4841294796
4841299373
4841305416
4841310970
4841316585
4841323543
4841330928
4841336910
4841342220
4841349117
4841354183
4841359798
4841366634
4841372676
4841378719
4841385555
4841390071
4841396175
4841402217
4841408382
4841414424
4841419673
4841425044
4841431636
4841436702
4841444087
4841449092
4841455684
4841462276
4841467159
4841472774
4841478084
4841485347
4841492427
4841497737
4841503719
4841509334
4841514766
4841521419
4841526851
4841531917
4841538020
4841543574
4841549800
4841554927
4841560359
4841565547
4841572627
4841577449
4841586421
4841591426
4841595942
4841602656
4841608088
4841615168
4841620845
4841627803
4841631648
4841639827
4841646907
4841653132
4841658137
4841663020
4841671992
4841676570
4841683711
4841691096
4841696772
4841702326
4841708918
4841713557
4841718684
4841725642
4841730952
4841736262
4841742365
4841748713
4841753108
4841758784
4841765376
4841771784
4841777033
4841782954
4841787958
4841793879
4841800410
4841805720
4841813593
4841817927
4841824824
4841828669
4841835871
4841840632
4841847223
4841850825
4841858576
4841865412
4841869745
4841875361
4841881098
4841888483
4841893122
4841899347
4841906183
4841912104
4841917292
4841923334
4841929316
4841935541
4841940241
4841946772
4841954035
4841959711
4841965448
4841969965
4841977838
4841983942
4841990290
4841995844
4842001825
4842007562
4842013361
4842019647
4842022882
4842029840
4842036493
4842041681
4842049616
4842055963
4842061151
4842067804
4842072931
4842078546
4842084528
4842092828
4842098138
4842103815
4842109430
4842115472
4842120111
4842128107
4842135919
4842142999
4842148370
4842154901
4842160455
4842167596
4842173150
4842181939
4842189508
4842195672
4842202996
4842208490
4842214166
4842220941
4842224481
4842232660
4842238214
4842243402
4842249017
4842254693
4842260186
4842266534
4842273736
4842278985
4842283868
4842290887
4842295587
4842301141
4842307549
4842313043
4842319390
4842324273
4842330010
4842336236
4842341912
4842347649
4842354180
4842360406
4842365105
4842371758
4842377740
4842382134
4842390252
4842395501
4842400017
4842406609
4842411858
4842418206
4842424309
4842429619
4842434746
4842440117
4842445611
4842452935
4842458977
4842465081
4842468255
4842475029
4842479973
4842486382
4842491936
4842496697
4842501641
4842509453
4842513848
4842519829
4842526238
4842532830
4842538506
4842545159
4842551323
4842557549
4842562920
4842568535
4842573113
4842579949
4842587334
4842591912
4842598320
4842606682
4842611931
4842617668
4842625176
4842631279
4842637871
4842644768
4842651665
4842657829
4842664848
4842671379
4842677116
4842683525
4842689384
4842696526
4842701469
4842707817
4842714165
4842719292
4842724846
4842731438
4842737907
4842743034
4842749443
4842752617
4842760612
4842766594
4842772575
4842778373
4842783867
4842790153
4842794365
4842801201
4842804863
4842812126
4842819389
4842823417
4842829826
4842836113
4842841911
4842846366
4842852470
4842858696
4842864555
4842870597
4842874870
4842882255
4842888114
4842892753
4842898795
4842905692
4842911247
4842916862
4842922111
4842927543
4842933097
4842939567
4842944511
4842949943
4842957023
4842962699
4842968681
4842973014
4842979850
4842987296
4842993949
4842998344
4843004996
4843009574
4843015555
4843023368
4843028007
4843035026
4843039664
4843047172
4843052482
4843058707
4843064017
4843071219
4843075492
4843083182
4843088492
4843094046
4843099784
4843104850
4843111258
4843116141
4843121390
4843128043
4843134269
4843142935
4843147513
4843153800
4843160025
4843164786
4843172049
4843179984
4843185477
4843192191
4843199820
4843206473
4843211417
4843217703
4843224173
4843229666
4843236258
4843243094
4843247611
4843255911
4843259146
4843266592
4843271780
4843277274
4843283621
4843288077
4843294669
4843301321
4843307425
4843313833
4843319754
4843325308
4843331412
4843337820
4843344107
4843350210
4843356131
4843362234
4843367361
4843373282
4843378836
4843384878
4843390066
4843395315
4843402151
4843408377
4843413626
4843419973
4843426504
4843431753
4843436819
4843442251
4843448049
4843454031
4843461477
4843466665
4843472708
4843479238
4843484182
4843490774
4843497427
4843503469
4843508230
4843513601
4843519644
4843525503
4843531973
4843538320
4843544668
4843551016
4843553091
4843562246
4843568472
4843575185
4843582021
4843587331
4843594839
4843600027
4843604299
4843611867
4843616933
4843623891
4843629934
4843636770
4843648000
4843655446
4843661489
4843668508
4843675771
4843685293
4843693654
4843699941
4843707387
4843712941
4843719777
4843724721
4843729543
4843734304
4843742238
4843748403
4843754506
4843759572
4843765431
4843770803
4843776418
4843781728
4843787526
4843794362
4843798940
4843804982
4843810109
4843815480
4843821156
4843827199
4843831410
4843838124
4843843068
4843849233
4843855092
4843860646
4843866322
4843872914
4843879079
4843884145
4843891041
4843894520
4843901173
4843906911
4843912587
4843918934
4843923634
4843929494
4843934743
4843940175
4843946095
4843952076
4843958180
4843965565
4843971058
4843976429
4843981862
4843986073
4843992360
4843998768
4844004383
4844010121
4844015553
4844020619
4844027821
4844032765
4844039662
4844045277
4844050526
4844056080
4844061512
4844067311
4844073536
4844078907
4844084828
4844090199
4844094898
4844101246
4844108631
4844113880
4844119190
4844126026
4844130482
4844137074
4844142872
4844149464
4844155079
4844161427
4844168873
4844175953
4844186390
4844192493
4844198841
4844204761
4844212513
4844220875
4844226612
4844234119
4844242847
4844250171
4844256458
4844262501
4844268238
4844273914
4844277942
4844284595
4844288929
4844296131
4844300892
4844306934
4844311573
4844318042
4844324268
4844330371
4844334400
4844342273
4844348560
4844354724
4844359668
4844365955
4844370227
4844376636
4844381946
4844387561
4844393299
4844398364
4844403735
4844409229
4844415027
4844421314
4844426318
4844433948
4844438525
4844444934
4844449695
4844455432
4844460498
4844466479
4844472400
4844477771
4844482837
4844488208
4844494617
4844499194
4844506457
4844511828
4844518176
4844523303
4844530383
4844535876
4844542102
4844548205
4844554431
4844559863
4844565051
4844570483
4844574633
4844581775
4844586779
4844593982
4844598742
4844605700
4844611499
4844617663
4844621081
4844628711
4844633960
4844641040
4844646105
4844652270
4844659289
4844663806
4844669726
4844674426
4844681811
4844688159
4844693957
4844700732
4844711718
4844717883
4844725756
4844730883
4844735217
4844742052
4844748827
4844755419
4844763781
4844772875
4844779345
4844784167
4844790026
4844796801
4844802721
4844807726
4844814379
4844819689
4844825121
4844830919
4844836413
4844842821
4844848620
4844856066
4844862047
4844867724
4844874254
4844879503
4844884752
4844891466
4844896105
4844903063
4844908495
4844913744
4844919298
4844924730
4844930529
4844936815
4844943163
4844949877
4844956041
4844962206
4844965441
4844973070
4844979173
4844984911
4844991319
4844998033
4845003221
4845008592
4845015062
4845021593
4845027757
4845034227
4845040453
4845045396
4845051988
4845058397
4845063707
4845070665
4845076402
4845082384
4845088487
4845094469
4845100938
4845106431
4845112413
4845117967
4845123643
4845129930
4845136155
4845141038
4845147386
4845152757
4845158311
4845163987
4845171312
4845176317
4845181932
4845188462
4845193406
4845198289
4845205613
4845211717
4845218309
4845225328
4845231858
4845237229
4845242478
4845249986
4845255601
4845265794
4845271226
4845278428
4845283006
4845289659
4845297715
4845303086
4845308213
4845314134
4845319566
4845324815
4845330552
4845336594
4845343186
4845348130
4845353501
4845359788
4845364854
4845370591
4845377183
4845383897
4845388108
4845394944
4845398057
4845404832
4845410752
4845418870
4845424180
4845430405
4845435837
4845441636
4845446885
4845453171
4845459702
4845464646
4845470383
4845477036
4845483201
4845489243
4845494370
4845501084
4845506150
4845511460
4845518601
4845524155
4845529465
4845536362
4845542710
4845548813
4845554123
4845561264
4845567185
4845574265
4845581345
4845586594
4845591355
4845597519
4845602524
4845608505
4845614853
4845621933
4845626755
4845632370
4845638046
4845644638
4845650253
4845655685
4845661484
4845666672
4845672592
4845678268
4845683884
4845690475
4845695358
4845700607
4845709030
4845718002
4845723007
4845733261
4845738510
4845745346
4845750168
4845756210
4845759933
4845769577
4845777267
4845788009
4845793441
4845798629
4845805465
4845810531
4845816024
4845821579
4845827743
4845832443
4845841354
4845847763
4845853073
4845858993
4845866622
4845873519
4845878219
4845884384
4845890487
4845895736
4845900497
4845907150
4845913741
4845919662
4845925033
4845931381
4845935775
4845942001
4845947799
4845955001
4845959090
4845966415
4845970748
4845976607
4845982589
4845988448
4845995956
4846002181
4846008346
4846013595
4846018783
4846024154
4846031173
4846036361
4846041305
4846049300
4846054366
4846060775
4846067183
4846073897
4846079207
4846087081
4846093612
4846098494
4846106002
4846111434
4846117354
4846122725
4846127425
4846135726
4846141402
4846148116
4846153914
4846161299
4846166793
4846173018
4846179610
4846186751
4846192000
4846198409
4846203963
4846210127
4846214766
4846221724
4846228926
4846235945
4846243086
4846248335
4846254439
4846260176
4846266585
4846274947
4846280745
4846289656
4846297774
4846303389
4846309859
4846315657
4846320234
4846328535
4846334456
4846338667
4846346907
4846352034
4846358626
4846365461
4846370527
4846376387
4846381453
4846387800
4846395185
4846400984
4846407026
4846411116
4846417890
4846423262
4846429670
4846434736
4846441572
4846446516
4846452375
4846457746
4846463362
4846470259
4846476911
4846482710
4846488508
4846494123
4846500837
4846505598
4846512495
4846519270
4846525861
4846533430
4846538923
4846545332
4846553938
4846557355
4846564741
4846571577
4846577924
4846584638
4846591352
4846597822
4846602888
4846608015
4846614667
4846620527
4846625471
4846631330
4846638166
4846644330
4846648908
4846655561
4846660810
4846666730
4846673078
4846679670
4846684613
4846690473
4846696271
4846702008
4846706159
4846712140
4846719220
4846725202
4846730207
4846735639
4846742902
4846748517
4846756452
4846764081
4846769391
4846774945
4846781354
4846789105
4846795575
4846804669
4846812299
4846818463
4846822797
4846829694
4846837018
4846843121
4846849713
4846855634
4846861249
4846867230
4846872845
4846879315
4846885297
4846890729
4846896954
4846902875
4846907574
4846914654
4846920880
4846926373
4846931927
4846937787
4846943402
4846949872
4846954266
4846961163
4846966900
4846971905
4846977459
4846983929
4846989972
4846994366
4847002484
4847008099
4847014080
4847021221
4847025433
4847032757
4847040692
4847046246
4847053814
4847060101
4847067364
4847071881
4847078961
4847085858
4847091900
4847098614
4847105389
4847111004
4847118206
4847123577
4847130596
4847135540
4847141827
4847145489
4847152203
4847159466
4847164959
4847171184
4847175518
4847183575
4847187176
4847193462
4847200054
4847206768
4847212261
4847216595
4847224529
4847229839
4847235637
4847241192
4847247356
4847254986
4847260723
4847269817
4847275371
4847280620
4847287029
4847294292
4847301189
4847310955
4847316509
4847323955
4847330913
4847336711
4847342815
4847348430
4847353557
4847360454
4847367290
4847373332
4847379680
4847385234
4847391582
4847397746
4847404094
4847408855
4847416423
4847422466
4847428203
4847434734
4847440227
4847445293
4847450908
4847456218
4847464091
4847469401
4847475078
4847480876
4847486308
4847491740
4847496501
4847503886
4847510539
4847515788
4847521220
4847527690
4847533183
4847538493
4847545085
4847551127
4847556498
4847561686
4847569377
4847575541
4847580790
4847588237
4847594157
4847600566
4847606181
4847612223
4847618327
4847624919
4847629801
4847636149
4847640971
4847648112
4847654032
4847659464
4847665568
4847672709
4847677897
4847684733
4847690348
4847696024
4847702189
4847708720
4847713908
4847719889
4847725565
4847731547
4847736491
4847743571
4847749308
4847755839
4847762553
4847767435
4847774943
4847781351
4847788370
4847795206
4847801249
4847807841
4847812662
4847820536
4847826700
4847834086
4847841349
4847850199
4847856913
4847863566
4847869974
4847875406
4847881449
4847888163
4847893961
4847898661
4847906595
4847912027
4847917276
4847922647
4847928873
4847935221
4847941202
4847947855
4847952127
4847958475
4847964639
4847970194
4847977030
4847983621
4847991007
4847996500
4848000467
4848007120
4848013284
4848019693
4848026468
4848032938
4848038248
4848042947
4848049783
4848054666
4848062173
4848069437
4848074930
4848080972
4848086587
4848092020
4848098062
4848104165
4848110635
4848117471
4848122049
4848129129
4848134927
4848140786
4848144265
4848153360
4848158304
4848163858
4848170144
4848176004
4848182473
4848188577
4848194131
4848200845
4848206826
4848212564
4848218179
4848223733
4848231057
4848237039
4848242898
4848250344
4848254983
4848261025
4848266397
4848272622
4848278359
4848286599
4848291909
4848296792
4848303689
4848310403
4848315713
4848321267
4848329446
4848336526
4848343117
4848349892
4848355935
4848361489
4848367287
4848374917
4848382058
4848387917
4848395669
4848403847
4848411599
4848420998
4848429177
4848437295
4848445656
4848454140
4848463540
4848473183
4848485390
4848493996
4848502114
4848509560
4848536598
4848547890
4848555886
4848563576
4848572670
4848581764
4848590126
4848599037
4848608925
4848617775
4848627174
4848636635
4848644264
4848655250
4848663856
4848673439
4848683449
4848691994
4848700111
4848707802
4848718544
4848726478
4848736854
4848745338
4848754371
4848762794
4848769935
4848780738
4848789100
4848797706
4848807960
4848815162
4848825477
4848833656
4848843971
4848854530
4848861488
4848870277
4848880470
4848888526
4848898109
4848907142
4848915748
4848922706
4848933082
4848941016
4848950660
4848959388
4848968482
4848978065
4848984962
4848994056
4849002051
4849013343
4849021583
4849030677
4849040015
4849048255
4849058020
4849063819
4849075171
4849084937
4849096106
4849103980
4849112220
4849122168
4849131323
4849140418
4849150672
4849157935
4849168982
4849178198
4849185950
4849195044
4849203345
4849211462
4849220923
4849229773
4849238562
4849250403
4849259497
4849267798
4849276587
4849285254
4849293371
4849303442
4849311926
4849320776
4849329626
4849339270
4849347082
4849356360
4849362951
4849372961
4849381445
4849389563
4849398535
4849407507
4849417395
4849425390
4849435278
4849444494
4849453100
4849459326
4849469396
4849480200
4849489294
4849498266
4849508154
4849516088
4849523962
4849535802
4849544653
4849553442
4849561315
4849570348
4849579381
4849586767
4849597509
4849606786
4849615392
4849624669
4849633947
4849642064
4849652135
4849661596
4849670263
4849680577
4849689000
4849695592
4849706273
4849713780
4849723790
4849732396
4849741185
4849750646
4849757359
4849768712
4849776463
4849786900
4849795689
4849803624
4849811070
4849816380
4849822057
4849828893
4849835484
4849844884
4849854954
4849860448
4849863743
4849871800
4849879674
4849885228
4849892552
4849899571
4849907506
4849914525
4849920384
4849925999
4849933995
4849938817
4849946080
4849949925
4849957920
4849964207
4849969944
4849976231
4849982762
4849987461
4849994480
4850002293
4850006626
4850013706
4850018528
4850026219
4850031407
4850037693
4850043919
4850049839
4850056126
4850063206
4850069065
4850074925
4850080662
4850087559
4850093235
4850099522
4850104343
4850111179
4850117466
4850123936
4850129917
4850136631
4850142429
4850148838
4850153965
4850160068
4850165928
4850171482
4850178013
4850182590
4850190464
4850196323
4850202549
4850208530
4850214512
4850220127
4850227878
4850232761
4850238620
4850245456
4850250217
4850256565
4850263157
4850270786
4850277683
4850284641
4850290134
4850295322
4850301548
4850307041
4850312778
4850318393
4850323825
4850329990
4850340183
4850347202
4850354831
4850361240
4850367343
4850373935
4850379550
4850389072
4850397434
4850404453
4850410434
4850416904
4850423068
4850429904
4850435580
4850442050
4850449008
4850456454
4850462558
4850471652
4850477328
4850483676
4850490634
4850496066
4850502475
4850507602
4850516086
4850523654
4850529391
4850534701
4850539950
4850548678
4850556369
4850564669
4850572116
4850578341
4850586459
4850593051
4850599826
4850605563
4850612582
4850618685
4850624484
4850631014
4850638095
4850644808
4850651339
4850657504
4850663668
4850670199
4850677279
4850683077
4850687838
4850694735
4850702547
4850709383
4850715426
4850721102
4850727206
4850733492
4850740755
4850747713
4850754732
4850761324
4850767123
4850771883
4850778109
4850784090
4850790682
4850796419
4850802706
4850808809
4850813936
4850820284
4850827303
4850833651
4850841829
4850847261
4850855196
4850860079
4850868135
4850874239
4850881258
4850888155
4850895906
4850899874
4850909944
4850915987
4850921907
4850927339
4850931978
4850939363
4850942903
4850950838
4850956392
4850963960
4850969759
4850973970
4850980928
4850987032
4850994234
4850999544
4851007661
4851013338
4851020418
4851026826
4851033418
4851040498
4851045625
4851051668
4851057771
4851064607
4851070100
4851077058
4851082979
4851089448
4851095552
4851101655
4851109163
4851115144
4851122529
4851128145
4851135408
4851142427
4851148286
4851153962
4851160005
4851166413
4851172334
4851178437
4851185517
4851191743
4851198640
4851204988
4851210908
4851217317
4851222749
4851229219
4851235993
4851241853
4851247834
4851253388
4851259919
4851266877
4851271638
4851279267
4851284882
4851291169
4851296784
4851303315
4851308625
4851314240
4851319855
4851326997
4851336457
4851343171
4851348664
4851355073
4851360444
4851367402
4851374055
4851381379
4851390229
4851397797
4851404572
4851410431
4851417023
4851423615
4851428254
4851436188
4851441925
4851448029
4851454377
4851460541
4851467194
4851473359
4851479889
4851485993
4851491974
4851497162
4851504425
4851509918
4851516815
4851522736
4851529267
4851534577
4851541107
4851547943
4851552643
4851559235
4851565643
4851571259
4851576691
4851583344
4851589264
4851596283
4851602753
4851608368
4851614593
4851620392
4851627655
4851632294
4851639923
4851645538
4851651031
4851658234
4851664642
4851670257
4851676544
4851682648
4851687774
4851693207
4851699920
4851706024
4851713165
4851718719
4851725738
4851730743
4851737457
4851744476
4851749664
4851755462
4851762237
4851768585
4851774139
4851781280
4851785858
4851793731
4851799224
4851805694
4851812103
4851820648
4851828338
4851835174
4851841522
4851847686
4851854644
4851863921
4851870025
4851876739
4851883819
4851891021
4851897002
4851903533
4851909270
4851917083
4851922210
4851927032
4851934539
4851941497
4851947417
4851954192
4851959624
4851964995
4851971099
4851977263
4851983123
4851989776
4851994903
4852002410
4852007903
4852015716
4852022979
4852028838
4852033965
4852040435
4852047026
4852052459
4852058379
4852065581
4852071318
4852077910
4852083709
4852089934
4852096770
4852102935
4852108489
4852114653
4852119475
4852124968
4852130889
4852136687
4852141570
4852150420
4852155974
4852162383
4852167876
4852175688
4852182280
4852187895
4852193938
4852199858
4852206572
4852213896
4852219572
4852226591
4852232329
4852238737
4852245207
4852250578
4852256010
4852263029
4852267973
4852276518
4852282744
4852289824
4852296599
4852301909
4852308561
4852316069
4852321745
4852329313
4852336454
4852342863
4852349577
4852352995
4852362150
4852367033
4852377409
4852383757
4852392301
4852397428
4852403471
4852410734
4852415495
4852422331
4852428190
4852433561
4852440885
4852445768
4852451627
4852458830
4852465360
4852470915
4852477140
4852482572
4852490263
4852496488
4852501798
4852507841
4852512479
4852519193
4852523832
4852530118
4852535184
4852541898
4852548185
4852553983
4852558744
4852564725
4852570768
4852577176
4852588407
4852593961
4852599332
4852606107
4852610807
4852617215
4852622159
4852628202
4852633756
4852639615
4852646573
4852654874
4852661771
4852666898
4852672391
4852679959
4852686246
4852690946
4852697660
4852703153
4852709195
4852715604
4852721829
4852728177
4852734586
4852740628
4852746243
4852752164
4852758023
4852765408
4852772672
4852777982
4852784695
4852790555
4852794156
4852797757
4852803372
4852809720
4852815152
4852819241
4852824734
4852829861
4852835416
4852839871
4852844754
4852850491
4852855069
4852859952
4852863370
4852870755
4852876492
4852881131
4852886502
4852890591
4852895352
4852899991
4852904385
4852909146
4852912686
4852918484
4852923794
4852928250
4852931851
4852937832
4852942410
4852946743
4852951748
4852956387
4852961941
4852967678
4852972317
4852976162
4852981533
4852986660
4852991604
4852996182
4853002896
4853006191
4853014309
4853019802
4853023464
4853028591
4853031887
4853036831
4853041348
4853046658
4853051968
4853056728
4853060146
4853065395
4853069363
4853074734
4853078884
4853084744
4853090054
4853094387
4853100796
4853105862
4853110439
4853115444
4853121120
4853125576
4853130276
4853134365
4853138576
4853143032
4853148647
4853153591
4853159633
4853163723
4853169765
4853173427
4853177639
4853183498
4853187954
4853194179
4853198696
4853203274
4853207790
4853211330
4853216152
4853222194
4853227321
4853232631
4853235866
4853240505
4853247097
4853252102
4853258876
4853264003
4853266750
4853272731
4853277370
4853282497
4853287868
4853292690
4853299831
4853304470
4853311244
4853315395
4853319911
4853322963
4853332057
4853339748
4853343654
4853349330
4853353481
4853359340
4853363612
4853367458
4853371364
4853377101
4853381801
4853386256
4853390712
4853396022
4853401088
4853407069
4853411525
4853416530
4853420924
4853425136
4853429958
4853435207
4853440272
4853445155
4853450343
4853455348
4853461757
4853467189
4853473048
4853478297
4853483546
4853488185
4853494166
4853498744
4853504298
4853509120
4853515162
4853521754
4853527430
4853532618
4853539210
4853544581
4853550624
4853555262
4853560511
4853566981
4853571620
4853578456
4853582972
4853587611
4853594569
4853598902
4853604090
4853609645
4853614710
4853620143
4853625941
4853630702
4853637110
4853642359
4853646449
4853652674
4853658412
4853662074
4853668910
4853672205
4853678858
4853684107
4853688563
4853694117
4853701563
4853708033
4853714381
4853721278
4853726649
4853733057
4853738245
4853745325
4853750574
4853756434
4853762537
4853768580
4853773462
4853779566
4853786341
4853792017
4853796961
4853803736
4853809351
4853816980
4853821619
4853827295
4853832239
4853839685
4853845423
4853852625
4853857508
4853863306
4853868128
4853872705
4853878443
4853882471
4853888697
4853894495
4853900904
4853906580
4853911218
4853917444
4853922022
4853927698
4853935999
4853940820
4853947473
4853952051
4853958704
4853963220
4853969141
4853975122
4853980554
4853985925
4853991846
4853998071
4854003137
4854007898
4854013330
4854018030
4854025110
4854030786
4854035425
4854041223
4854048242
4854053552
4854059045
4854064416
4854070459
4854075647
4854081384
4854087365
4854092920
4854099328
4854104333
4854109582
4854116479
4854123498
4854128747
4854134790
4854140405
4854146142
4854150293
4854156945
4854162194
4854167871
4854174401
4854179772
4854184899
4854192224
4854196923
4854202050
4854208642
4854213403
4854219567
4854224511
4854231347
4854237756
4854242455
4854248498
4854253686
4854258508
4854270409
4854276513
4854281335
4854285119
4854293725
4854297570
4854305505
4854311364
4854315819
4854321618
4854327538
4854332604
4854338586
4854344567
4854350182
4854355126
4854363610
4854370568
4854376305
4854383324
4854388878
4854394005
4854400536
4854406090
4854414818
4854420006
4854428124
4854433007
4854438317
4854447289
4854452477
4854458153
4854462242
4854469078
4854472618
4854480919
4854484520
4854492699
4854498314
4854503197
4854509300
4854516503
4854523094
4854529259
4854535179
4854540245
4854545433
4854552574
4854558312
4854564903
4854570824
4854577599
4854582603
4854588341
4854594627
4854600182
4854607079
4854611656
4854620628
4854627037
4854631554
4854638145
4854642479
4854648216
4854653892
4854659874
4854665733
4854672142
4854678367
4854683738
4854689415
4854693626
4854699791
4854703453
4854712974
4854719078
4854725242
4854728965
4854736595
4854740135
4854747337
4854753074
4854759361
4854765403
4854770957
4854775962
4854782676
4854788169
4854794639
4854800132
4854805686
4854813194
4854819358
4854822715
4854829429
4854834678
4854840476
4854845725
4854851768
4854858360
4854862510
4854868186
4854873985
4854878135
4854883872
4854889976
4854894981
4854902305
4854907798
4854912864
4854917930
4854923240
4854930015
4854937766
4854944053
4854950278
4854958274
4854964316
4854970420
4854975181
4854983359
4854988975
4854997947
4855004172
4855009971
4855015708
4855023276
4855029258
4855037253
4855042502
4855048911
4855054038
4855058738
4855063193
4855069480
4855074546
4855080954
4855086142
4855091635
4855096152
4855101645
4855106101
4855112876
4855117941
4855123252
4855127890
4855134482
4855139548
4855144187
4855148947
4855155722
4855161337
4855165793
4855172690
4855177695
4855182272
4855189536
4855195090
4855199667
4855204611
4855211081
4855218283
4855224325
4855227682
4855234823
4855239645
4855245749
4855251242
4855258871
4855264731
4855271017
4855277853
4855282919
4855289145
4855294211
4855298666
4855304892
4855312399
4855318319
4855322592
4855329123
4855333456
4855339743
4855343588
4855350668
4855358358
4855364584
4855369772
4855376730
4855381552
4855386312
4855392538
4855397482
4855411459
4855421041
4855429525
4855436971
4855443319
4855451742
4855459615
4855465597
4855472433
4855479757
4855486044
4855491109
4855494955
4855500509
4855506185
4855511739
4855516866
4855521688
4855526388
4855532186
4855538595
4855543905
4855548665
4855554342
4855559102
4855564657
4855569723
4855576131
4855582052
4855586629
4855591634
4855596639
4855602071
4855606771
4855611409
4855617574
4855623861
4855627706
4855633809
4855637777
4855644857
4855649190
4855657735
4855662984
4855668538
4855673665
4855678975
4855683675
4855689107
4855694173
4855698689
4855704366
4855708821
4855714681
4855719991
4855725789
4855731893
4855736531
4855742330
4855746724
4855752522
4855757771
4855763142
4855768086
4855773824
4855778767
4855783772
4855788716
4855792500
4855797810
4855801900
4855806599
4855812398
4855816487
4855821614
4855828084
4855834004
4855838521
4855843953
4855850728
4855855916
4855860982
4855866719
4855872090
4855876668
4855882161
4855889851
4855895955
4855900288
4855905171
4855910481
4855915791
4855921040
4855927815
4855934834
4855942036
4855945149
4855952351
4855958454
4855963215
4855968464
4855974934
4855981404
4855985981
4855992329
4855997639
4856003315
4856009602
4856016316
4856021626
4856026264
4856033589
4856038960
4856046345
4856052754
4856058552
4856063740
4856070698
4856076069
4856082294
4856087177
4856096455
4856101765
4856107990
4856113544
4856118976
4856124653
4856129352
4856134418
4856140949
4856145344
4856151508
4856157551
4856162861
4856167438
4856173542
4856177936
4856183735
4856188740
4856195026
4856200885
4856207416
4856211933
4856217792
4856222248
4856228168
4856232746
4856239399
4856245807
4856251239
4856255817
4856261920
4856266498
4856271991
4856276813
4856283771
4856288959
4856294940
4856300739
4856306659
4856311603
4856316974
4856322772
4856328388
4856335346
4856341022
4856346454
4856351093
4856357867
4856362567
4856368732
4856373981
4856380573
4856385089
4856391376
4856396747
4856401569
4856408466
4856413043
4856417499
4856425922
4856432635
4856437640
4856443927
4856449786
4856455707
4856460711
4856467120
4856473346
4856480304
4856484759
4856491168
4856495685
4856501544
4856507525
4856512652
4856520465
4856527362
4856532977
4856538592
4856543475
4856550006
4856554522
4856560076
4856567767
4856574847
4856579180
4856584551
4856590106
4856595355
4856602130
4856607134
4856614886
4856621050
4856628253
4856633563
4856640521
4856645464
4856651507
4856657610
4856665850
4856671648
4856679644
4856686663
4856691485
4856698626
4856703753
4856707720
4856714190
4856720476
4856725176
4856731341
4856737383
4856742083
4856748064
4856753740
4856755633
4856764422
4856768938
4856776384
4856780535
4856787005
4856792986
4856799212
4856802568
4856811846
4856816790
4856822832
4856828997
4856833452
4856839006
4856845293
4856851396
4856859941
4856863970
4856870500
4856876421
4856882036
4856887773
4856895159
4856899187
4856907732
4856913774
4856920305
4856924516
4856931902
4856937456
4856944902
4856951067
4856956743
4856962541
4856968279
4856974626
4856981462
4856987138
4856993486
4856999467
4857006792
4857012407
4857019243
4857024797
4857031145
4857037065
4857043962
4857050065
4857055742
4857059526
4857067705
4857071306
4857079912
4857086198
4857091264
4857098344
4857103654
4857109941
4857115983
4857121782
4857126603
4857133256
4857139299
4857146562
4857151628
4857158219
4857161576
4857169572
4857175614
4857181108
4857187821
4857194230
4857201066
4857206681
4857214738
4857220963
4857229691
4857237199
4857239518
4857250321
4857255753
4857263688
4857270707
4857276078
4857282304
4857287980
4857295548
4857301591
4857308121
4857315751
4857319535
4857326432
4857331254
4857336320
4857341447
4857350236
4857355851
4857362320
4857367081
4857373185
4857378678
4857383439
4857391251
4857395585
4857402115
4857407120
4857414383
4857418229
4857425919
4857429886
4857438736
4857444107
4857451432
4857456131
4857463089
4857469437
4857475357
4857479203
4857487259
4857491837
4857499039
4857505325
4857510513
4857517655
4857523392
4857529739
4857535843
4857538040
4857549759
4857556107
4857561661
4857565994
4857573318
4857579666
4857584732
4857589615
4857596878
4857602920
4857608841
4857616348
4857621780
4857625381
4857631912
4857637955
4857647293
4857651443
4857658706
4857664566
4857671158
4857677383
4857684768
4857690201
4857695755
4857700699
4857707473
4857713699
4857720535
4857725296
4857730484
4857737869
4857746109
4857750503
4857757339
4857762954
4857770034
4857775344
4857782607
4857787307
4857793838
4857801223
4857807205
4857812148
4857818130
4857822830
4857829604
4857834548
4857839736
4857846938
4857852370
4857861709
4857867324
4857871535
4857875869
4857883071
4857888625
4857897597
4857905959
4857913161
4857918471
4857924758
4857930190
4857935622
4857939712
4857946975
4857951980
4857956618
4857963088
4857968642
4857972487
4857980727
4857984816
4857992629
4857998488
4858005324
4858011245
4858016188
4858022109
4858028456
4858033461
4858039870
4858045546
4858052382
4858057448
4858062514
4858067092
4858072341
4858078444
4858084609
4858091506
4858096144
4858100417
4858106215
4858112074
4858116469
4858121596
4858126418
4858134474
4858141188
4858148268
4858153883
4858158461
4858162428
4858170424
4858176710
4858182143
4858187086
4858193495
4858199843
4858205702
4858211500
4858216078
4858221205
4858231276
4858237318
4858243361
4858248182
4858254042
4858258925
4858266493
4858271132
4858277784
4858283156
4858286757
4858294935
4858298780
4858306166
4858311293
4858318434
4858322645
4858330702
4858336988
4858342909
4858349440
4858355604
4858359205
4858366102
4858369581
4858379591
4858383619
4858392103
4858397169
4858404798
4858410963
4858416456
4858420973
4858429640
4858435194
4858440199
4858446058
4858453870
4858461317
4858466627
4858472547
4858480238
4858483778
4858492506
4858496595
4858502882
4858508924
4858517042
4858521375
4858530469
4858535657
4858540296
4858547864
4858553296
4858558057
4858565259
4858570630
4858577649
4858582532
4858588086
4858592115
4858597486
4858603406
4858610242
4858614087
4858622449
4858627759
4858632520
4858636060
4858644971
4858649488
4858655652
4858661328
4858666822
4858672071
4858677136
4858682630
4858689588
4858694715
4858700574
4858706372
4858714917
4858720776
4858726819
4858731885
4858736951
4858742566
4858749158
4858754102
4858758862
4858767590
4858771741
4858779248
4858785352
4858791699
4858796155
4858805310
4858808911
4858818188
4858823010
4858829724
4858833630
4858840405
4858845532
4858851636
4858857068
4858864575
4858870984
4858878308
4858883679
4858889965
4858894909
4858901745
4858906567
4858912060
4858920422
4858926281
4858930615
4858937146
4858943371
4858949047
4858953869
4858961499
4858966931
4858973339
4858978955
4858984509
4858990368
4858996166
4859001721
4859005261
4859014965
4859021557
4859027294
4859032116
4859037792
4859043041
4859047436
4859056896
4859062450
4859069958
4859076977
4859083019
4859088207
4859093700
4859098522
4859106396
4859113048
4859120251
4859127270
4859132580
4859139721
4859144787
4859151073
4859157787
4859162426
4859169140
4859175548
4859179943
4859185741
4859190868
4859196849
4859202709
4859209362
4859216014
4859220287
4859226696
4859231090
4859234325
4859242565
4859249340
4859257152
4859262584
4859268260
4859272472
4859279613
4859283702
4859289928
4859296031
4859303233
4859307201
4859315502
4859318858
4859325755
4859330699
4859336498
4859342357
4859349498
4859355235
4859362315
4859367442
4859372752
4859378062
4859382884
4859388011
4859395518
4859401256
4859408092
4859414134
4859419078
4859424144
4859431102
4859436534
4859440318
4859449840
4859455699
4859460948
4859465403
4859472972
4859477305
4859484568
4859490184
4859497386
4859502574
4859507151
4859513194
4859517710
4859524363
4859529002
4859533824
4859540232
4859545054
4859551585
4859556285
4859562876
4859568370
4859573496
4859580454
4859585581
4859591014
4859596751
4859603831
4859609385
4859614085
4859619395
4859625315
4859631724
4859637583
4859641001
4859651072
4859654429
4859664500
4859668223
4859678355
4859683298
4859689097
4859695200
4859702158
4859706370
4859712778
4859718271
4859725718
4859733713
4859738718
4859742380
4859752146
4859756907
4859762339
4859765757
4859774241
4859778330
4859784372
4859790659
4859794687
4859800303
4859805490
4859811289
4859816965
4859822275
4859827158
4859832712
4859839060
4859844675
4859850901
4859855905
4859861948
4859867685
4859873545
4859878244
4859884348
4859889108
4859895883
4859902719
4859908151
4859913645
4859919992
4859924570
4859930307
4859935190
4859941354
4859947702
4859953561
4859958444
4859963449
4859969980
4859975595
4859981515
4859987497
4859993295
4859998361
4860004159
4860009408
4860016488
4860021860
4860027292
4860034555
4860041147
4860046213
4860050546
4860059762
4860065866
4860070627
4860076547
4860083078
4860088754
4860094125
4860100106
4860106027
4860109567
4860117135
4860123483
4860129403
4860133187
4860139108
4860143930
4860150888
4860155892
4860162789
4860168038
4860173837
4860179879
4860184884
4860191537
4860197885
4860203134
4860209359
4860215035
4860222115
4860228219
4860232247
4860240121
4860246651
4860254220
4860260628
4860265328
4860271737
4860279305
4860283822
4860290169
4860296822
4860303475
4860310799
4860316414
4860323678
4860329232
4860337349
4860341683
4860350777
4860354744
4860361458
4860367257
4860374703
4860380196
4860385933
4860390511
4860397408
4860402413
4860410225
4860415413
4860419991
4860427925
4860432808
4860440743
4860445076
4860452339
4860456185
4860463509
4860469002
4860474983
4860481880
4860488045
4860494026
4860499092
4860504097
4860511482
4860516487
4860522957
4860528633
4860535042
4860541389
4860547432
4860552559
4860558418
4860566475
4860572212
4860578133
4860583992
4860591255
4860597481
4860604195
4860609627
4860615974
4860621406
4860628547
4860635078
4860641548
4860646492
4860653389
4860658394
4860664985
4860672432
4860678596
4860683113
4860688667
4860696479
4860702400
4860708198
4860714302
4860720771
4860726753
4860734260
4860739204
4860745613
4860751045
4860757331
4860764533
4860771247
4860778755
4860782783
4860790473
4860796638
4860801582
4860807441
4860813422
4860820380
4860825874
4860831184
4860836677
4860843940
4860848823
4860854743
4860860175
4860867255
4860873176
4860879279
4860883185
4860892158
4860897956
4860904487
4860912116
4860917548
4860924262
4860929938
4860935859
4860942450
4860949225
4860955207
4860961188
4860966315
4860972052
4860980903
4860990241
4860996589
4860998603
4861008979
4861013434
4861019538
4861023566
4861030219
4861034430
4861041571
4861047492
4861051764
4861056525
4861062995
4861068915
4861074469
4861081671
4861087287
4861092352
4861098273
4861102728
4861109076
4861114752
4861122931
4861128607
4861133368
4861140936
4861145514
4861151556
4861155402
4861165106
4861168951
4861175726
4861179510
4861187201
4861193426
4861198981
4861203985
4861210150
4861215338
4861223089
4861229071
4861235357
4861240057
4861246161
4861253119
4861258673
4861264166
4861269781
4861276312
4861281073
4861287115
4861293036
4861298040
4861302191
4861309820
4861314032
4861323431
4861327215
4861334173
4861339910
4861346807
4861352423
4861357916
4861362615
4861369940
4861375128
4861382391
4861386968
4861392706
4861399847
4861405340
4861411565
4861416265
4861424627
4861428594
4861436224
4861442388
4861447881
4861453130
4861458135
4861464056
4861472417
4861478277
4861484502
4861490056
4861494634
4861500371
4861506719
4861513067
4861524053
4861529790
4861537908
4861545720
4861552068
4861556585
4861562444
4861568120
4861575383
4861581914
4861587529
4861593145
4861601567
4861607366
4861612065
4861617925
4861623174
4861627751
4861633550
4861638860
4861646428
4861651555
4861658025
4861663640
4861671514
4861677190
4861683476
4861688603
4861693974
4861699407
4861703801
4861710942
4861717778
4861722600
4861727422
4861735905
4861740422
4861747441
4861751164
4861759892
4861763860
4861774174
4861780339
4861787541
4861791325
4861798588
4861803960
4861810673
4861816350
4861824772
4861830754
4861835576
4861840642
4861846623
4861853093
4861858037
4861862431
4861869206
4861876530
4861882573
4861887516
4861893193
4861898930
4861903874
4861909672
4861913700
4861922245
4861926762
4861933903
4861937992
4861945500
4861950077
4861956059
4861961552
4861967045
4861974003
4861980839
4861986088
4861993107
4861998112
4862005680
4862012455
4862018681
4862024967
4862029362
4862035404
4862041752
4862045109
4862054325
4862058964
4862067631
4862072758
4862078495
4862085453
4862090763
4862097050
4862102726
4862112125
4862116276
4862123356
4862128971
4862134342
4862139774
4862148929
4862153690
4862161564
4862167850
4862173954
4862180179
4862187564
4862194889
4862200748
4862207584
4862215824
4862220035
4862229251
4862233646
4862241336
4862245243
4862253543
4862257572
4862267703
4862271732
4862279666
4862283939
4862292545
4862297366
4862303897
4862307681
4862315311
4862321536
4862328067
4862334110
4862338992
4862345340
4862351321
4862355228
4862362979
4862366824
4862374942
4862381351
4862386661
4862392032
4862397281
4862403811
4862410342
4862414371
4862422183
4862426639
4862434207
4862437747
4862445865
4862449832
4862459475
4862463443
4862471316
4862476748
4862482730
4862488162
4862493594
4862499026
4862506167
4862511721
4862518801
4862523501
4862528567
4862535586
4862542117
4862547000
4862553774
4862560427
4862565310
4862573184
4862578127
4862584719
4862590457
4862598513
4862604434
4862612856
4862620486
4862625796
4862632327
4862638918
4862642519
4862649050
4862654604
4862662234
4862670168
4862676272
4862681826
4862687624
4862695193
4862700258
4862704775
4862714052
4862721255
4862725954
4862732058
4862738283
4862744387
4862749697
4862756228
4862766909
4862773623
4862781130
4862788088
4862792910
4862799929
4862804384
4862812441
4862818911
4862826418
4862834352
4862841432
4862845278
4862853639
4862859072
4862865907
4862871523
4862878725
4862882143
4862888796
4862893495
4862899416
4862906252
4862913515
4862919130
4862926271
4862931032
4862936464
4862941042
4862947023
4862953310
4862959352
4862966371
4862972841
4862977785
4862984254
4862989992
4862995485
4863001283
4863005983
4863013856
4863019044
4863025697
4863030275
4863037599
4863041688
4863048829
4863052675
4863060548
4863066652
4863071717
4863076478
4863082338
4863087953
4863094239
4863098939
4863106813
4863110536
4863118348
4863123170
4863128236
4863133607
4863140931
4863145814
4863153687
4863158387
4863165772
4863170350
4863177430
4863182008
4863190064
4863196473
4863201112
4863207520
4863214539
4863219117
4863224976
4863230714
4863234803
4863240845
4863246033
4863255067
4863258912
4863266236
4863271790
4863276917
4863281983
4863288392
4863293397
4863302674
4863306885
4863313233
4863318726
4863325257
4863329590
4863335938
4863340333
4863348023
4863354004
4863362244
4863367981
4863372925
4863382630
4863388123
4863395386
4863403870
4863411805
4863418640
4863423218
4863428650
4863435364
4863439820
4863447388
4863453919
4863461792
4863471619
4863476257
4863483521
4863488770
4863497681
4863506409
4863514832
4863520752
4863525696
4863531006
4863537537
4863542786
4863549805
4863554932
4863562439
4863567627
4863572937
4863579712
4863585266
4863589538
4863596496
4863600952
4863608032
4863615783
4863621948
4863626831
4863633423
4863639404
4863644226
4863650085
4863654724
4863662353
4863668884
4863674499
4863679687
4863685424
4863689270
4863697143
4863702758
4863709960
4863714660
4863721069
4863726501
4863731384
4863736267
4863743164
4863748413
4863755248
4863760925
4863766418
4863771728
4863778930
4863783935
4863788696
4863793212
4863799987
4863805969
4863813537
4863817992
4863824828
4863828613
4863835387
4863839233
4863846618
4863853332
4863859557
4863864379
4863869079
4863875793
4863882140
4863887267
4863893615
4863900390
4863905272
4863911376
4863917113
4863921508
4863929259
4863935546
4863942565
4863947265
4863953795
4863957396
4863965392
4863971373
4863977843
4863984374
4863993590
4863998595
4864011656
4864016173
4864022460
4864028319
4864033019
4864040526
4864047728
4864055174
4864059996
4864068175
4864072997
4864080382
4864086730
4864093443
4864098692
4864103941
4864107787
4864114500
4864119200
4864126524
4864129942
4864137694
4864144591
4864150694
4864156554
4864161131
4864166197
4864172240
4864177550
4864186400
4864192625
4864198302
4864201658
4864207945
4864213072
4864219175
4864225584
4864231749
4864236998
4864241881
4864248106
4864253355
4864260130
4864264586
4864270323
4864276365
4864282896
4864289854
4864294798
4864300169
4864306333
4864312193
4864317869
4864323973
4864330564
4864337339
4864343321
4864348631
4864355406
4864359861
4864366697
4864373472
4864380796
4864387998
4864393430
4864400022
4864406065
4864410520
