4574846930
4574856086
4574864020
4574871772
4574880561
4574887763
4574895087
4574904303
4574911444
4574919867
4574926764
4574934088
4574940985
4574948920
4574955817
4574964484
4574971503
4574978461
4574984442
4574993414
4575000189
4575009955
4575017645
4575024970
4575032111
4575040350
4575046332
4575053595
4575061102
4575068304
4575076666
4575083502
4575090277
4575098151
4575107306
4575112860
4575120794
4575129217
4575136114
4575143316
4575151068
4575159430
4575165228
4575173224
4575181952
4575189764
4575196783
4575204535
4575213568
4575219427
4575228521
4575236700
4575242987
4575251043
4575259588
4575269720
4575277105
4575283331
4575291082
4575296758
4575306463
4575314336
4575321783
4575329229
4575335821
4575344122
4575351812
4575359319
4575366216
4575374639
4575383062
4575390691
4575398748
4575405279
4575414251
4575423406
4575428289
4575438970
4575446538
4575453924
4575463262
4575470464
4575481694
4575486760
4575497930
4575506414
4575513494
4575521917
4575528569
4575538884
4575546575
4575554692
4575562871
4575570439
4575578252
4575584660
4575594243
4575604192
4575610539
4575617741
4575627629
4575635747
4575640569
4575651860
4575659795
4575665776
4575673772
4575682194
4575690678
4575697331
4575706364
4575714726
4575722478
4575729985
4575739506
4575748417
4575755986
4575764409
4575772221
4575782231
4575787968
4575800114
4575808903
4575816044
4575825016
4575833378
4575842167
4575848576
4575856510
4575864750
4575872685
4575882694
4575892277
4575902042
4575910099
4575917728
4575926029
4575933414
4575939823
4575949223
4575955570
4575963566
4575971928
4575979801
4575987125
4575997562
4576004703
4576015507
4576020572
4576031193
4576036625
4576048343
4576053837
4576063175
4576074649
4576081974
4576091434
4576098697
4576107853
4576114994
4576124515
4576131473
4576141300
4576148136
4576156742
4576164676
4576174014
4576181583
4576191104
4576198795
4576208682
4576215457
4576224551
4576232303
4576238101
4576245181
4576254642
4576264224
4576271609
4576281070
4576290347
4576298099
4576307254
4576315005
4576324710
4576333194
4576340274
4576349856
4576359378
4576367984
4576375186
4576384158
4576390628
4576399417
4576408511
4576415225
4576422366
4576432315
4576439089
4576447695
4576455386
4576466433
4576474612
4576482852
4576490603
4576499575
4576507632
4576517580
4576526797
4576533205
4576542361
4576551455
4576558718
4576567385
4576575381
4576581728
4576592837
4576599306
4576608462
4576615969
4576624026
4576631655
4576639101
4576645998
4576657106
4576666323
4576674807
4576679995
4576691835
4576697145
4576708193
4576718203
4576726808
4576733583
4576742433
4576750063
4576757204
4576766420
4576773866
4576783327
4576788820
4576801088
4576807314
4576816591
4576823793
4576830751
4576839235
4576845522
4576854372
4576862184
4576869447
4576875795
4576884828
4576892702
4576900941
4576910219
4576918031
4576925783
4576932802
4576942994
4576949586
4576958497
4576965394
4576972291
4576979249
4576987184
4576993592
4577002443
4577009462
4577018251
4577024415
4577032106
4577039857
4577046937
4577053834
4577060975
4577070435
4577078858
4577085938
4577092469
4577100037
4577107972
4577115846
4577123780
4577131104
4577137696
4577145509
4577152344
4577160706
4577167237
4577179200
4577186768
4577195313
4577204407
4577210511
4577217896
4577226624
4577233460
4577242127
4577245911
4577256409
4577264771
4577273560
4577281311
4577288453
4577295594
4577303406
4577310242
4577319641
4577326538
4577334412
4577341370
4577349121
4577357056
4577364136
4577373230
4577382019
4577390930
4577398193
4577404480
4577410034
4577417358
4577421997
4577430237
4577435181
4577442139
4577448364
4577450378
4577459961
4577467041
4577471558
4577478149
4577485290
4577490784
4577497680
4577504028
4577509277
4577515198
4577520019
4577527649
4577532470
4577538574
4577544006
4577550232
4577553772
4577560669
4577566162
4577573486
4577579956
4577584045
4577587524
4577595398
4577601745
4577606079
4577612915
4577618652
4577623657
4577629638
4577635681
4577640258
4577645873
4577651672
4577657348
4577663574
4577669311
4577675231
4577680114
4577686096
4577692504
4577697753
4577702819
4577706054
4577712585
4577718322
4577724548
4577730285
4577736083
4577742126
4577747375
4577752990
4577757201
4577764037
4577768371
4577774779
4577779296
4577784850
4577790954
4577797790
4577803161
4577809081
4577814208
4577819457
4577825072
4577830993
4577837829
4577843444
4577848388
4577852599
4577859679
4577864745
4577871032
4577875914
4577882567
4577888182
4577894103
4577899657
4577905089
4577910704
4577916869
4577922606
4577928343
4577933959
4577939818
4577944518
4577950072
4577955565
4577961119
4577965941
4577970702
4577977477
4577983153
4577989073
4577994994
4578000792
4578006163
4578011717
4578016478
4578022276
4578028380
4578034727
4578040343
4578046080
4578051085
4578056029
4578062254
4578066954
4578072874
4578079771
4578084898
4578089720
4578095030
4578100950
4578107237
4578112974
4578117430
4578124571
4578129271
4578134337
4578140013
4578145201
4578149901
4578156187
4578161253
4578167479
4578173155
4578178831
4578184568
4578189939
4578195372
4578201597
4578207701
4578212767
4578219236
4578223814
4578228941
4578233396
4578239927
4578246946
4578252622
4578259336
4578265440
4578270567
4578276243
4578282346
4578287840
4578294431
4578300779
4578305479
4578312437
4578317320
4578324094
4578329954
4578336240
4578340391
4578347898
4578352842
4578358457
4578365171
4578369871
4578377500
4578384031
4578388120
4578394651
4578400144
4578404844
4578411191
4578416868
4578420408
4578426877
4578432187
4578437314
4578443906
4578448301
4578455076
4578460874
4578466001
4578471433
4578476865
4578481565
4578485776
4578494260
4578499936
4578505612
4578510678
4578515561
4578520810
4578528806
4578534299
4578538266
4578544858
4578550717
4578556210
4578560544
4578566831
4578574521
4578580380
4578585568
4578591123
4578596738
4578600949
4578605283
4578612729
4578618222
4578623837
4578629758
4578635190
4578640256
4578646237
4578652768
4578657407
4578662656
4578668332
4578673825
4578679379
4578683713
4578692196
4578697018
4578703915
4578710629
4578715573
4578721798
4578725461
4578733639
4578738461
4578743710
4578749325
4578755001
4578760739
4578766354
4578773434
4578778500
4578783505
4578789975
4578794369
4578800167
4578805355
4578811886
4578818051
4578822262
4578828732
4578833431
4578840267
4578845455
4578854000
4578859188
4578863583
4578870541
4578875546
4578880795
4578886776
4578891903
4578897640
4578903011
4578908932
4578913937
4578919247
4578926388
4578931942
4578937252
4578942867
4578949032
4578953548
4578959164
4578963619
4578972835
4578978695
4578982662
4578988460
4578993954
4578999935
4579004146
4579011226
4579017696
4579023128
4579029537
4579035152
4579039486
4579047542
4579056087
4579062557
4579068477
4579073482
4579077449
4579085262
4579090938
4579096553
4579102230
4579107784
4579113338
4579118038
4579125301
4579131526
4579136836
4579142757
4579150997
4579158260
4579163814
4579168941
4579175533
4579181819
4579186214
4579190852
4579197871
4579203670
4579208675
4579215633
4579222041
4579227107
4579232173
4579238887
4579244624
4579249934
4579255305
4579262019
4579267940
4579273250
4579278804
4579284297
4579289912
4579295344
4579302180
4579308101
4579313411
4579318538
4579323665
4579330195
4579335994
4579342158
4579347651
4579353450
4579358210
4579362483
4579368586
4579375483
4579381037
4579385859
4579391963
4579396723
4579401118
4579408747
4579413447
4579419062
4579425288
4579431025
4579436762
4579441889
4579448481
4579454035
4579459284
4579465449
4579470210
4579477046
4579482234
4579487910
4579493464
4579498713
4579504755
4579510310
4579516535
4579521723
4579528925
4579535334
4579541682
4579546625
4579552668
4579558832
4579564020
4579570124
4579576288
4579581965
4579587824
4579592402
4579598322
4579602778
4579610285
4579616938
4579622858
4579629877
4579634150
4579639521
4579643915
4579650995
4579653986
4579662836
4579668634
4579674189
4579679804
4579684076
4579691034
4579696527
4579703180
4579709833
4579714289
4579720148
4579725885
4579731806
4579734674
4579743158
4579748407
4579754022
4579759943
4579764398
4579771356
4579777216
4579782465
4579788385
4579793268
4579799371
4579804315
4579810724
4579817255
4579823053
4579828180
4579834039
4579839716
4579845758
4579851251
4579858026
4579864007
4579870477
4579875787
4579883111
4579890558
4579897821
4579905877
4579912225
4579918390
4579923517
4579930047
4579933526
4579942559
4579947564
4579953912
4579959649
4579964532
4579971002
4579976007
4579982659
4579988641
4579994256
4580000726
4580005120
4580011529
4580017449
4580023248
4580027947
4580035394
4580041986
4580048516
4580052117
4580060906
4580066461
4580072625
4580083978
4580089288
4580097405
4580103814
4580107964
4580114861
4580119317
4580126214
4580131036
4580136956
4580143120
4580148614
4580153557
4580158684
4580164727
4580170586
4580176812
4580181267
4580187676
4580192742
4580199395
4580207818
4580215569
4580222466
4580226922
4580234307
4580240960
4580247368
4580254204
4580258477
4580265313
4580270134
4580276299
4580281060
4580290886
4580298394
4580305352
4580310662
4580316826
4580322991
4580328057
4580333733
4580340080
4580346062
4580351982
4580356377
4580363396
4580368034
4580374382
4580381157
4580386772
4580392571
4580398369
4580403923
4580409416
4580416740
4580421501
4580428886
4580433647
4580440422
4580446159
4580452019
4580458244
4580462822
4580469536
4580474235
4580480766
4580486381
4580492363
4580498405
4580504448
4580509941
4580516166
4580521782
4580527458
4580532463
4580536430
4580542839
4580546989
4580553825
4580559135
4580565178
4580570243
4580576408
4580581352
4580588249
4580594902
4580600395
4580605216
4580611198
4580617729
4580622123
4580628349
4580632438
4580640190
4580645439
4580651359
4580655998
4580662284
4580666618
4580672233
4580676811
4580684684
4580690543
4580696525
4580702201
4580707999
4580713981
4580720023
4580726798
4580731498
4580738578
4580743461
4580750541
4580756034
4580762199
4580765311
4580772758
4580778800
4580784842
4580790397
4580796134
4580801749
4580806022
4580813041
4580819266
4580825004
4580829825
4580835929
4580840384
4580845389
4580852164
4580857779
4580863456
4580868888
4580874686
4580879813
4580884330
4580889640
4580895499
4580900748
4580906607
4580912345
4580917227
4580923514
4580929984
4580935050
4580940543
4580945059
4580951407
4580956473
4580961295
4580966177
4580972708
4580978568
4580984732
4580990530
4580996268
4581001395
4581007254
4581013419
4581019522
4581025015
4581029105
4581035757
4581040762
4581047293
4581052359
4581059317
4581062796
4581070120
4581076102
4581080191
4581085745
4581090994
4581096121
4581101431
4581107412
4581113272
4581120047
4581126150
4581131033
4581137137
4581141836
4581146963
4581154776
4581158316
4581165274
4581170950
4581176565
4581181570
4581186880
4581192678
4581198904
4581204641
4581209219
4581215505
4581221670
4581227163
4581231619
4581237051
4581241628
4581248403
4581254263
4581260122
4581263357
4581271230
4581278310
4581282461
4581287832
4581293142
4581299062
4581305471
4581311452
4581318044
4581323110
4581329336
4581333791
4581338552
4581346181
4581349477
4581357168
4581363454
4581369192
4581375295
4581381032
4581386953
4581391347
4581397207
4581402761
4581407827
4581413564
4581419729
4581424917
4581430898
4581435842
4581442800
4581448415
4581453725
4581457082
4581463735
4581469228
4581474416
4581480092
4581485402
4581491933
4581496572
4581503285
4581508168
4581514272
4581518605
4581524098
4581528615
4581535268
4581540883
4581546315
4581551076
4581556996
4581560475
4581567922
4581575063
4581579152
4581585133
4581590810
4581597035
4581603322
4581609120
4581614003
4581619252
4581623769
4581629872
4581635182
4581640126
4581644704
4581651845
4581658131
4581664174
4581669972
4581675648
4581680653
4581686818
4581692860
4581698720
4581703236
4581708912
4581714467
4581720814
4581726735
4581731739
4581737355
4581742054
4581749195
4581752797
4581760243
4581763600
4581771168
4581776234
4581781483
4581788258
4581792774
4581798878
4581804920
4581810597
4581816761
4581822682
4581827137
4581834156
4581839771
4581846790
4581850758
4581858082
4581861317
4581868641
4581874439
4581878529
4581885059
4581891346
4581896900
4581903004
4581907520
4581913441
4581918262
4581924427
4581928944
4581933704
4581939686
4581944446
4581950550
4581956104
4581962147
4581967823
4581973560
4581979420
4581984852
4581989490
4581994800
4582001819
4582006336
4582012073
4582016712
4582023731
4582027027
4582033374
4582039661
4582045459
4582051197
4582057117
4582062122
4582067859
4582073108
4582078479
4582084705
4582090381
4582095752
4582101123
4582107349
4582111499
4582117359
4582122119
4582129444
4582132984
4582139942
4582145252
4582150501
4582153674
4582160816
4582167224
4582171436
4582178088
4582184619
4582190906
4582195789
4582200977
4582207629
4582213794
4582218799
4582224963
4582229663
4582236194
4582241809
4582247607
4582254321
4582260119
4582265552
4582270984
4582276233
4582280261
4582286670
4582290759
4582298572
4582303759
4582313098
4582318896
4582324695
4582330859
4582337146
4582343493
4582348010
4582355395
4582358996
4582367724
4582373889
4582380419
4582387194
4582392199
4582397509
4582403430
4582409777
4582415270
4582421984
4582428149
4582433337
4582438647
4582444140
4582449816
4582455798
4582461230
4582467394
4582472582
4582478136
4582483447
4582487414
4582494494
4582499133
4582504565
4582508959
4582514819
4582519762
4582526720
4582532519
4582538195
4582543688
4582549120
4582554308
4582559618
4582565600
4582569811
4582577196
4582581469
4582587084
4582592699
4582599413
4582604540
4582611010
4582615892
4582621935
4582626329
4582632921
4582636217
4582644274
4582647631
4582655382
4582661486
4582666918
4582671678
4582676989
4582683763
4582688524
4582693895
4582698839
4582705675
4582710741
4582718309
4582721666
4582729723
4582735826
4582741686
4582748216
4582754808
4582760912
4582765062
4582773241
4582777879
4582783678
4582790269
4582795213
4582800218
4582807725
4582813341
4582818834
4582824571
4582830125
4582836717
4582841234
4582847642
4582853197
4582861436
4582866075
4582871934
4582876695
4582883897
4582888414
4582895372
4582902513
4582907945
4582911302
4582920152
4582925462
4582931077
4582937059
4582943040
4582949998
4582954759
4582961229
4582965745
4582972459
4582977037
4582983201
4582988694
4582995530
4582999009
4583006150
4583011094
4583016404
4583021958
4583027757
4583033982
4583040452
4583046616
4583051438
4583056687
4583062180
4583068528
4583073594
4583081223
4583084641
4583092576
4583098740
4583104234
4583109788
4583115220
4583121506
4583127793
4583133164
4583137742
4583142869
4583147324
4583153489
4583158616
4583165635
4583171128
4583176743
4583182847
4583188950
4583194993
4583199509
4583205185
4583210434
4583215683
4583221299
4583226487
4583232773
4583238511
4583243393
4583251755
4583257676
4583263779
4583270432
4583276841
4583282700
4583286972
4583295212
4583300461
4583306687
4583311569
4583318405
4583323776
4583329941
4583335739
4583341477
4583347702
4583353745
4583359848
4583364548
4583370407
4583376022
4583382675
4583386765
4583393845
4583399704
4583405930
4583411606
4583418503
4583424057
4583427170
4583435654
4583441635
4583447861
4583452988
4583459884
4583465866
4583470932
4583477829
4583483261
4583489059
4583495651
4583500229
4583507675
4583512497
4583518600
4583523178
4583530563
4583536117
4583542038
4583547592
4583553329
4583558700
4583564804
4583570480
4583575546
4583582138
4583589950
4583595626
4583601119
4583606857
4583612045
4583618392
4583624069
4583628646
4583634872
4583640426
4583646407
4583651351
4583657272
4583662948
4583667953
4583675521
4583680831
4583686813
4583691756
4583697799
4583703048
4583708968
4583715621
4583719039
4583726668
4583732284
4583737411
4583743575
4583749312
4583754745
4583760787
4583766829
4583771590
4583777877
4583781295
4583789657
4583796981
4583801558
4583808394
4583814681
4583820968
4583827437
4583832320
4583838668
4583845504
4583850753
4583854048
4583861006
4583867354
4583872420
4583879988
4583884261
4583890486
4583895796
4583901045
4583906539
4583912947
4583918990
4583924117
4583930525
4583937178
4583942793
4583948287
4583954817
4583961104
4583966231
4583973311
4583978804
4583985457
4583991316
4583996260
4584002852
4584008467
4584014082
4584017561
4584025496
4584031477
4584035567
4584043989
4584048567
4584054732
4584060713
4584066450
4584071333
4584077070
4584082014
4584087202
4584093977
4584098188
4584104475
4584110395
4584115461
4584121321
4584127119
4584133345
4584137251
4584144453
4584149641
4584154951
4584161299
4584166670
4584172468
4584177717
4584184065
4584189253
4584195539
4584200361
4584206587
4584212751
4584218855
4584224958
4584230757
4584236372
4584241071
4584248579
4584254865
4584260542
4584265424
4584272016
4584277448
4584283918
4584289350
4584295393
4584301923
4584309370
4584314741
4584320722
4584326459
4584330976
4584338788
4584343854
4584350873
4584356244
4584361310
4584367902
4584373212
4584378827
4584384931
4584391401
4584395917
4584402143
4584407026
4584412702
4584416242
4584425031
4584430707
4584434919
4584441083
4584446271
4584451581
4584458112
4584464765
4584469342
4584475812
4584483502
4584488690
4584494306
4584500287
4584507794
4584512555
4584518964
4584522077
4584529340
4584535138
4584540570
4584546307
4584551556
4584558331
4584563458
4584569257
4584573529
4584580365
4584585309
4584592084
4584598126
4584603436
4584608990
4584614484
4584620404
4584625470
4584632428
4584638287
4584644391
4584649029
4584655255
4584660016
4584665753
4584671551
4584676922
4584683026
4584688092
4584693707
4584697613
4584703717
4584709759
4584717022
4584722210
4584726971
4584731244
4584737896
4584742779
4584749432
4584755841
4584761822
4584767681
4584772442
4584777752
4584783734
4584789349
4584793804
4584800457
4584805950
4584811566
4584816998
4584823223
4584827923
4584834149
4584840801
4584847088
4584853497
4584858013
4584864178
4584870770
4584876141
4584881878
4584888714
4584893963
4584899761
4584905498
4584910992
4584915447
4584921612
4584928387
4584931805
4584938701
4584945354
4584950664
4584956096
4584961040
4584967388
4584973369
4584978618
4584982891
4584988811
4584994915
4585000103
4585005840
4585013347
4585018840
4585023052
4585029277
4585034771
4585041545
4585047405
4585052898
4585057781
4585064678
4585067607
4585075359
4585079021
4585085247
4585091594
4585097209
4585103679
4585108013
4585113872
4585118144
4585124248
4585128887
4585137126
4585141155
4585146770
4585152568
4585157756
4585163310
4585168926
4585175578
4585180278
4585186443
4585192668
4585198039
4585203654
4585209270
4585216960
4585223125
4585227885
4585233562
4585239726
4585244304
4585250468
4585255168
4585262309
4585268229
4585273967
4585277751
4585284221
4585289897
4585295817
4585301555
4585306376
4585313334
4585317851
4585323710
4585327922
4585334086
4585339885
4585345378
4585351786
4585358439
4585363627
4585369425
4585374674
4585381022
4585388896
4585395426
4585401347
4585406535
4585411784
4585417338
4585423319
4585431315
4585436808
4585441752
4585446574
4585453410
4585458659
4585463725
4585469828
4585475809
4585481608
4585486063
4585492533
4585496867
4585502421
4585507426
4585516764
4585520731
4585526530
4585532206
4585537455
4585543314
4585549235
4585557169
4585561869
4585568339
4585573588
4585579447
4585584879
4585589945
4585595499
4585600870
4585607401
4585611185
4585617533
4585626810
4585631693
4585637064
4585645487
4585655374
4585661539
4585668558
4585673441
4585679911
4585686319
4585692056
4585696756
4585702616
4585707804
4585715921
4585720682
4585727762
4585733194
4585740640
4585746317
4585755472
4585759500
4585764383
4585773050
4585778360
4585783426
4585789590
4585794229
4585800211
4585806680
4585812723
4585817422
4585821939
4585828531
4585834451
4585839761
4585845498
4585850564
4585856058
4585860757
4585865579
4585871682
4585877603
4585885293
4585891275
4585897012
4585902993
4585908365
4585915323
4585918802
4585926919
4585932046
4585937051
4585943521
4585948709
4585954385
4585958840
4585966592
4585970376
4585977395
4585980630
4585987527
4585993752
4585999551
4586007424
4586012917
4586018289
4586023843
4586028787
4586034463
4586038979
4586045937
4586051125
4586056496
4586061684
4586069253
4586074319
4586079568
4586085915
4586091408
4586096658
4586101907
4586109170
4586114907
4586120827
4586126198
4586131508
4586137368
4586142617
4586147439
4586152749
4586160012
4586165688
4586171303
4586176857
4586181862
4586187966
4586193520
4586199318
4586206582
4586212563
4586217324
4586223183
4586229042
4586235085
4586240029
4586245095
4586252175
4586256935
4586262795
4586267678
4586274941
4586278603
4586285256
4586291054
4586296669
4586301735
4586306618
4586312843
4586317604
4586323769
4586330483
4586335854
4586341103
4586346962
4586351784
4586357887
4586363869
4586369606
4586374184
4586381386
4586386879
4586393104
4586398659
4586404640
4586410499
4586416542
4586423195
4586428200
4586434730
4586438515
4586445595
4586452125
4586458778
4586463783
4586468117
4586474647
4586479042
4586485634
4586489723
4586496925
4586502113
4586507301
4586513588
4586518470
4586523903
4586530799
4586536598
4586539833
4586547462
4586552833
4586558692
4586565223
4586570960
4586577857
4586581459
4586589088
4586594215
4586600318
4586606117
4586610755
4586617347
4586623084
4586628883
4586634437
4586639869
4586645728
4586650428
4586658180
4586662635
4586669288
4586673133
4586680579
4586686011
4586691627
4586697181
4586702247
4586708228
4586713233
4586719092
4586724891
4586729957
4586737098
4586742835
4586748450
4586752967
4586759253
4586763526
4586770728
4586777747
4586782081
4586789161
4586792640
4586799903
4586805640
4586811866
4586818457
4586823401
4586829932
4586835791
4586842505
4586847327
4586853125
4586859656
4586864051
4586870154
4586875098
4586882117
4586885352
4586892798
4586901282
4586906653
4586912879
4586918067
4586922949
4586931189
4586936682
4586945044
4586950537
4586957434
4586963416
4586968542
4586973975
4586980994
4586988501
4586993140
4586999487
4587005591
4587011023
4587016760
4587020117
4587027380
4587033423
4587039587
4587045508
4587049902
4587056311
4587063391
4587068762
4587074133
4587081030
4587086584
4587091223
4587096777
4587103552
4587107885
4587114538
4587120092
4587125524
4587131384
4587136206
4587143103
4587148107
4587154028
4587159460
4587165380
4587171423
4587178442
4587184423
4587189855
4587196569
4587201452
4587205969
4587212927
4587220922
4587225805
4587231481
4587236364
4587243200
4587248754
4587256078
4587261572
4587266027
4587273351
4587278783
4587285070
4587290075
4587294775
4587300939
4587306615
4587311620
4587319128
4587323583
4587330541
4587335485
4587341710
4587347326
4587353673
4587360692
4587365697
4587371312
4587377355
4587382543
4587389196
4587394933
4587400487
4587407567
4587414220
4587419530
4587425878
4587431371
4587436986
4587441381
4587448583
4587453954
4587459020
4587464818
4587471471
4587475987
4587481481
4587487828
4587495275
4587500890
4587506322
4587512547
4587518041
4587523534
4587530492
4587537206
4587541661
4587549168
4587554173
4587559361
4587565953
4587571263
4587578770
4587584386
4587590977
4587596287
4587600926
4587606847
4587613866
4587619542
4587625523
4587630406
4587636693
4587643101
4587649632
4587655919
4587659276
4587666661
4587672276
4587677220
4587683873
4587690159
4587695469
4587699192
4587705052
4587710362
4587716893
4587722569
4587726536
4587734898
4587739659
4587745457
4587751438
4587757664
4587760899
4587768101
4587774266
4587779392
4587785191
4587788243
4587797337
4587803318
4587808811
4587815281
4587821262
4587826450
4587830296
4587837315
4587842930
4587847019
4587854099
4587860813
4587865330
4587869602
4587875950
4587882481
4587888645
4587894871
4587900181
4587905979
4587910740
4587917515
4587920933
4587928928
4587936619
4587941501
4587948215
4587953647
4587958591
4587964145
4587970127
4587974460
4587980320
4587986057
4587991428
4587996494
4588001743
4588007297
4588014194
4588019382
4588025180
4588029697
4588035251
4588041172
4588047397
4588053134
4588058322
4588063999
4588069004
4588075290
4588079807
4588087558
4588092929
4588098850
4588103977
4588109470
4588113986
4588120334
4588126071
4588129611
4588137241
4588142490
4588147739
4588152560
4588158847
4588164523
4588169467
4588176059
4588181857
4588187045
4588191684
4588197604
4588203342
4588207675
4588215182
4588220309
4588229220
4588234591
4588240634
4588246554
4588252719
4588257785
4588262851
4588269870
4588274997
4588281283
4588287570
4588292819
4588299167
4588305148
4588310946
4588317111
4588321872
4588329135
4588334201
4588339877
4588345675
4588351901
4588357455
4588361972
4588369601
4588374301
4588380709
4588384066
4588392672
4588399447
4588403781
4588411105
4588417635
4588424288
4588427706
4588434969
4588441439
4588446627
4588452486
4588458773
4588464877
4588470370
4588475314
4588480746
4588485995
4588492159
4588496859
4588505160
4588508272
4588515291
4588520540
4588525728
4588532442
4588538851
4588545077
4588550631
4588555147
4588560640
4588566561
4588571566
4588579012
4588585054
4588591280
4588597078
4588603548
4588608980
4588616060
4588623568
4588629000
4588634066
4588639620
4588645357
4588650850
4588655611
4588661409
4588668123
4588671968
4588679415
4588684786
4588690035
4588695894
4588700716
4588708833
4588714510
4588719759
4588725496
4588729952
4588737520
4588742220
4588749300
4588752596
4588759309
4588764864
4588770235
4588776704
4588782808
4588788911
4588794466
4588799959
4588804719
4588809907
4588816133
4588822236
4588828767
4588834566
4588839815
4588845125
4588850374
4588856111
4588860933
4588868379
4588874910
4588880281
4588885896
4588891206
4588896150
4588902497
4588909211
4588915010
4588920686
4588925691
4588931184
4588937593
4588944001
4588950288
4588957063
4588962068
4588967866
4588973481
4588978547
4588984773
4588991975
4588995637
4589003327
4589008149
4589013337
4589019990
4589024140
4589031281
4589036103
4589042268
4589047761
4589053071
4589058015
4589063325
4589070771
4589075959
4589081635
4589087556
4589093415
4589100922
4589106843
4589112641
4589117951
4589123261
4589128449
4589134553
4589140778
4589147858
4589153229
4589158539
4589163422
4589169648
4589175141
4589180573
4589185273
4589192719
4589198212
4589202546
4589209076
4589213715
4589220063
4589224701
4589232209
4589237519
4589242646
4589247162
4589252716
4589258271
4589263031
4589271515
4589275849
4589281769
4589288605
4589293060
4589298676
4589303375
4589309540
4589315399
4589320526
4589326263
4589331696
4589336517
4589341095
4589347748
4589353119
4589358368
4589364777
4589369659
4589375641
4589382355
4589388275
4589393829
4589399078
4589402862
4589410797
4589417267
4589423553
4589430450
4589434112
4589441314
4589446625
4589453277
4589457550
4589463470
4589469146
4589473968
4589481537
4589486847
4589490509
4589497589
4589502349
4589509246
4589513092
4589520721
4589525848
4589531036
4589537078
4589543548
4589549774
4589555694
4589560394
4589566375
4589571990
4589576751
4589583526
4589590667
4589595672
4589600677
4589606902
4589612396
4589617217
4589623260
4589629791
4589635162
4589640228
4589646636
4589650970
4589658172
4589663787
4589669097
4589677093
4589681243
4589688079
4589692596
4589698150
4589705169
4589710723
4589716338
4589720611
4589726531
4589732207
4589738067
4589743621
4589749114
4589754363
4589759734
4589765349
4589771026
4589777007
4589783599
4589789092
4589794707
4589800139
4589805693
4589810027
4589816985
4589822051
4589827544
4589832427
4589838286
4589843230
4589850249
4589855437
4589861296
4589867278
4589871977
4589877776
4589883208
4589889922
4589894560
4589900115
4589907134
4589911772
4589917754
4589924406
4589928496
4589935759
4589941130
4589947966
4589952238
4589958220
4589964568
4589970488
4589975615
4589981718
4589988676
4589993437
4589998137
4590005705
4590009917
4590016203
4590022795
4590027373
4590034941
4590039091
4590044340
4590050139
4590055510
4590061735
4590066984
4590072294
4590078520
4590083403
4590089384
4590094572
4590100004
4590105314
4590111113
4590118376
4590124235
4590130522
4590135038
4590140837
4590146574
4590151579
4590157438
4590162931
4590168058
4590174467
4590179289
4590185880
4590191129
4590196317
4590200956
4590206388
4590212003
4590217313
4590222257
4590228117
4590234525
4590239103
4590246793
4590251493
4590256681
4590261198
4590267850
4590272611
4590278593
4590287382
4590292448
4590298673
4590303251
4590309781
4590316251
4590322233
4590327299
4590333829
4590338285
4590343900
4590348417
4590354886
4590360624
4590366239
4590372342
4590378873
4590384183
4590389920
4590394559
4590399686
4590405179
4590409207
4590417203
4590422330
4590428189
4590434354
4590440824
4590445645
4590452176
4590458402
4590466397
4590470975
4590476956
4590484281
4590490323
4590495206
4590502042
4590507901
4590514493
4590520169
4590528714
4590534573
4590540494
4590545377
4590551968
4590558621
4590564114
4590568814
4590573819
4590580716
4590585904
4590592618
4590598050
4590606351
4590611233
4590618191
4590622830
4590629971
4590635403
4590641812
4590646390
4590652066
4590657254
4590662076
4590669766
4590674954
4590680264
4590685696
4590691555
4590696194
4590702969
4590709439
4590715298
4590720974
4590725064
4590731716
4590735928
4590742886
4590748135
4590754971
4590760403
4590767605
4590771267
4590777981
4590782314
4590788479
4590793606
4590799099
4590806362
4590812527
4590818447
4590822659
4590829006
4590833584
4590838833
4590845608
4590851345
4590856472
4590863308
4590869228
4590875332
4590881313
4590885952
4590894009
4590898708
4590905727
4590909939
4590915188
4590920986
4590925991
4590931057
4590938137
4590942714
4590948696
4590954860
4590960720
4590966213
4590970119
4590975734
4590981655
4590987575
4590993862
4590999904
4591006252
4591011440
4591017543
4591022487
4591027675
4591034694
4591039638
4591045680
4591050868
4591056911
4591063381
4591068752
4591073940
4591078334
4591084377
4591090480
4591096584
4591103664
4591108913
4591113673
4591119350
4591123866
4591130153
4591135402
4591140285
4591145473
4591150783
4591156642
4591162746
4591168788
4591175441
4591181117
4591186915
4591194972
4591200343
4591207118
4591212184
4591218471
4591222987
4591228724
4591235011
4591240748
4591244105
4591250270
4591255885
4591263331
4591269984
4591276454
4591282862
4591290187
4591295802
4591301234
4591306666
4591313075
4591317958
4591323573
4591328395
4591335719
4591339808
4591346766
4591353419
4591358485
4591365260
4591371363
4591377955
4591383936
4591389796
4591397059
4591402979
4591409144
4591414881
4591420618
4591426173
4591431910
4591437281
4591443385
4591449610
4591455347
4591460352
4591465845
4591471339
4591477320
4591482630
4591489466
4591494776
4591500513
4591506617
4591512232
4591518274
4591523829
4591529322
4591535242
4591540430
4591547999
4591552088
4591557947
4591563868
4591570887
4591575281
4591581079
4591586756
4591593225
4591598474
4591603174
4591609888
4591614771
4591621302
4591626673
4591632532
4591637598
4591643823
4591649195
4591655115
4591664087
4591667932
4591674707
4591680261
4591686670
4591693933
4591701196
4591706751
4591713220
4591717920
4591723901
4591730615
4591736047
4591741541
4591746912
4591753137
4591757471
4591763574
4591770654
4591776086
4591781824
4591787561
4591792322
4591798303
4591804284
4591809717
4591815332
4591821252
4591825525
4591831567
4591837243
4591842676
4591850183
4591855615
4591861230
4591866845
4591871728
4591877465
4591884057
4591889856
4591895166
4591900720
4591905908
4591911828
4591917504
4591922265
4591927209
4591934350
4591939538
4591945458
4591951196
4591956933
4591962487
4591967736
4591975427
4591981408
4591986535
4591991601
4591997216
4592002404
4592008202
4592014611
4592024255
4592029504
4592036950
4592041283
4592049462
4592055810
4592061242
4592067345
4592071801
4592077355
4592085900
4592091820
4592098168
4592103783
4592109276
4592114709
4592123070
4592126793
4592135155
4592141869
4592147118
4592153527
4592159569
4592164330
4592170067
4592175072
4592181359
4592187218
4592192650
4592197655
4592204369
4592210350
4592216088
4592220848
4592227013
4592232628
4592238671
4592243798
4592249352
4592254845
4592260094
4592267113
4592271446
4592278893
4592284569
4592288841
4592296105
4592300743
4592308067
4592313866
4592318016
4592324181
4592329735
4592335533
4592341148
4592346947
4592352318
4592359154
4592364647
4592370079
4592376182
4592381126
4592389000
4592394554
4592399681
4592404930
4592410667
4592416527
4592421715
4592427940
4592433616
4592438804
4592444908
4592450218
4592456199
4592462669
4592468834
4592474083
4592479454
4592484703
4592489891
4592495933
4592500816
4592508201
4592513450
4592518638
4592523887
4592530723
4592536766
4592543052
4592549400
4592555442
4592561241
4592567161
4592571555
4592578086
4592582420
4592589317
4592595603
4592601096
4592605918
4592611594
4592618003
4592625877
4592631919
4592636863
4592642478
4592647910
4592652610
4592659202
4592665671
4592671409
4592675986
4592680930
4592688193
4592693015
4592698508
4592705283
4592711875
4592717368
4592722861
4592728110
4592734763
4592739890
4592745444
4592751120
4592756430
4592761741
4592766990
4592773581
4592778708
4592784568
4592790366
4592795310
4592800864
4592806174
4592811850
4592817343
4592823020
4592826743
4592833029
4592839316
4592844626
4592849021
4592855307
4592861289
4592867026
4592870322
4592877524
4592883322
4592888999
4592894614
4592901206
4592906882
4592911520
4592917807
4592923422
4592929037
4592934470
4592940817
4592946555
4592951010
4592957724
4592962790
4592969321
4592972861
4592979635
4592983359
4592990439
4592996542
4593001608
4593007406
4593011374
4593018698
4593025839
4593030844
4593037741
4593043234
4593048361
4593053915
4593060934
4593065817
4593072714
4593078146
4593083334
4593087057
4593094015
4593101767
4593107138
4593112875
4593117819
4593124655
4593128195
4593135641
4593141928
4593149008
4593155599
4593160665
4593167257
4593172872
4593179281
4593185140
4593190939
4593196676
4593202718
4593207479
4593214254
4593219320
4593224813
4593231710
4593238546
4593242818
4593252523
4593258321
4593263998
4593269124
4593274435
4593280355
4593285116
4593291891
4593296163
4593303731
4593308248
4593315389
4593320089
4593324666
4593331807
4593337240
4593343221
4593348592
4593354573
4593361104
4593365865
4593370748
4593377401
4593381307
4593388448
4593395345
4593400960
4593407247
4593412740
4593418233
4593423665
4593429891
4593436421
4593442037
4593447469
4593453328
4593458638
4593464436
4593471700
4593477864
4593482808
4593488301
4593493184
4593495870
4593501851
4593507710
4593510457
4593516194
4593521687
4593526997
4593531758
4593537373
4593543111
4593547505
4593553670
4593557576
4593563069
4593568196
4593576008
4593580220
4593584798
4593589253
4593593587
4593597859
4593603474
4593607075
4593611287
4593617146
4593620808
4593627583
4593633442
4593637227
4593642292
4593647358
4593651387
4593657490
4593662617
4593668110
4593672688
4593680439
4593686177
4593690754
4593694722
4593699055
4593705830
4593710591
4593713642
4593720173
4593722737
4593730366
4593735005
4593740315
4593745197
4593749226
4593754841
4593758747
4593764118
4593768574
4593774555
4593780598
4593785603
4593789082
4593792927
4593798237
4593801960
4593806965
4593813374
4593818745
4593822773
4593826557
4593831379
4593834980
4593840534
4593845844
4593849506
4593854511
4593858723
4593862446
4593865925
4593870869
4593875507
4593880268
4593884907
4593888569
4593892353
4593896625
4593901386
4593905720
4593910236
4593915973
4593921528
4593926471
4593931110
4593935688
4593940021
4593945636
4593952350
4593957477
4593961872
4593966938
4593972065
4593977863
4593981586
4593987812
4593992206
4593996662
4593999836
4594004596
4594011066
4594015766
4594019489
4594023822
4594027484
4594032428
4594036640
4594040180
4594045978
4594050922
4594055988
4594061298
4594066547
4594071246
4594075824
4594081806
4594085712
4594089984
4594093463
4594098895
4594104877
4594111285
4594116718
4594120502
4594126239
4594132220
4594138751
4594143756
4594150043
4594155963
4594161456
4594166522
4594170978
4594175860
4594180804
4594184344
4594190936
4594196124
4594200519
4594206622
4594211139
4594216754
4594221148
4594228045
4594232806
4594238604
4594244525
4594249713
4594254474
4594260211
4594263751
4594269671
4594274676
4594281817
4594287005
4594292742
4594297076
4594302996
4594307513
4594312823
4594318133
4594325884
4594331500
4594336566
4594341632
4594348040
4594353655
4594355853
4594364642
4594373187
4594379656
4594385699
4594390093
4594396258
4594401568
4594405352
4594412615
4594418047
4594425372
4594430010
4594434649
4594438921
4594445818
4594450457
4594457659
4594462298
4594469683
4594475359
4594480242
4594487322
4594493059
4594498858
4594503008
4594510454
4594515520
4594521319
4594526629
4594532610
4594538591
4594543047
4594549456
4594554094
4594560503
4594566607
4594572039
4594577288
4594581743
4594587114
4594593584
4594598528
4594604448
4594609697
4594613970
4594619463
4594624590
4594629900
4594635149
4594642351
4594647478
4594653703
4594664140
4594670732
4594674761
4594680803
4594686418
4594693010
4594697710
4594704546
4594709734
4594716325
4594721819
4594727007
4594730302
4594737199
4594743242
4594749345
4594754899
4594760698
4594766435
4594771806
4594776567
4594781816
4594786638
4594794206
4594800432
4594805681
4594811967
4594817338
4594821611
4594827043
4594833391
4594839372
4594845903
4594852433
4594858232
4594861650
4594868119
4594873307
4594878251
4594884233
4594889421
4594894242
4594900224
4594904924
4594910112
4594915361
4594920243
4594925004
4594932328
4594938798
4594943986
4594948930
4594954362
4594958146
4594964005
4594968522
4594974625
4594980973
4594986588
4594992570
4594997086
4595002091
4595005753
4595012101
4595017777
4595024369
4595030900
4595035477
4595042680
4595047562
4595053727
4595061417
4595068314
4595073563
4595079117
4595084794
4595089860
4595094376
4595100724
4595105851
4595113724
4595119401
4595124466
4595130509
4595135453
4595141312
4595147599
4595153153
4595159012
4595165482
4595170609
4595176895
4595181839
4595188187
4595191910
4595199173
4595209061
4595214188
4595219742
4595225174
4595229508
4595236099
4595240006
4595249161
4595256607
4595261978
4595267838
4595272354
4595276077
4595283524
4595287308
4595294205
4595300064
4595304764
4595310623
4595315994
4595321487
4595325821
4595332474
4595337112
4595344376
4595349075
4595354690
4595360672
4595362747
4595371719
4595377273
4595382095
4595388565
4595394180
4595399307
4595405349
4595410049
4595416397
4595422073
4595428665
4595433365
4595439529
4595444351
4595450698
4595455703
4595458938
4595466446
4595471756
4595476577
4595482498
4595489334
4595492569
4595498550
4595503982
4595510330
4595514968
4595520156
4595524795
4595531997
4595536880
4595541702
4595546340
4595552932
4595557083
4595560439
4595568252
4595576064
4595580886
4595586623
4595592300
4595597732
4595602798
4595609512
4595617324
4595624099
4595630202
4595637099
4595643081
4595649917
4595659072
4595664809
4595671096
4595676040
4595683547
4595687026
4595692885
4595698012
4595704299
4595710280
4595715163
4595720229
4595726699
4595735305
4595741896
4595746962
4595753493
4595758010
4595766494
4595770583
4595778579
4595784560
4595789016
4595793593
4595801100
4595805251
4595812392
4595817031
4595821181
4595830702
4595837966
4595844618
4595849135
4595853835
4595857741
4595866896
4595871230
4595876418
4595881545
4595887953
4595893446
4595899367
4595904189
4595909865
4595915663
4595921767
4595928358
4595930617
4595939223
4595941298
4595950819
4595955824
4595963148
4595968825
4595973524
4595977186
4595984755
4595988844
4595996962
4596001906
4596006544
4596013991
4596019911
4596026014
4596031752
4596036573
4596042372
4596047926
4596053785
4596060194
4596065626
4596071363
4596077284
4596082777
4596089430
4596094068
4596099195
4596105482
4596110792
4596116651
4596121473
4596127638
4596132643
4596139601
4596144117
4596148451
4596154920
4596162855
4596167433
4596173597
4596178663
4596185438
4596190748
4596194654
4596203199
4596208936
4596215284
4596217237
4596227979
4596232801
4596238477
4596244276
4596251356
4596257337
4596264539
4596270093
4596274244
4596279004
4596285718
4596291761
4596296399
4596301771
4596305494
4596314649
4596318433
4596326551
4596330396
4596338208
4596344251
4596349195
4596356336
4596368665
4596381482
4596393689
4596398938
4596410413
4596418714
4596427991
4596435987
4596444715
4596452527
4596457715
4596463147
4596470899
4596476880
4596483411
4596488782
4596493359
4596497449
4596502759
4596507581
4596511914
4596518140
4596523511
4596528516
4596533520
4596538037
4596543652
4596548413
4596553723
4596558301
4596564221
4596570141
4596575207
4596580639
4596586682
4596592602
4596598706
4596604016
4596608655
4596614026
4596618725
4596625866
4596629895
4596636792
4596643139
4596648510
4596652417
4596659314
4596664502
4596670422
4596675915
4596681713
4596687817
4596694287
4596698925
4596704846
4596709423
4596714245
4596719677
4596723950
4596729321
4596733959
4596739819
4596744763
4596750012
4596758740
4596765270
4596777416
4596786083
4596794933
4596800549
4596814648
4596824230
4596832165
4596843639
4596853588
4596861767
4596868847
4596876110
4596885082
4596893505
4596902050
4596913707
4596921398
4596929149
4596935375
4596944042
4596952404
4596960033
4596969432
4596976879
4596987804
4596995861
4597004344
4597011730
4597020214
4597027782
4597036510
4597044017
4597051524
4597059947
4597068431
4597076427
4597084911
4597092845
4597100536
4597110545
4597117564
4597125987
4597133006
4597143993
4597150828
4597159556
4597167552
4597176158
4597184154
4597191844
4597199412
4597207103
4597214122
4597221690
4597229930
4597238292
4597245677
4597253672
4597260325
4597269480
4597277537
4597295970
4597311106
4597331675
4597351389
4597369883
4597389048
4597405589
4597424509
4597444224
4597456248
4597463694
4597469736
4597479319
4597492136
4597504831
4597518747
4597532358
4597545420
4597556528
4597565561
4597572275
4597580454
4597588632
4597597055
4597604074
4597611215
4597618173
4597625498
4597633310
4597641123
4597648569
4597656320
4597664072
4597672922
4597681406
4597688058
4597696054
4597702402
4597710275
4597717966
4597724008
4597732492
4597738229
4597748483
4597756357
4597766916
4597776132
4597782419
4597789499
4597797677
4597805246
4597812448
4597821359
4597828927
4597836801
4597846811
4597855966
4597864572
4597871408
4597878610
4597887094
4597894662
4597902230
4597910165
4597918832
4597926339
4597941171
4597948922
4597956796
4597965524
4597974191
4597984505
4597990121
4597999459
4598008614
4598015633
4598023995
4598031502
4598038277
4598046761
4598053597
4598063119
4598071480
4598079110
4598086922
4598094979
4598101632
4598109810
4598118416
4598125618
4598134224
4598141365
4598150826
4598158638
4598164742
4598172859
4598180855
4598191048
4598197762
4598206551
4598214546
4598221932
4598226631
4598237373
4598245064
4598253426
4598259407
4598265083
4598269478
4598275215
4598285286
4598292000
4598296822
4598301949
4598306770
4598310799
4598316475
4598322456
4598326851
4598332344
4598337288
4598342659
4598346687
4598353584
4598359321
4598364937
4598369942
4598374763
4598381477
4598385994
4598391548
4598395698
4598401191
4598406501
4598411506
4598415718
4598420417
4598424446
4598430000
4598435005
4598440254
4598445320
4598449897
4598455085
4598459419
4598464668
4598470222
4598474372
4598480049
4598484077
4598488899
4598492927
4598500434
4598504219
4598510749
4598519782
4598522712
4598528571
4598532966
4598539192
4598544624
4598549445
4598554328
4598559638
4598563789
4598566840
4598573798
4598580268
4598585273
4598589973
4598595283
4598599799
4598604072
4598610236
4598615852
4598621040
4598626472
4598631232
4598637519
4598641181
4598646064
4598651130
4598654914
4598660712
4598666327
4598671515
4598677802
4598683234
4598689094
4598694770
4598700080
4598705573
4598711005
4598716559
4598721259
4598726569
4598732489
4598736884
4598743659
4598749274
4598755683
4598759955
4598766547
4598770148
4598777350
4598783271
4598790290
4598796271
4598801581
4598805548
4598811469
4598815497
4598823004
4598827887
4598834052
4598840338
4598848395
4598859808
4598866827
4598873724
4598879279
4598887579
4598894476
4598900030
4598904974
4598911505
4598916022
4598922736
4598927618
4598932928
4598937689
4598943304
4598949713
4598953985
4598959295
4598965399
4598970282
4598977301
4598983038
4598988043
4598994391
4599000250
4599006048
4599011602
4599017035
4599021795
4599027411
4599033819
4599035711
4599044989
4599049627
4599055731
4599059881
4599068975
4599076788
4599081304
4599086553
4599092352
4599097662
4599104254
4599109930
4599114630
4599119085
4599125372
4599131658
4599137762
4599142462
4599148321
4599153387
4599156866
4599165594
4599169439
4599176946
4599180730
4599187627
4599192998
4599199834
4599204778
4599210821
4599215581
4599221746
4599227361
4599236272
4599241277
4599246892
4599252447
4599259344
4599264470
4599271428
4599275945
4599282537
4599289251
4599292791
4599299566
4599306218
4599312322
4599318425
4599325017
4599329656
4599337041
4599342229
4599347722
4599353948
4599360112
4599367742
4599373113
4599379094
4599385259
4599392705
4599398320
4599404058
4599409123
4599417180
4599422063
4599428410
4599434880
4599440495
4599447698
4599452519
4599459966
4599464787
4599473882
4599480229
4599485905
4599491093
4599498418
4599503361
4599510197
4599517583
4599524296
4599528935
4599535649
4599540410
4599547673
4599552556
4599559147
4599565251
4599570439
4599577580
4599581425
4599587529
4599593327
4599599186
4599603825
4599610356
4599614811
4599622563
4599628178
4599633366
4599638310
4599646305
4599651005
4599657109
4599662907
4599669377
4599673954
4599679386
4599686894
4599689152
4599700382
4599707157
4599712345
4599720585
4599726627
4599733708
4599741276
4599745182
4599753361
4599759708
4599764713
4599769840
4599775517
4599783146
4599789066
4599794926
4599799381
4599804081
4599809696
4599815800
4599821110
4599828739
4599835148
4599839664
4599845524
4599850345
4599856876
4599862308
4599867191
4599873905
4599879581
4599884525
4599890873
4599895145
4599901493
4599907230
4599912723
4599918216
4599924991
4599931278
4599936222
4599940616
4599946903
4599951480
4599957340
4599963565
4599966983
4599974430
4599979618
4599985111
4599991214
4599997684
4600003482
4600010135
4600016300
4600022037
4600027469
4600033573
4600039676
4600044803
4600049014
4600055972
4600061527
4600067508
4600074283
4600081363
4600086612
4600093997
4600099612
4600105838
4600111880
4600120853
4600126773
4600132510
4600137515
4600143680
4600148318
4600154422
4600160708
4600167422
4600172061
4600177554
4600182010
4600189151
4600194034
4600200076
4600205508
4600211734
4600217532
4600222537
4600228091
4600233584
4600239871
4600245120
4600249697
4600256839
4600262820
4600266055
4600273318
4600278994
4600284426
4600288638
4600297061
4600304995
4600312197
4600317813
4600322878
4600327700
4600333376
4600338259
4600345400
4600350832
4600356814
4600363467
4600369021
4600373843
4600378909
4600384951
4600390749
4600395632
4600402163
4600406863
4600412600
4600418642
4600423098
4600428835
4600434450
4600439699
4600445437
4600452212
4600455385
4600461489
4600466250
4600473208
4600479067
4600483645
4600491945
4600498232
4600503359
4600509707
4600514528
4600520815
4600525698
4600532534
4600537722
4600544741
4600549623
4600555788
4600560182
4600566652
4600571413
4600576723
4600583132
4600587953
4600595339
4600600893
4600605043
4600609865
4600616152
4600621523
4600627992
4600634950
4600640566
4600645204
4600650942
4600656984
4600662843
4600667421
4600674074
4600680727
4600688112
4600693300
4600698183
4600704530
4600710023
4600715944
4600722780
4600728639
4600735963
4600740419
4600746095
4600751588
4600757387
4600763917
4600768861
4600774415
4600780275
4600785096
4600789918
4600795594
4600802003
4600808229
4600812806
4600819459
4600824525
4600830445
4600835023
4600841737
4600847230
4600852296
4600858399
4600864381
4600870973
4600876832
4600882386
4600886903
4600894654
4600901063
4600909059
4600914308
4600919496
4600926454
4600931703
4600937562
4600941834
4600948487
4600952638
4600960206
4600963929
4600969788
4600975953
4600982362
4600987855
4600994935
4601000733
4601005616
4601010926
4601017213
4601022645
4601029359
4601034669
4601040772
4601045350
4601051697
4601056946
4601060486
4601067994
4601075257
4601079773
4601085267
4601090332
4601095948
4601101441
4601105896
4601111878
4601119324
4601125061
4601129578
4601136048
4601140686
4601145020
4601151795
4601156678
4601163086
4601166809
4601174073
4601178528
4601185730
4601191040
4601196045
4601200928
4601207276
4601214844
4601221008
4601225952
4601230774
4601235046
4601241272
4601246399
4601251099
4601258301
4601262024
4601268921
4601273193
4601281494
4601288147
4601293518
4601299316
4601305359
4601311157
4601316467
4601324402
4601329223
4601335937
4601340210
4601346741
4601351135
4601357422
4601363586
4601369079
4601375244
4601379822
4601385071
4601391601
4601397339
4601402893
4601409668
4601415222
4601420288
4601426879
4601432067
4601438476
4601443420
4601449401
4601454711
4601458679
4601466857
4601470642
4601476989
4601482055
4601488098
4601493896
4601500305
4601509704
4601515136
4601520263
4601526489
4601532348
4601537170
4601543517
4601548400
4601555541
4601561645
4601567077
4601572082
4601578857
4601583739
4601590026
4601592040
4601600707
4601606567
4601611632
4601617797
4601622253
4601628417
4601634215
4601639281
4601644103
4601651244
4601657470
4601663146
4601668822
4601675292
4601681579
4601686461
4601691954
4601698058
4601704772
4601709349
4601713622
4601721556
4601728087
4601732787
4601736510
4601745055
4601748656
4601756407
4601760009
4601768370
4601773009
4601780638
4601785765
4601792906
4601798583
4601805052
4601811888
4601817931
4601822691
4601829100
4601836119
4601838500
4601848326
4601852599
4601860106
4601865721
4601872923
4601878416
4601884398
4601889586
4601896788
4601906065
4601911742
4601921141
4601926756
4601934080
4601941466
4601948729
4601954283
4601963743
4601968931
4601976072
4601979979
4601987059
4601992491
4601998716
4602003965
4602009581
4602014952
4602021543
4602026915
4602033812
4602038572
4602045530
4602050840
4602054380
4602063108
4602067442
4602075132
4602081236
4602087461
4602092710
4602098448
4602103636
4602110594
4602117368
4602122984
4602128172
4602139036
4602146482
4602151914
4602159177
4602163938
4602170347
4602176817
4602181882
4602187070
4602193906
4602199277
4602203855
4602211057
4602217100
4602223325
4602229490
4602234800
4602241025
4602246213
4602252256
4602257993
4602263791
4602268796
4602274717
4602279783
4602285215
4602289365
4602295347
4602301023
4602305906
4602313718
4602321225
4602328916
4602334165
4602341306
4602348142
4602354123
4602360532
4602366818
4602371579
4602378781
4602384763
4602389829
4602396848
4602403684
4602409482
4602414304
4602420712
4602424924
4602430295
4602436581
4602441708
4602449826
4602456418
4602463925
4602467770
4602476193
4602479428
4602485471
4602490597
4602496396
4602500180
4602507321
4602512936
4602519223
4602525265
4602530514
4602534054
4602542111
4602548642
4602555356
4602562008
4602566464
4602573849
4602578671
4602584591
4602591488
4602595944
4602602230
4602606076
4602611264
4602616635
4602621151
4602624447
4602633602
4602638607
4602644833
4602649472
4602655575
4602658932
4602665219
4602668881
4602676449
4602682247
4602688107
4602693661
4602698055
4602702572
4602708187
4602713558
4602720089
4602728329
4602734493
4602739315
4602745602
4602751339
4602757687
4602761654
4602768917
4602776913
4602782162
4602787228
4602793514
4602799068
4602804684
4602809627
4602814632
4602819637
4602827022
4602833797
4602839412
4602844295
4602848812
4602852962
4602858883
4602865963
4602872799
4602877132
4602882686
4602886959
4602893245
4602898250
4602901546
4602908260
4602914425
4602918880
4602922054
4602929500
4602932918
4602938167
4602943294
4602949520
4602956661
4602962520
4602967769
4602974178
4602978633
4602983394
4602989803
4602995662
4603001521
4603007381
4603011958
4603018306
4603023555
4603027828
4603034236
4603040035
4603045284
4603050899
4603056331
4603061763
4603068599
4603073604
4603078181
4603082942
4603090266
4603099422
4603105220
4603111812
4603118770
4603124568
4603130855
4603137752
4603145564
4603152217
4603156917
4603162471
4603167109
4603171748
4603176814
4603181331
4603186580
4603194758
4603200557
4603205867
4603210505
4603214656
4603221003
4603225703
4603231318
4603239131
4603244502
4603249079
4603254878
4603261225
4603266535
4603271052
4603276850
4603284968
4603289057
4603297724
4603302302
4603312068
4603319575
4603324519
4603329951
4603334589
4603340449
4603344965
4603351252
4603355952
4603360529
4603366572
4603370600
4603378168
4603384028
4603389704
4603394526
4603400324
4603405451
4603411433
4603416193
4603420649
4603428400
4603434138
4603438715
4603444025
4603448725
4603453852
4603458735
4603464411
4603470209
4603476252
4603481501
4603486506
4603492182
4603497309
4603505548
4603511164
4603517084
4603525202
4603529962
4603534235
4603541071
4603545221
4603551142
4603555597
4603561701
4603567072
4603572565
4603578607
4603584039
4603588312
4603593378
4603599237
4603602960
4603608698
4603615167
4603621149
4603625971
4603631342
4603636163
4603641718
4603646417
4603654047
4603661127
4603666620
4603673029
4603679681
4603687433
4603694635
4603700616
4603706964
4603713312
4603720941
4603726007
4603735101
4603739557
4603746454
4603750238
4603757501
4603764276
4603770257
4603776056
4603780816
4603786493
4603792657
4603798150
4603803216
4603807183
4603815179
4603819146
4603826226
4603832086
4603837579
4603842828
4603850579
4603857354
4603862725
4603868585
4603873651
4603879937
4603885735
4603892938
4603897637
4603905389
4603909966
4603917291
4603922601
4603929253
4603934075
4603939813
4603945611
4603950738
4603956536
4603962212
4603966241
4603972344
4603976434
4603982171
4603987237
4603990594
4603998833
4604002984
4604009209
4604013177
4604018914
4604022393
4604028741
4604033562
4604039971
4604047295
4604052910
4604057915
4604063408
4604068352
4604075066
4604080132
4604085991
4604092949
4604098076
4604104912
4604109612
4604113701
4604119316
4604123894
4604129937
4604136040
4604141045
4604146538
4604150933
4604156731
4604162163
4604166374
4604172417
4604178215
4604184807
4604190361
4604196343
4604201714
4604207817
4604213066
4604219170
4604226494
4604235161
4604242119
4604248161
4604254875
4604262627
4604267815
4604276543
4604283073
4604291679
4604299309
4604306572
4604317558
4604324150
4604332817
4604340202
4604348808
4604356682
4604366447
4604374565
4604382438
4604389396
4604395134
4604403617
4604410331
4604418571
4604424919
4604430412
4604440238
4604449760
4604458000
4604464836
4604472160
4604479850
4604485099
4604492607
4604500053
4604507072
4604514579
4604519523
4604529105
4604534538
4604542228
4604548881
4604555778
4604562125
4604568534
4604579459
4604588859
4604596122
4604603080
4604609489
4604619498
4604628531
4604635673
4604641044
4604651847
4604662589
4604669486
4604677298
4604684867
4604691825
4604694571
4604705130
4604713248
4604719596
4604727774
4604735038
4604745108
4604751212
4604758902
4604766226
4604775504
4604782645
4604788138
4604798758
4604808157
4604816275
4604823416
4604826590
4604836417
4604844901
4604852408
4604859305
4604866141
4604874747
4604884878
4604891409
4604899344
4604902334
4604912649
4604921866
4604928763
4604933706
4604940054
4604950613
4604959890
4604967276
4604974905
4604983267
4604990469
4604997183
