5024212723
5024218217
5024223466
5024229264
5024235184
5024241349
5024245560
5024251359
5024256547
5024261063
5024266312
5024271500
5024276322
5024282059
5024287308
5024293168
5024299881
5024304276
5024310440
5024316666
5024322037
5024328690
5024335099
5024340226
5024346634
5024352494
5024358719
5024364517
5024370316
5024376602
5024383438
5024390030
5024394608
5024402176
5024405899
5024413712
5024421097
5024428116
5024435440
5024441422
5024447403
5024455032
5024461685
5024469864
5024477737
5024481827
5024491836
5024498856
5024505508
5024514358
5024520279
5024528946
5024535354
5024543777
5024550735
5024557754
5024565506
5024573379
5024579910
5024589492
5024598159
5024602737
5024612197
5024619522
5024626724
5024635452
5024642044
5024651016
5024657058
5024667800
5024674697
5024682388
5024691177
5024699172
5024708022
5024714004
5024722244
5024728042
5024736953
5024745681
5024753371
5024760940
5024768325
5024776138
5024783584
5024790664
5024798537
5024805739
5024813369
5024821792
5024829055
5024837295
5024842849
5024850661
5024858596
5024866713
5024873061
5024882277
5024888381
5024895888
5024904128
5024911330
5024917495
5024926772
5024934157
5024944228
5024951735
5024959426
5024963881
5024974196
5024982314
5024990248
5025001051
5025009169
5025019301
5025027541
5025034132
5025043044
5025049757
5025056166
5025064223
5025070631
5025079970
5025086928
5025093397
5025099806
5025109389
5025113905
5025123305
5025131727
5025139296
5025147291
5025154799
5025161146
5025170424
5025177504
5025185316
5025194288
5025200636
5025210829
5025219252
5025228224
5025236708
5025244886
5025251295
5025258924
5025265150
5025273329
5025279615
5025289320
5025294264
5025305799
5025311292
5025320203
5025329298
5025335401
5025343702
5025350782
5025359144
5025366773
5025375257
5025381544
5025391492
5025397779
5025407667
5025416700
5025424634
5025431653
5025441724
5025448438
5025458753
5025467664
5025475049
5025483960
5025491895
5025499219
5025504956
5025512891
5025520337
5025528028
5025535535
5025543958
5025549756
5025558362
5025566846
5025573987
5025582410
5025590161
5025599378
5025607434
5025613965
5025622022
5025628552
5025638623
5025646558
5025652173
5025659436
5025667615
5025675122
5025682690
5025690747
5025698254
5025705517
5025713208
5025723401
5025728955
5025736828
5025744641
5025750989
5025758923
5025765637
5025773755
5025781445
5025787732
5025797009
5025803479
5025810498
5025817089
5025826672
5025833996
5025841564
5025849072
5025856335
5025863781
5025870861
5025875500
5025884899
5025892895
5025898937
5025907971
5025913647
5025921215
5025929455
5025935375
5025943615
5025951855
5025957592
5025965954
5025973827
5025981823
5025989696
5025998180
5026004406
5026013988
5026022045
5026030529
5026036449
5026045116
5026053722
5026061413
5026067394
5026077587
5026084118
5026092846
5026098949
5026108532
5026114635
5026122631
5026132030
5026141124
5026148143
5026157421
5026164073
5026174877
5026182262
5026189830
5026198070
5026205760
5026212962
5026222057
5026228648
5026238353
5026245616
5026253185
5026262401
5026269420
5026276378
5026283214
5026289989
5026296702
5026303966
5026308970
5026318248
5026324840
5026332042
5026338756
5026346202
5026353953
5026361827
5026368663
5026377025
5026384593
5026391917
5026399119
5026406382
5026413340
5026420787
5026428721
5026436167
5026444834
5026451304
5026459422
5026467539
5026475535
5026483103
5026490550
5026499400
5026507395
5026512888
5026521006
5026527720
5026534190
5026545115
5026550974
5026558543
5026567149
5026574595
5026583445
5026589121
5026597056
5026604563
5026612742
5026620371
5026628061
5026633799
5026642161
5026650522
5026657786
5026667307
5026675180
5026682993
5026689402
5026697580
5026702036
5026713266
5026719553
5026726816
5026734445
5026742685
5026751596
5026757028
5026763559
5026771494
5026778208
5026784921
5026790170
5026796030
5026803720
5026809824
5026814890
5026822885
5026830087
5026838388
5026846262
5026851328
5026861398
5026868417
5026875864
5026882211
5026889657
5026894845
5026901742
5026908151
5026913400
5026920724
5026924997
5026932870
5026936532
5026944101
5026950509
5026956857
5026963510
5026969613
5026975168
5026980539
5026987558
5026993295
5026999032
5027002450
5027010202
5027016610
5027022897
5027028817
5027033944
5027041085
5027044625
5027052865
5027059152
5027064950
5027070748
5027076058
5027081674
5027088021
5027093575
5027098641
5027105782
5027111459
5027117074
5027123544
5027129098
5027135140
5027141366
5027147103
5027151620
5027159127
5027165231
5027170785
5027176705
5027183785
5027188912
5027193368
5027200081
5027206551
5027212411
5027217965
5027223580
5027229378
5027235970
5027241463
5027248543
5027254342
5027260262
5027265877
5027272408
5027276864
5027283089
5027289193
5027295296
5027301155
5027306893
5027312874
5027318795
5027323922
5027329903
5027336922
5027341805
5027348580
5027354256
5027359322
5027364022
5027372139
5027377510
5027383736
5027390633
5027397713
5027402779
5027410225
5027416145
5027423103
5027429390
5027436775
5027442757
5027449104
5027453377
5027460457
5027465157
5027471626
5027476692
5027484077
5027488960
5027494758
5027499519
5027507271
5027513252
5027518867
5027524605
5027530159
5027536201
5027541877
5027547737
5027554084
5027560005
5027566047
5027570869
5027575569
5027582100
5027586860
5027593818
5027598701
5027605903
5027609321
5027616035
5027621345
5027627998
5027634284
5027640266
5027645820
5027651924
5027657722
5027663337
5027669135
5027675117
5027680244
5027686347
5027691413
5027697151
5027703315
5027708137
5027714362
5027719062
5027725532
5027731208
5027738410
5027744697
5027750678
5027755683
5027762580
5027768195
5027772529
5027780097
5027784980
5027791877
5027798041
5027803474
5027809699
5027814643
5027821357
5027827888
5027832526
5027838386
5027843024
5027849433
5027854804
5027860480
5027865912
5027873420
5027879584
5027885321
5027891120
5027895331
5027902350
5027908454
5027914374
5027919135
5027926825
5027932868
5027940863
5027948737
5027954962
5027961554
5027968268
5027976752
5027983649
5027990302
5027997260
5028003302
5028008612
5028014716
5028020575
5028025275
5028031134
5028035834
5028042548
5028047980
5028055731
5028061224
5028066840
5028072760
5028078436
5028083929
5028089850
5028095587
5028101263
5028107489
5028113470
5028118841
5028123602
5028130072
5028134833
5028141302
5028146063
5028152533
5028157293
5028164312
5028170538
5028176458
5028182074
5028187811
5028194647
5028200567
5028205633
5028211798
5028218084
5028225653
5028231085
5028234381
5028243353
5028248602
5028254217
5028261297
5028265814
5028272650
5028277288
5028284185
5028288824
5028297796
5028306585
5028313543
5028319402
5028324346
5028331426
5028334783
5028342535
5028348821
5028355108
5028362066
5028365972
5028371709
5028377203
5028384466
5028389837
5028396917
5028401617
5028409185
5028413091
5028419195
5028424138
5028429693
5028435979
5028441900
5028446904
5028452825
5028458318
5028463689
5028470464
5028475530
5028481633
5028486577
5028497502
5028503667
5028511052
5028517583
5028523015
5028532170
5028537419
5028545049
5028553899
5028560674
5028567327
5028573552
5028579045
5028586492
5028592717
5028598332
5028603276
5028610600
5028616093
5028622197
5028628606
5028634221
5028640569
5028645024
5028650944
5028656621
5028663335
5028668645
5028676335
5028682500
5028688542
5028693486
5028700322
5028706303
5028711979
5028719731
5028723271
5028730900
5028737736
5028742680
5028749211
5028755986
5028762211
5028768010
5028774052
5028779179
5028785099
5028791386
5028797612
5028803837
5028808659
5028815556
5028820927
5028827824
5028833988
5028840092
5028846684
5028853337
5028858525
5028865055
5028870487
5028876347
5028881046
5028888065
5028892765
5028900822
5028906071
5028912602
5028918339
5028925480
5028931522
5028937138
5028943302
5028950138
5028955631
5028961368
5028969120
5028974979
5028979801
5028986027
5028991764
5028996525
5029004581
5029011234
5029017521
5029022831
5029030216
5029036136
5029041813
5029049137
5029054569
5029062137
5029067875
5029075931
5029082096
5029089542
5029096439
5029101993
5029107975
5029113651
5029119815
5029124088
5029130985
5029137271
5029142337
5029149112
5029154849
5029161075
5029166751
5029171939
5029179202
5029184024
5029190189
5029195072
5029202335
5029205508
5029214359
5029221439
5029227176
5029232364
5029238101
5029245914
5029252566
5029258975
5029263980
5029269961
5029274905
5029281497
5029286929
5029295169
5029298648
5029305911
5029315982
5029323977
5029332889
5029339480
5029351809
5029358645
5029367740
5029376773
5029385073
5029396243
5029407107
5029414675
5029422976
5029430545
5029438906
5029446963
5029456118
5029465945
5029475344
5029482119
5029490603
5029499026
5029506655
5029516787
5029526003
5029535159
5029545412
5029554507
5029565554
5029583742
5029600893
5029618899
5029636355
5029652834
5029670168
5029688295
5029706911
5029724855
5029734011
5029742372
5029751406
5029766115
5029781679
5029796571
5029810365
5029825319
5029834962
5029843568
5029854127
5029863222
5029872133
5029881776
5029889406
5029898500
5029907411
5029915895
5029925111
5029933595
5029942384
5029950990
5029958497
5029968019
5029975831
5029985231
5029994752
5030004274
5030013063
5030020204
5030029603
5030037049
5030048524
5030057557
5030066285
5030075379
5030082032
5030091615
5030100892
5030110535
5030118653
5030128724
5030137818
5030145692
5030154420
5030163575
5030172303
5030182496
5030190674
5030199952
5030208436
5030217286
5030226258
5030235291
5030243592
5030251709
5030260071
5030269165
5030277405
5030285889
5030294556
5030302918
5030310608
5030319519
5030327088
5030336365
5030344422
5030351807
5030362976
5030367493
5030378479
5030385498
5030393128
5030401794
5030410584
5030419922
5030432068
5030440552
5030448364
5030456970
5030466125
5030475281
5030486206
5030495056
5030504700
5030513611
5030522522
5030532104
5030539306
5030549743
5030558471
5030567993
5030579162
5030588256
5030599121
5030608337
5030618225
5030628845
5030635436
5030646423
5030653076
5030664550
5030672119
5030682311
5030689269
5030699950
5030704955
5030718810
5030726440
5030734618
5030743896
5030753051
5030761413
5030770507
5030779052
5030786010
5030798766
5030807433
5030815978
5030825499
5030834777
5030843200
5030850280
5030863280
5030870665
5030879088
5030889281
5030898131
5030906432
5030915648
5030923583
5030933776
5030941771
5030950072
5030958373
5030968077
5030972044
5030978087
5030984068
5030991148
5030996336
5031001891
5031007567
5031013060
5031019102
5031024718
5031032713
5031037413
5031043822
5031048277
5031055662
5031061156
5031066710
5031073973
5031080015
5031086302
5031090697
5031097105
5031102415
5031108092
5031115477
5031119993
5031126585
5031132383
5031137632
5031141966
5031149473
5031157225
5031161985
5031168394
5031172728
5031179319
5031185118
5031190733
5031197630
5031202513
5031209898
5031215208
5031220640
5031227293
5031236814
5031242735
5031252317
5031259641
5031264646
5031276182
5031282591
5031289121
5031295347
5031302244
5031308653
5031316038
5031322569
5031328001
5031335081
5031341123
5031347898
5031353879
5031359556
5031365537
5031371519
5031378660
5031383115
5031390073
5031396177
5031401731
5031408567
5031414731
5031420774
5031426389
5031432493
5031438169
5031443784
5031449277
5031455930
5031462156
5031467893
5031472226
5031479001
5031483945
5031491819
5031498716
5031504941
5031512021
5031516538
5031524961
5031529660
5031535337
5031543210
5031552976
5031559445
5031566281
5031572385
5031577145
5031583310
5031589902
5031595090
5031600461
5031606625
5031612241
5031617917
5031623471
5031630978
5031635373
5031642392
5031647031
5031652768
5031657223
5031663815
5031670956
5031676510
5031682126
5031687497
5031693173
5031698727
5031706540
5031712643
5031718564
5031723385
5031729855
5031734372
5031740780
5031746151
5031752133
5031758908
5031767270
5031773739
5031778256
5031786068
5031792599
5031799069
5031804867
5031811337
5031821041
5031826901
5031831539
5031839535
5031845455
5031851620
5031856808
5031863033
5031868221
5031873776
5031880062
5031886288
5031891171
5031897335
5031903378
5031906918
5031914547
5031921017
5031926571
5031932980
5031937435
5031942379
5031948421
5031953304
5031957577
5031963741
5031971615
5031975582
5031981563
5031987423
5031991573
5031998104
5032003841
5032007625
5032014461
5032020138
5032025264
5032030575
5032035152
5032040767
5032047786
5032052913
5032057186
5032062374
5032068966
5032072811
5032079036
5032083614
5032089229
5032093685
5032099544
5032105098
5032110103
5032116512
5032120845
5032127132
5032131587
5032138301
5032141109
5032147395
5032154903
5032160701
5032165401
5032170833
5032177974
5032181514
5032188960
5032195247
5032199886
5032207515
5032212886
5032218806
5032225398
5032231746
5032237788
5032245051
5032250301
5032256160
5032262691
5032269038
5032277522
5032283870
5032290645
5032294368
5032302913
5032309443
5032315730
5032323237
5032331050
5032336787
5032342952
5032348628
5032354426
5032361018
5032364985
5032371394
5032377803
5032383540
5032388056
5032393855
5032401240
5032406977
5032411616
5032417170
5032423213
5032428950
5032434260
5032439448
5032445979
5032451838
5032457209
5032463435
5032469233
5032473872
5032479975
5032486506
5032490839
5032496516
5032501276
5032507746
5032512690
5032518671
5032524470
5032530268
5032536372
5032543330
5032551142
5032557734
5032564081
5032570734
5032576777
5032583674
5032591181
5032597468
5032603266
5032609186
5032615473
5032620966
5032627802
5032633112
5032640436
5032647821
5032653376
5032661432
5032667475
5032676081
5032682245
5032689142
5032695429
5032701654
5032708002
5032713739
5032718988
5032725580
5032732172
5032737787
5032744074
5032749750
5032758112
5032763117
5032768244
5032777582
5032785638
5032793573
5032801202
5032807794
5032814020
5032820245
5032826410
5032833917
5032840265
5032844110
5032850397
5032857294
5032862909
5032868402
5032874811
5032879388
5032888421
5032894769
5032899774
5032905938
5032911310
5032917474
5032922357
5032928460
5032934991
5032939569
5032945001
5032949945
5032956903
5032961480
5032968988
5032974603
5032979974
5032985772
5032991265
5032997247
5033002008
5033009759
5033014459
5033020318
5033024896
5033030633
5033035272
5033041680
5033047906
5033053399
5033057061
5033064385
5033070611
5033076226
5033081841
5033087823
5033093255
5033099786
5033105340
5033110101
5033115411
5033121819
5033127129
5033133538
5033139458
5033142754
5033149285
5033154961
5033160882
5033168023
5033174309
5033178948
5033185174
5033190667
5033197075
5033202263
5033208916
5033213128
5033221123
5033226983
5033230828
5033238518
5033243584
5033249504
5033255425
5033262078
5033267144
5033271294
5033277886
5033282952
5033289666
5033294670
5033301201
5033305657
5033314507
5033321282
5033328057
5033334282
5033342705
5033349846
5033355644
5033363762
5033371452
5033377373
5033385796
5033392632
5033398491
5033406792
5033411797
5033418144
5033424919
5033430717
5033436516
5033442558
5033449211
5033454887
5033461174
5033466728
5033471977
5033477653
5033483696
5033489860
5033496025
5033501213
5033507438
5033513542
5033519767
5033525016
5033531059
5033537223
5033542839
5033546013
5033553581
5033560112
5033566215
5033572074
5033578422
5033585258
5033589897
5033596916
5033603324
5033609062
5033614982
5033620170
5033626396
5033632255
5033637199
5033643363
5033648246
5033655509
5033660453
5033668021
5033673393
5033679008
5033685600
5033691215
5033696098
5033701652
5033707999
5033714103
5033719596
5033726066
5033731254
5033737601
5033743339
5033748160
5033754752
5033759818
5033766715
5033772086
5033778129
5033781363
5033789420
5033795890
5033801627
5033807547
5033813529
5033819449
5033825126
5033831412
5033835624
5033842826
5033847647
5033853934
5033858756
5033865836
5033870963
5033879325
5033882804
5033891104
5033898673
5033905387
5033912467
5033919181
5033925589
5033932059
5033937918
5033944998
5033950797
5033955863
5033963004
5033968253
5033974905
5033980643
5033986380
5033992239
5033998160
5034004080
5034009756
5034015311
5034021170
5034027823
5034034231
5034040823
5034045706
5034055289
5034061026
5034066763
5034072745
5034078848
5034085806
5034089956
5034096853
5034102896
5034107840
5034113760
5034118948
5034125235
5034131887
5034136648
5034143789
5034147207
5034155325
5034161978
5034167715
5034173208
5034178823
5034184927
5034189260
5034195303
5034201284
5034207754
5034214346
5034221304
5034226309
5034233022
5034238271
5034244070
5034249746
5034255544
5034261099
5034266836
5034272573
5034278555
5034284719
5034290456
5034296560
5034303945
5034309499
5034314321
5034321645
5034324819
5034332143
5034337514
5034343984
5034349905
5034355825
5034362478
5034368337
5034374074
5034380056
5034385244
5034391836
5034397146
5034403249
5034408681
5034413564
5034420766
5034425771
5034431447
5034438832
5034447377
5034454518
5034460378
5034469838
5034477590
5034484426
5034492299
5034497731
5034504872
5034510182
5034517568
5034522634
5034529836
5034535207
5034541188
5034547109
5034553151
5034558949
5034564626
5034567983
5034577016
5034582570
5034589040
5034594838
5034601430
5034606679
5034612721
5034617909
5034623952
5034630849
5034634083
5034641408
5034646290
5034653248
5034660023
5034665883
5034670033
5034677540
5034683034
5034689137
5034695424
5034701039
5034707020
5034711720
5034720021
5034724904
5034731495
5034736683
5034742970
5034749867
5034756703
5034763111
5034768727
5034772755
5034780690
5034786854
5034792530
5034799061
5034805226
5034810536
5034816639
5034822499
5034827503
5034833851
5034838795
5034845875
5034851307
5034856922
5034862293
5034868519
5034874378
5034879932
5034883289
5034892262
5034899220
5034903797
5034910999
5034915821
5034921314
5034927418
5034932300
5034938648
5034944813
5034949695
5034956592
5034962330
5034968433
5034974293
5034979908
5034986072
5034992176
5034998584
5035004383
5035010181
5035016163
5035022937
5035030445
5035037647
5035043506
5035051319
5035058521
5035062915
5035070850
5035076343
5035084583
5035089771
5035095264
5035100940
5035107776
5035113941
5035119678
5035125965
5035131702
5035137500
5035143482
5035150073
5035154224
5035160816
5035165820
5035174182
5035177661
5035184436
5035191089
5035196460
5035201709
5035207446
5035213916
5035219897
5035226001
5035230456
5035236804
5035241443
5035248035
5035253894
5035259387
5035265246
5035270801
5035275928
5035280993
5035286548
5035293811
5035300280
5035305224
5035311694
5035316638
5035322314
5035328173
5035334094
5035340258
5035346179
5035351123
5035356982
5035363574
5035368212
5035375109
5035381152
5035386706
5035390307
5035397204
5035403247
5035408373
5035414172
5035420397
5035426928
5035431201
5035436633
5035442858
5035448107
5035453845
5035460070
5035466418
5035472826
5035478259
5035484545
5035489855
5035494250
5035500231
5035507861
5035513354
5035519213
5035523241
5035529101
5035534350
5035539782
5035545824
5035552538
5035558092
5035567126
5035573290
5035579638
5035587511
5035593554
5035600939
5035610888
5035618090
5035624315
5035630663
5035636461
5035640245
5035647875
5035653856
5035659838
5035666918
5035672838
5035678026
5035684679
5035691454
5035696825
5035701891
5035706529
5035714281
5035718187
5035724657
5035731676
5035736009
5035742052
5035747606
5035752428
5035758104
5035764146
5035769151
5035776415
5035782335
5035787889
5035794115
5035798021
5035804613
5035810289
5035817125
5035822435
5035828783
5035832811
5035839036
5035845994
5035852342
5035857957
5035863634
5035868699
5035874254
5035880357
5035885362
5035892503
5035898301
5035903550
5035908616
5035913743
5035919053
5035924669
5035930467
5035936448
5035942552
5035947068
5035953294
5035957627
5035965074
5035970811
5035976365
5035982164
5035987962
5035993577
5035999131
5036005174
5036009690
5036018846
5036024461
5036029832
5036035020
5036040696
5036046739
5036052537
5036057786
5036064622
5036070359
5036075486
5036082627
5036088609
5036095078
5036101975
5036109788
5036116379
5036125352
5036130418
5036139756
5036146287
5036152817
5036159165
5036163498
5036170151
5036176682
5036183091
5036187790
5036194321
5036199326
5036205979
5036210801
5036219284
5036225632
5036231614
5036238327
5036244553
5036251267
5036257187
5036263230
5036268112
5036273789
5036279831
5036285446
5036292160
5036296555
5036302902
5036308518
5036313767
5036319321
5036324204
5036331162
5036337448
5036343857
5036349350
5036354965
5036361069
5036366684
5036371628
5036379013
5036384872
5036389938
5036394760
5036401840
5036407883
5036414169
5036421493
5036425827
5036431381
5036438278
5036444076
5036447983
5036456405
5036462326
5036466598
5036473800
5036478378
5036485092
5036490036
5036496261
5036501510
5036508712
5036515304
5036520675
5036526352
5036531906
5036538436
5036545089
5036550766
5036555893
5036562545
5036565902
5036574935
5036580978
5036587264
5036592697
5036597457
5036604659
5036609481
5036615280
5036622421
5036628158
5036634933
5036639755
5036646102
5036652694
5036659591
5036665206
5036671676
5036679427
5036685409
5036691573
5036698104
5036704635
5036710372
5036716292
5036721908
5036728377
5036733138
5036741073
5036746505
5036751937
5036757918
5036763961
5036769820
5036774581
5036781051
5036785994
5036793013
5036799666
5036807235
5036813155
5036818221
5036824263
5036829268
5036835616
5036841841
5036848922
5036855391
5036861006
5036866866
5036873091
5036878829
5036883345
5036890853
5036898543
5036904769
5036911604
5036917708
5036923079
5036928328
5036935042
5036940047
5036947188
5036952681
5036958601
5036964766
5036969893
5036976973
5036984236
5036989485
5036994246
5037000716
5037006148
5037012434
5037018660
5037024885
5037031111
5037036726
5037042158
5037047835
5037054976
5037059553
5037065779
5037071943
5037077864
5037082686
5037089460
5037094343
5037101606
5037107405
5037113142
5037118635
5037124983
5037131392
5037136946
5037141829
5037147566
5037153730
5037160017
5037167402
5037173994
5037179365
5037185652
5037191572
5037196821
5037204023
5037210127
5037217878
5037225813
5037233015
5037239485
5037249067
5037256513
5037263837
5037271528
5037276289
5037282880
5037289045
5037295087
5037301740
5037307416
5037312788
5037318403
5037324811
5037329755
5037336042
5037342145
5037347883
5037355695
5037360883
5037367109
5037372846
5037378949
5037383954
5037387372
5037395368
5037402448
5037408429
5037413373
5037419477
5037425641
5037431318
5037437970
5037444806
5037450788
5037455670
5037462323
5037467145
5037473798
5037479169
5037485944
5037491010
5037496686
5037500043
5037507733
5037514874
5037520795
5037527020
5037533246
5037538800
5037545148
5037550946
5037557355
5037563947
5037569196
5037574017
5037578778
5037586407
5037592145
5037597577
5037603253
5037608868
5037613995
5037619794
5037626813
5037631451
5037638043
5037644086
5037650433
5037656415
5037662274
5037667523
5037673810
5037678509
5037685650
5037691266
5037697247
5037703717
5037709881
5037716351
5037722393
5037728192
5037733807
5037739178
5037744732
5037750470
5037756268
5037763226
5037768658
5037776593
5037782025
5037788800
5037793560
5037801434
5037808331
5037821209
5037828533
5037834271
5037839031
5037846050
5037852215
5037858013
5037864300
5037869854
5037875408
5037881329
5037887432
5037894207
5037899639
5037906292
5037911236
5037915508
5037922283
5037927654
5037934002
5037940533
5037946758
5037951458
5037956951
5037962688
5037966961
5037973552
5037979290
5037985820
5037991375
5037996624
5038002239
5038007793
5038013652
5038019634
5038027080
5038031719
5038037578
5038043071
5038049358
5038053752
5038061077
5038066692
5038072490
5038077983
5038083171
5038089702
5038094097
5038100017
5038105144
5038112895
5038117900
5038122966
5038128398
5038133830
5038138957
5038145000
5038151653
5038157573
5038163860
5038168559
5038174724
5038178935
5038185344
5038192424
5038197673
5038202556
5038207683
5038212993
5038218120
5038224223
5038230571
5038235820
5038240214
5038246867
5038253032
5038258220
5038264811
5038270976
5038277934
5038283854
5038289103
5038293498
5038299174
5038303813
5038313517
5038319621
5038325053
5038331645
5038337687
5038344462
5038350688
5038358500
5038366191
5038372233
5038378581
5038383525
5038391215
5038394572
5038402323
5038408061
5038413920
5038420268
5038426554
5038431925
5038438578
5038446330
5038452006
5038457682
5038464091
5038468668
5038475077
5038481242
5038487589
5038493265
5038499430
5038507304
5038511820
5038518290
5038524332
5038529642
5038536478
5038542032
5038547159
5038553080
5038558939
5038564371
5038570170
5038576700
5038583536
5038588175
5038594584
5038599161
5038605509
5038610148
5038617838
5038624063
5038629679
5038635050
5038640299
5038645792
5038651834
5038657144
5038663614
5038669901
5038676370
5038681497
5038684732
5038692301
5038694132
5038702371
5038709207
5038714945
5038721231
5038726053
5038732645
5038737405
5038744791
5038750284
5038755777
5038762003
5038767984
5038773294
5038777261
5038783487
5038789774
5038795938
5038800882
5038806985
5038812540
5038818216
5038823892
5038829751
5038836526
5038843728
5038848977
5038854226
5038861490
5038867959
5038874551
5038881814
5038889138
5038896524
5038903238
5038909219
5038915078
5038920938
5038927163
5038933267
5038938760
5038943277
5038949990
5038955728
5038962014
5038968545
5038974221
5038980386
5038984963
5038991372
5038997781
5039003701
5039010110
5039015969
5039022866
5039030679
5039036843
5039045083
5039050332
5039056130
5039064431
5039067971
5039075417
5039080971
5039087014
5039092812
5039099099
5039105263
5039110512
5039117470
5039122475
5039129067
5039134438
5039140114
5039145791
5039152260
5039160561
5039166176
5039172768
5039178811
5039186074
5039191689
5039198403
5039204323
5039210488
5039213723
5039222878
5039228493
5039234597
5039240944
5039247048
5039251931
5039258095
5039264076
5039268776
5039275856
5039280922
5039287331
5039292580
5039299843
5039305336
5039310829
5039316628
5039322426
5039328468
5039334328
5039340614
5039347145
5039352516
5039358498
5039364052
5039369423
5039376381
5039381264
5039388039
5039393471
5039399086
5039404701
5039413551
5039417213
5039425941
5039432594
5039438576
5039443825
5039450294
5039460914
5039469276
5039475624
5039481361
5039486000
5039492775
5039499244
5039504921
5039511512
5039517433
5039522071
5039528419
5039533424
5039540016
5039545082
5039552711
5039558448
5039564247
5039569801
5039575782
5039582069
5039587928
5039593788
5039600013
5039606239
5039612769
5039619788
5039625953
5039631812
5039636512
5039644141
5039647559
5039656165
5039661231
5039666785
5039672828
5039678626
5039684730
5039691627
5039699073
5039704383
5039709876
5039714881
5039721961
5039727881
5039733619
5039740699
5039745337
5039751502
5039755897
5039762549
5039767310
5039774268
5039780799
5039786536
5039792640
5039798133
5039803443
5039809607
5039814612
5039821143
5039826514
5039832129
5039837012
5039843360
5039849280
5039852576
5039860083
5039867041
5039872962
5039877967
5039883216
5039888831
5039894446
5039899817
5039906775
5039912451
5039918250
5039923377
5039928504
5039933630
5039939185
5039944861
5039952002
5039958716
5039964636
5039969519
5039978430
5039983862
5039992468
5039998816
5040004187
5040012121
5040017859
5040024939
5040031714
5040037878
5040044043
5040048498
5040055151
5040061255
5040066565
5040073156
5040079199
5040085608
5040091284
5040097143
5040103064
5040108679
5040113317
5040120337
5040127050
5040133337
5040138525
5040145178
5040152258
5040158056
5040163915
5040170507
5040175390
5040181433
5040187170
5040191808
5040198644
5040204138
5040209997
5040215246
5040220983
5040227758
5040232763
5040239233
5040244848
5040251623
5040257116
5040262975
5040267919
5040273656
5040280798
5040285131
5040292150
5040297643
5040304479
5040310583
5040316320
5040321996
5040327978
5040333898
5040340185
5040346044
5040352147
5040358373
5040363134
5040370580
5040376806
5040382787
5040388768
5040393224
5040400243
5040405065
5040411657
5040416906
5040425695
5040431493
5040437047
5040442845
5040449193
5040454503
5040460240
5040465856
5040470861
5040477757
5040483190
5040488988
5040495763
5040502355
5040508092
5040515050
5040522130
5040528294
5040534947
5040540929
5040547398
5040555577
5040560826
5040569554
5040574864
5040581761
5040586400
5040592992
5040597691
5040604039
5040609654
5040616551
5040622105
5040628087
5040635167
5040640782
5040645909
5040652012
5040658299
5040664280
5040670628
5040676732
5040682225
5040688206
5040693577
5040698643
5040705479
5040710179
5040716832
5040722447
5040727757
5040732762
5040740025
5040744908
5040751683
5040758274
5040764378
5040768772
5040775852
5040782017
5040787571
5040794651
5040798985
5040806187
5040812657
5040818028
5040824497
5040829868
5040834690
5040840977
5040847691
5040853794
5040859470
5040865147
5040870640
5040876194
5040881931
5040887607
5040891086
5040898533
5040905308
5040911045
5040916904
5040923862
5040929294
5040935398
5040940891
5040945163
5040951450
5040958042
5040964634
5040969822
5040976108
5040980686
5040987217
5040991916
5040998874
5041004734
5041010532
5041016758
5041022983
5041028720
5041034275
5041039951
5041045627
5041051609
5041057895
5041062534
5041068820
5041074558
5041080966
5041088962
5041095310
5041101413
5041108005
5041112949
5041120456
5041131503
5041137424
5041143588
5041148410
5041155246
5041160007
5041166660
5041172153
5041177768
5041183139
5041192844
5041199252
5041205173
5041210055
5041215793
5041221652
5041226108
5041233737
5041239779
5041245273
5041252292
5041258212
5041263949
5041268527
5041275485
5041282626
5041288363
5041294223
5041299777
5041305453
5041311251
5041317782
5041322909
5041329013
5041335177
5041340365
5041345309
5041351168
5041356845
5041364230
5041370028
5041374179
5041380038
5041384554
5041390841
5041395236
5041402255
5041408663
5041414279
5041420077
5041425692
5041430880
5041435030
5041442416
5041448641
5041453951
5041459017
5041464266
5041470553
5041474642
5041481356
5041485628
5041492464
5041497835
5041504244
5041509310
5041514620
5041519930
5041526766
5041532931
5041537142
5041543001
5041549227
5041554293
5041559542
5041565035
5041572115
5041578463
5041583101
5041588717
5041594698
5041599092
5041606478
5041613619
5041619966
5041625582
5041631258
5041637484
5041642733
5041650667
5041657442
5041664217
5041670259
5041676058
5041681551
5041686922
5041692964
5041699007
5041704500
5041709810
5041715120
5041720247
5041725496
5041731722
5041738741
5041743806
5041748140
5041754854
5041760408
5041765413
5041770784
5041777803
5041783174
5041787630
5041793733
5041798067
5041805025
5041809724
5041815889
5041822420
5041828279
5041833467
5041839143
5041844575
5041849031
5041856111
5041861787
5041867463
5041872834
5041878083
5041884980
5041888704
5041895478
5041900239
5041906831
5041911164
5041918245
5041923616
5041928620
5041945039
5041951325
5041958406
5041964631
5041971162
5041978913
5041984956
5041991853
5041997346
5042004365
5042009919
5042016450
5042022309
5042028718
5042035371
5042041718
5042047517
5042054719
5042061494
5042065583
5042073518
5042079377
5042084260
5042092805
5042099885
5042104340
5042112397
5042117341
5042125275
5042130646
5042135346
5042142914
5042148285
5042156647
5042166352
5042171479
5042177948
5042184052
5042188507
5042195404
5042198700
5042205841
5042212494
5042218598
5042223420
5042227936
5042235260
5042238556
5042245758
5042251557
5042257416
5042262787
5042267487
5042274323
5042277435
5042284149
5042289887
5042295563
5042301300
5042305695
5042311615
5042316986
5042322418
5042327362
5042333649
5042341583
5042347443
5042354889
5042359955
5042365326
5042371796
5042378143
5042385101
5042391327
5042396149
5042403961
5042410003
5042416107
5042422455
5042428924
5042435333
5042442779
5042447174
5042454437
5042461517
5042467926
5042473114
5042479400
5042485138
5042491546
5042497833
5042505157
5042510284
5042515594
5042523162
5042529205
5042535858
5042542266
5042548919
5042555389
5042561859
5042566741
5042572967
5042579742
5042586089
5042591949
5042596710
5042602630
5042609222
5042615264
5042621490
5042627715
5042634307
5042640472
5042645965
5042651763
5042660857
5042667205
5042675262
5042680205
5042685943
5042692657
5042699187
5042704375
5042710601
5042716460
5042721282
5042728484
5042733306
5042740325
5042744292
5042752654
5042756133
5042765471
5042772490
5042778167
5042783538
5042789153
5042795195
5042799651
5042807219
5042811919
5042819487
5042824492
5042830596
5042835356
5042843413
5042849517
5042854827
5042860259
5042865752
5042871733
5042877410
5042882964
5042889311
5042895293
5042901274
5042907439
5042913115
5042918425
5042923979
5042929717
5042936003
5042942290
5042947173
5042953886
5042958891
5042965666
5042970488
5042979338
5042983427
5042989531
5042996123
5043001738
5043006438
5043012053
5043018522
5043024321
5043030058
5043034208
5043041227
5043047697
5043052946
5043059477
5043064909
5043070952
5043075956
5043082365
5043088957
5043094389
5043101591
5043107023
5043113005
5043118864
5043124784
5043128019
5043136564
5043143034
5043149015
5043155119
5043161100
5043166715
5043172697
5043178251
5043185026
5043190519
5043197111
5043202055
5043209501
5043215482
5043220853
5043228727
5043236295
5043242704
5043250028
5043254545
5043260465
5043266569
5043272916
5043277921
5043284879
5043289396
5043296781
5043303007
5043309110
5043315458
5043321195
5043326749
5043332364
5043337491
5043343229
5043349698
5043353910
5043360685
5043366849
5043372098
5043378446
5043384855
5043391385
5043397123
5043401883
5043408109
5043414762
5043420377
5043425748
5043431485
5043437528
5043443265
5043448270
5043454251
5043460416
5043466458
5043473172
5043479154
5043484769
5043490811
5043496182
5043502408
5043507352
5043513394
5043519070
5043524381
5043530728
5043537503
5043543301
5043549039
5043555203
5043561063
5043567044
5043572903
5043578458
5043584256
5043589810
5043595547
5043601346
5043606351
5043614590
5043620022
5043626614
5043632351
5043637051
5043643521
5043648282
5043655484
5043661526
5043667080
5043672940
5043679104
5043683377
5043691555
5043697232
5043701687
5043707913
5043713589
5043720669
5043725186
5043731045
5043737026
5043744107
5043749478
5043755764
5043761318
5043769070
5043775295
5043781765
5043794094
5043800320
5043807705
5043813992
5043818996
5043825344
5043830288
5043839870
5043845791
5043852016
5043857571
5043863064
5043870022
5043874294
5043880581
5043887112
5043893581
5043897793
5043903774
5043908779
5043913967
5043919033
5043925930
5043931484
5043936977
5043943203
5043948757
5043954189
5043958584
5043964321
5043971889
5043977199
5043983791
5043989284
5043994228
5044000576
5044004848
5044012355
5044017665
5044023220
5044028224
5044035060
5044039943
5044045131
5044052089
5044057704
5044062038
5044069301
5044073634
5044079799
5044084071
5044092861
5044098659
5044104152
5044109340
5044115016
5044121486
5044125819
5044131984
5044139430
5044144862
5044150233
5044155421
5044161281
5044166957
5044171840
5044178737
5044184047
5044189784
5044195888
5044200221
5044205287
5044211390
5044217189
5044222560
5044227870
5044233851
5044240565
5044246241
5044253383
5044257655
5044268763
5044275355
5044281886
5044289027
5044296656
5044303187
5044308497
5044314112
5044321192
5044326380
5044334559
5044340968
5044346156
5044352564
5044358546
5044363551
5044368373
5044375086
5044379847
5044387232
5044392542
5044397486
5044402552
5044408473
5044413783
5044419581
5044424097
5044428492
5044435755
5044441248
5044445948
5044450770
5044456751
5044462794
5044468104
5044473841
5044478419
5044484766
5044489710
5044495264
5044499659
5044505884
5044511622
5044514551
5044521326
5044526392
5044531458
5044537500
5044543726
5044549891
5044554834
5044560022
5044563379
5044570276
5044573267
5044580774
5044587305
5044591333
5044597681
5044601831
5044608484
5044612879
5044617395
5044621729
5044625391
5044630396
5044634546
5044638330
5044642053
5044648584
5044653650
5044658350
5044662744
5044667505
5044671289
5044675623
5044680933
5044684656
5044688013
5044692835
5044697595
5044701807
5044704248
5044711450
5044715540
5044719629
5044723169
5044726404
5044731958
5044737268
5044742578
5044746301
5044754358
5044759363
5044764795
5044769372
5044775720
5044781274
5044787134
5044792139
5044797143
5044801904
5044807580
5044812097
5044818689
5044821740
5044826989
5044831323
5044835718
5044838403
5044844079
5044846643
5044853235
5044857995
5044862024
5044867822
5044873193
5044877160
5044882714
5044887170
5044892236
5044897363
5044901452
5044907495
5044910424
5044916711
5044919702
5044925378
5044929467
5044935693
5044938561
5044944970
5044947961
5044955163
5044959252
5044964990
5044969384
5044974328
5044978845
5044983788
5044988244
5044993066
5044997399
5045002953
5045007165
5045011865
5045015466
5045019921
5045023583
5045028893
5045033959
5045038720
5045043664
5045046349
5045051720
5045054345
5045060326
5045063012
5045070031
5045075097
5045079613
5045083825
5045088036
5045092309
5045096703
5045100609
5045107384
5045111779
5045116723
5045120202
5045125023
5045129723
5045134057
5045138268
5045145409
5045150048
5045153893
5045158593
5045162865
5045168175
5045174035
5045178917
5045183617
5045190514
5045197777
5045203514
5045210472
5045217430
5045223473
5045229149
5045234581
5045241234
5045248375
5045253319
5045260826
5045265465
5045273033
5045278038
5045281883
5045287377
5045292687
5045296654
5045301842
5045305504
5045311302
5045315636
5045321007
5045325218
5045330589
5045334496
5045341087
5045345299
5045349754
5045356590
5045360985
5045365013
5045369835
5045375206
5045379478
5045383568
5045389427
5045394737
5045400963
5045406151
5045410545
5045414696
5045420616
5045424766
5045429832
5045438621
5045443199
5045447776
5045453636
5045458336
5045464256
5045469261
5045473960
5045480369
5045486656
5045491294
5045495811
5045501243
5045505760
5045511619
5045517051
5045523948
5045530540
5045535057
5045541343
5045546043
5045549583
5045557029
5045561973
5045568443
5045574058
5045581199
5045586387
5045590659
5045597007
5045601890
5045607932
5045613487
5045619468
5045625938
5045631736
5045636924
5045642783
5045644797
5045652976
5045658591
5045665305
5045671104
5045677512
5045682883
5045687949
5045692405
5045698874
5045705161
5045709495
5045717429
5045723655
5045728599
5045734824
5045742026
5045748313
5045754294
5045758384
5045768882
5045776511
5045781699
5045786643
5045794089
5045797873
5045806967
5045811667
5045821433
5045829306
5045835410
5045841696
5045849021
5045855124
5045860800
5045865134
5045873801
5045882224
5045887412
5045891135
5045898093
5045901511
5045908896
5045914877
5045919760
5045925436
5045931418
5045936972
5045942587
5045947409
5045951926
5045958517
5045965170
5045971335
5045975668
5045981894
5045986593
5045990011
5045998739
5046003744
5046012228
5046017782
5046022421
5046028525
5046034262
5046039694
5046044394
5046050558
5046055990
5046062399
5046066732
5046072897
5046077291
5046082785
5046088644
5046093588
5046101156
5046106222
5046110922
5046118063
5046122579
5046128317
5046133871
5046139120
5046145956
5046151449
5046157675
5046163473
5046168051
5046173788
5046180380
5046184896
5046191610
5046198507
5046203695
5046209188
5046213583
5046219503
5046224813
5046234151
5046240621
5046248251
5046253377
5046258565
5046263509
5046269124
5046273885
5046279684
5046288106
5046293966
5046298787
5046306905
5046311849
5046318502
5046322957
5046326436
5046336202
5046338521
5046346822
5046352498
5046358724
5046362447
5046369222
5046375203
5046383565
5046387532
5046396932
5046401509
5046408773
5046414327
5046422078
5046428243
5046437520
5046443624
5046448812
5046453938
5046459676
5046464070
5046470418
5046474873
5046479573
5046486348
5046491536
5046497823
5046503133
5046507588
5046512593
5046516743
5046523396
5046528828
5046535420
5046539876
5046545674
5046549947
5046555745
5046561238
5046565755
5046574177
5046579732
5046584553
5046590779
5046595296
5046601521
5046606587
5046612629
5046618001
5046624104
5046630757
5046634480
5046641926
5046647480
5046653035
5046657978
5046663350
5046669880
5046677327
5046682331
5046688008
5046693928
5046698262
5046704670
5046708821
5046715718
5046721577
5046726521
5046731465
5046737141
5046741718
5046749287
5046753620
5046758564
5046765644
5046772297
5046776814
5046782734
5046787861
5046794392
5046798908
5046802387
5046810444
5046814167
5046823383
5046826801
5046835041
5046838581
5046846027
5046850910
5046856403
5046861286
5046867634
5046872333
5046878498
5046884907
5046890217
5046894794
5046898212
5046907306
5046911030
5046918598
5046924396
5046931965
5046937092
5046943500
5046948932
5046955524
5046964069
5046970295
5046974933
5046982135
5046987934
5046992511
5046999774
5047005512
5047014667
5047021137
5047026813
5047033893
5047039447
5047045368
5047050006
5047055560
5047062641
5047068012
5047073932
5047079059
5047086749
5047091327
5047099567
5047105243
5047111407
5047116290
5047120074
5047127277
5047132465
5047137469
5047143085
5047147479
5047153888
5047158954
5047165362
5047170611
5047174151
5047182513
5047184772
5047193988
5047197650
5047206073
5047210040
5047217242
5047223407
5047228473
5047233783
5047239398
5047243731
5047250140
5047254596
5047260516
5047264727
5047270587
5047276934
5047279071
5047286273
5047291400
5047299517
5047305377
5047310565
5047313739
5047322039
5047325396
5047331683
5047336016
5047343340
5047348528
5047353838
5047358965
5047364703
5047370745
5047374896
5047379656
5047385272
5047393633
5047397479
5047402972
5047408709
5047413470
5047419451
5047423724
5047429095
5047434038
5047437701
5047445269
5047448748
5047455096
5047460894
5047466265
5047470782
5047476336
5047482012
5047488482
5047493181
5047498369
5047503496
5047509844
5047514666
5047519182
5047525896
5047531145
5047535723
5047541948
5047547442
5047554522
5047560198
5047567339
5047572588
5047578997
5047584917
5047593279
5047599565
5047607744
5047612932
5047620867
5047627092
5047632952
5047637651
5047644731
5047649309
5047654985
5047659502
5047666155
5047671159
5047678972
5047683366
5047689531
5047694475
5047701555
5047705888
5047709978
5047717729
5047724443
5047728654
5047732988
5047740984
5047746110
5047751176
5047759660
5047765825
5047769670
5047777605
5047783525
5047789201
5047792985
5047801347
5047805314
5047812455
5047817521
5047828813
5047833085
5047841874
5047847245
5047853776
5047859452
5047864640
5047870439
5047876237
5047882280
5047886247
5047890519
5047895890
5047899064
5047906327
5047909867
5047916276
5047920976
5047927262
5047932389
5047938066
5047942277
5047950028
5047956132
5047962602
5047967545
5047972062
5047976579
5047983476
5047988297
5047993302
5047999223
5048004838
5048010392
5048015031
5048019791
5048023148
5048031693
5048035111
5048041398
5048046647
5048052933
5048058732
5048064225
5048069108
5048074418
5048079423
5048085221
5048090531
5048097489
5048103043
5048107926
5048112198
5048117081
5048122452
5048127152
5048134232
5048142533
5048147477
5048153763
5048160233
5048164750
5048171219
5048177750
5048186112
5048192032
5048199295
5048204850
5048210404
5048216690
5048221634
5048228836
5048234635
5048240677
5048246109
5048250809
5048255875
5048263138
5048266739
5048275101
5048280960
5048287186
5048292801
5048297379
5048300919
5048309402
5048312942
5048319717
5048323318
5048331863
5048335648
5048343521
5048348343
5048353287
5048359634
5048364883
5048371902
5048376663
5048382644
5048386856
5048392654
5048398880
5048405472
5048418228
5048426223
5048433731
5048445205
5048452530
5048458938
5048463272
5048468582
5048473098
5048479141
5048483657
5048488174
5048492324
5048497085
5048503067
5048508316
5048515701
5048519973
5048524307
5048529617
5048534439
5048539749
5048545425
5048549575
5048555923
5048563003
5048568496
5048574661
5048579360
5048584243
5048589004
5048594741
5048603469
5048609939
5048615127
5048621230
5048625625
5048631179
5048636977
5048642104
5048648696
5048653884
5048660232
5048663589
5048670241
5048673720
5048680068
5048683974
5048691604
5048697524
5048702224
5048707473
5048713759
5048718825
5048726455
5048730300
5048740065
5048744887
5048750258
5048755080
5048761733
5048769301
5048776076
5048781142
5048787307
5048792250
5048796462
5048801528
5048806105
5048812148
5048817763
5048824721
5048830092
5048835524
5048840651
5048846022
5048851759
5048855666
5048861037
5048865981
5048871962
5048876601
5048880934
5048886366
5048890517
5048896742
5048900893
5048905714
5048913954
5048920485
5048925368
5048930006
5048935744
5048940260
5048946303
5048949843
5048958693
5048964125
5048968764
5048974440
5048979872
5048983290
5048988722
5048993727
5049000075
5049005446
5049012709
5049016737
5049022535
5049027052
5049033155
5049038099
5049042372
5049048475
5049054762
5049058973
5049064772
5049069532
5049075392
5049080946
5049085829
5049094679
5049096815
5049104566
5049109449
5049115736
5049120619
5049125990
5049130323
5049138319
5049144544
5049149061
5049152296
5049159315
5049162672
5049170362
5049173780
5049180860
5049186964
5049192030
5049197157
5049202772
5049208875
5049216016
5049221082
5049227979
5049234327
5049240064
5049244764
5049251478
5049256727
5049262464
5049268995
5049274915
5049280408
5049289686
5049295545
5049304090
5049308851
5049315503
5049321119
5049328687
5049336011
5049343152
5049349805
5049358472
5049364637
5049370435
5049377210
5049383191
5049388501
5049393079
5049400220
5049405408
5049412061
5049417005
5049421094
5049430493
5049437451
5049441907
5049448377
5049453198
5049458692
5049462842
5049466382
5049475537
5049479199
5049487317
5049490979
5049497815
5049502637
5049508008
5049513257
5049518872
5049526379
5049532239
5049536999
5049541882
5049546460
5049551892
5049558423
5049563855
5049570569
5049577771
5049582409
5049588147
5049592175
5049598340
5049603222
5049609814
5049615551
5049622082
5049626538
5049631970
5049637341
5049640942
5049648327
5049654065
5049658764
5049664318
5049671582
5049675732
5049681225
5049687023
5049692211
5049696972
5049702221
5049709362
5049715283
5049719555
5049725475
5049731274
5049737194
5049742932
5049744824
5049754955
5049761242
5049765514
5049768810
5049777477
5049781567
5049788342
5049793774
5049802990
5049809216
5049816601
5049822216
5049829906
5049836071
5049841076
5049851024
5049855541
5049865002
5049874157
5049882946
5049893139
5049898998
5049907848
5049913280
5049924816
5049934093
5049939891
5049956432
5049964061
5049973644
5049983776
5049992259
5050001476
5050010631
5050019786
5050029125
5050035411
5050047801
5050055126
5050061290
5050067455
5050075938
5050080699
5050088145
5050094493
5050101390
5050110667
5050117931
5050123241
5050127391
5050134959
5050140941
5050146068
5050152415
5050158153
5050165050
5050169993
5050176951
5050182078
5050186595
5050191966
5050198314
5050202830
5050210276
5050216441
5050220897
5050227000
5050233165
5050236705
5050243113
5050248118
5050254771
5050260752
5050267771
5050273265
5050278941
5050283396
5050289012
5050295176
5050301036
5050306040
5050312327
5050318186
5050323985
5050328929
5050335032
5050339549
5050344676
5050352061
5050357798
5050362803
5050368357
5050375620
5050380686
5050385142
5050392039
5050396067
5050402354
5050409129
5050416025
5050421091
5050425608
5050432139
5050437144
5050441111
5050449900
5050455881
5050461558
5050466623
5050471811
5050477244
5050484263
5050489634
5050496470
5050502146
5050507944
5050513681
5050521799
5050527475
5050534006
5050540232
5050544870
5050556650
5050565500
5050573130
5050580698
5050591013
5050601450
5050606150
5050622385
5050626291
5050641611
5050648386
5050658884
5050667551
5050677377
5050686411
5050692453
5050704233
5050709848
5050719064
5050728830
5050735971
5050749032
5050755319
5050763864
5050771676
5050780465
5050786874
5050791391
5050803659
5050809030
5050818185
5050825448
5050830819
5050837533
5050842416
5050851083
5050858102
5050865853
5050872750
5050878732
5050884408
5050892587
5050897347
5050903146
5050909127
5050912667
5050921456
5050925424
5050932137
5050938302
5050943063
5050948190
5050954476
5050959542
5050966256
5050971810
5050977547
5050981942
5050989022
5050993661
5050999398
5051005196
5051010079
5051017647
5051023385
5051029488
5051033639
5051039681
5051045357
5051050606
5051055733
5051061837
5051069100
5051074166
5051079781
5051085518
5051089974
5051095833
5051102303
5051107857
5051112923
5051120003
5051125740
5051129952
5051136116
5051142281
5051146675
5051152291
5051159127
5051163338
5051171578
5051176522
5051182198
5051187386
5051192574
5051197457
5051205879
5051210945
5051216744
5051223335
5051229378
5051235848
5051239937
5051247505
5051252815
5051259712
5051266243
5051273018
5051278328
5051283821
5051289070
5051293526
5051301887
5051306953
5051312263
5051318489
5051327278
5051332527
5051338020
5051343941
5051351631
5051357429
5051365059
5051373543
5051378792
5051386177
5051391792
5051398628
5051405403
5051412788
5051419868
5051425239
5051431770
5051436226
5051441780
5051447578
5051451973
5051458015
5051464119
5051468940
5051476692
5051481086
5051486030
5051492500
5051495979
5051503791
5051507392
5051515266
5051521797
5051528205
5051532050
5051539619
5051543037
5051549445
5051553901
5051560249
5051567573
5051573371
5051578376
5051584174
5051588691
5051594611
5051600837
5051606147
5051611762
5051615729
5051622810
5051628913
5051634589
5051638190
5051645270
5051650764
5051656440
5051663825
5051669013
5051674079
5051680549
5051685065
5051690375
5051696784
5051702033
5051709418
5051714667
5051720527
5051726142
5051731086
5051736701
5051742560
5051748358
5051754706
5051761176
5051766181
5051771186
5051777594
5051782172
5051788764
5051793341
5051800055
5051804694
5051811774
5051817572
5051821967
5051828681
5051833685
5051840216
5051845770
5051851874
5051857611
5051864325
5051869269
5051876776
5051881720
5051888861
5051894354
5051899664
5051908697
5051911200
5051920477
5051924383
5051932074
5051937628
5051943243
5051948797
5051954413
5051962897
5051970526
5051976629
5051983343
5051990179
5051996527
5052000860
5052007696
5052015692
5052021185
5052028387
5052034735
5052039190
5052042730
5052051214
5052056951
5052063604
5052068670
5052074835
5052079779
5052085455
5052091741
5052097235
5052102178
5052108892
5052116155
5052120733
5052127203
5052131841
5052137762
5052142034
5052147833
5052151739
5052160467
5052164556
5052171026
5052175970
5052181707
5052187261
5052192937
5052197881
5052204595
5052209661
5052215887
5052220342
5052226507
5052232427
5052238470
5052243230
5052248113
5052255559
5052261907
5052268377
5052273076
5052278936
5052282598
5052290288
5052293706
5052302312
5052307439
5052314275
5052319463
5052325078
5052330327
5052335515
5052339910
5052346624
5052353521
5052358525
5052365483
5052370610
5052375798
5052381963
5052386907
5052393865
5052400090
5052408574
5052413518
5052420110
5052425420
5052432073
5052437077
5052443181
5052449590
5052454961
5052461797
5052467778
5052473027
5052476689
5052487431
5052494511
5052499211
5052505986
5052511357
5052518010
5052523320
5052527165
5052533757
5052539677
5052546086
5052550480
5052558171
5052563603
5052570134
5052576359
5052583317
5052590214
5052597355
5052603825
5052610356
5052615971
5052621586
5052627995
5052636113
5052642155
5052649723
5052656132
5052663212
5052667607
5052674076
5052678593
5052685124
5052689518
5052692936
5052701969
5052706425
5052713749
5052718571
5052724735
5052728703
5052736210
5052741276
5052747501
5052753239
5052759892
5052765141
5052769962
5052776310
5052778507
5052786869
5052791752
5052798099
5052804569
5052809208
5052812565
5052821049
5052824650
5052831058
5052836368
5052842655
5052848392
5052855045
5052860477
5052865909
5052870365
5052876652
5052881412
5052888431
5052895023
5052901371
5052908573
5052913883
5052921268
5052927555
5052934696
5052940128
5052945438
5052952701
5052957218
5052963565
5052968143
5052973026
5052979740
5052983951
5052992435
5052997806
5053002384
5053008487
5053014469
5053018070
5053024844
5053030399
5053035831
5053042667
5053047611
5053052188
5053059207
5053063846
5053070255
5053074954
5053080569
5053087650
5053092166
5053098148
5053105167
5053110171
5053114810
5053125003
5053133548
5053140506
5053144412
5053152163
5053158511
5053162906
5053167849
5053174441
5053179324
5053185061
5053192691
5053199160
5053204532
5053210086
5053218264
5053223086
5053228335
5053236453
5053241763
5053250186
5053256289
5053263125
5053269046
5053274600
5053279788
5053287417
5053294619
5053299197
5053307131
5053313113
5053318179
5053324648
5053329104
5053332644
5053341982
5053348391
5053353335
5053358523
5053363833
5053369021
5053374941
5053379336
5053385683
5053392336
5053398379
5053403139
5053410525
5053416445
5053422854
5053427675
5053434450
5053440066
5053446902
5053451723
5053455507
5053463381
5053467409
5053475100
5053479006
5053486208
5053492189
5053497438
5053503298
5053509035
5053513735
5053519960
5053525087
5053533327
5053538820
5053543947
5053548586
5053552065
5053558962
5053562319
5053569704
5053574465
5053582521
5053587282
5053591493
5053596803
5053603456
5053608278
5053613161
5053618166
5053625490
5053632265
5053637087
5053641481
5053646913
5053652956
5053658937
5053663515
5053667116
5053677187
5053683717
5053688478
5053695436
5053700258
5053706239
5053710878
5053717592
5053722780
5053729310
5053736268
5053740541
5053748659
5053754823
5053760316
5053767457
5053773866
5053779603
5053785157
5053791200
5053796388
5053802919
5053809388
5053816468
5053822694
5053830140
5053836122
5053841981
5053849488
5053858949
5053863893
5053873048
5053878968
5053885926
5053891969
5053897157
5053902345
5053908631
5053913514
5053921021
5053925233
5053932435
5053936158
5053944276
5053948304
5053954896
5053960145
5053966370
5053972047
5053977845
5053982362
5053988587
5053992799
5053998902
5054003419
5054008729
5054018616
5054026978
5054033753
5054041993
5054047852
5054057435
5054063233
5054071900
5054080689
5054090699
5054102234
5054112549
5054120545
5054127381
5054135681
5054142823
5054149597
5054157898
5054167603
5054175354
5054182739
5054189087
5054198059
5054206543
5054213135
5054222229
5054230774
5054238342
5054246338
5054254883
5054263489
5054269958
5054280273
5054286438
5054296509
5054303284
5054313721
5054318786
5054328796
5054337158
5054343445
5054351196
5054359802
5054367614
5054376159
5054385315
5054394043
5054401184
5054409790
5054417724
5054423828
5054432922
5054441772
5054449890
5054456787
5054467102
5054475341
5054481628
5054491760
5054500976
5054509887
5054516479
5054526977
5054534545
5054545715
5054552306
5054571288
5054579589
5054589538
5054602904
5054609130
5054618163
5054626769
5054634704
5054641356
5054651671
5054658935
5054666198
5054672606
5054682921
5054691893
5054699828
5054706359
5054713805
5054721862
5054728881
5054735778
5054743773
5054751158
5054762328
5054771361
5054778014
5054785765
5054794982
5054802428
5054811217
5054818785
5054827513
5054834715
5054843626
5054851561
5054859618
5054867308
5054875304
5054883116
5054892271
5054900755
5054908140
5054917540
5054924254
5054932615
5054939329
5054948912
5054958006
5054965757
5054974241
5054982420
5054990294
5054998350
5055006041
5055014585
5055022947
5055029844
5055040037
5055047117
5055055479
5055062071
5055070310
5055076780
5055086729
5055094358
5055103269
5055111265
5055119993
5055124815
5055135069
5055143552
5055151487
5055160520
5055166563
5055176694
5055183408
5055193723
5055200437
5055209959
5055216855
5055226316
5055236265
5055244565
5055250852
5055254209
5055261716
5055267026
5055273008
5055279294
5055284360
5055289670
5055293943
5055302060
5055305722
5055312802
5055319455
5055325376
5055326963
5055334958
5055339780
5055344846
5055349790
5055354795
5055359799
5055363034
5055367734
5055371030
5055375913
5055381040
5055385312
5055389523
5055394223
5055397763
5055402768
5055406735
5055410886
