4801462317
4801468360
4801474097
4801479102
4801484168
4801490088
4801494544
4801500891
4801506629
4801512976
4801519385
4801525244
4801531287
4801538123
4801544531
4801551001
4801556738
4801564062
4801571081
4801577856
4801583166
4801590491
4801596533
4801604407
4801610754
4801615149
4801621557
4801628699
4801633337
4801640967
4801646032
4801652868
4801659399
4801665014
4801671789
4801679907
4801687475
4801694494
4801700720
4801707800
4801715124
4801721899
4801730505
4801736975
4801745703
4801752477
4801758581
4801765417
4801772680
4801780004
4801787695
4801792455
4801801244
4801808019
4801814855
4801821569
4801829504
4801836095
4801844274
4801851904
4801858434
4801864721
4801872228
4801879308
4801886083
4801894018
4801900487
4801907873
4801915502
4801922460
4801929174
4801938146
4801944188
4801954076
4801959874
4801967687
4801976415
4801983922
4801993261
4801999242
4802007421
4802011815
4802021520
4802028966
4802034398
4802044042
4802050817
4802058263
4802064122
4802071874
4802078465
4802086827
4802095311
4802102879
4802110509
4802116795
4802124242
4802131078
4802140233
4802149266
4802158177
4802166478
4802174962
4802184422
4802193028
4802202000
4802214329
4802227513
4802233983
4802241795
4802249730
4802257054
4802265965
4802272740
4802279637
4802287144
4802293614
4802301426
4802309117
4802316868
4802324314
4802331333
4802338902
4802347447
4802356236
4802364292
4802373448
4802379978
4802388828
4802395847
4802403599
4802411411
4802418247
4802425327
4802432224
4802443089
4802450108
4802457127
4802463779
4802471775
4802478550
4802485508
4802494175
4802501682
4802509983
4802518528
4802527073
4802536533
4802543918
4802552219
4802558078
4802569004
4802576633
4802584568
4802593601
4802601169
4802610935
4802620456
4802628879
4802636020
4802643650
4802651706
4802660068
4802669406
4802677158
4802685275
4802691135
4802702548
4802711520
4802717868
4802725925
4802734897
4802742099
4802749240
4802756442
4802766025
4802772433
4802781283
4802785922
4802797946
4802806918
4802814792
4802824557
4802833041
4802841464
4802846591
4802858065
4802865695
4802876193
4802881625
4802893344
4802898104
4802908847
4802918063
4802926181
4802935031
4802943148
4802951144
4802957614
4802967257
4802975009
4802982394
4802989840
4802996981
4803005892
4803013522
4803020419
4803027682
4803035555
4803043429
4803050997
4803059298
4803067354
4803073275
4803083407
4803087679
4803097628
4803101900
4803111544
4803120089
4803127535
4803135531
4803143587
4803151156
4803157442
4803165560
4803172396
4803182528
4803191805
4803199678
4803206270
4803214327
4803222811
4803230562
4803239168
4803246858
4803255098
4803261385
4803271211
4803277254
4803287019
4803295686
4803303682
4803310396
4803320100
4803326753
4803335725
4803342317
4803351900
4803359773
4803367586
4803375093
4803383272
4803387910
4803398836
4803408174
4803416353
4803424775
4803432832
4803441011
4803449189
4803457246
4803465852
4803472017
4803480195
4803487275
4803492891
4803502351
4803509736
4803517976
4803525971
4803534028
4803542695
4803550813
4803558503
4803566499
4803574189
4803582063
4803589814
4803603364
4803615693
4803628510
4803641083
4803650544
4803662995
4803670624
4803678376
4803686249
4803694062
4803703095
4803709870
4803718781
4803726166
4803733796
4803742218
4803750763
4803759369
4803766694
4803774872
4803781952
4803788910
4803796234
4803805024
4803810517
4803820710
4803828217
4803835541
4803844086
4803851288
4803858063
4803865509
4803874176
4803884552
4803893646
4803901947
4803909271
4803913116
4803921112
4803924408
4803932770
4803936127
4803944183
4803951874
4803956451
4803963592
4803969635
4803975311
4803981842
4803987152
4803992279
4804000946
4804004852
4804012726
4804016144
4804024444
4804029999
4804035553
4804039032
4804047455
4804051849
4804058563
4804064605
4804070404
4804076263
4804082000
4804089935
4804094818
4804101471
4804108123
4804114349
4804119232
4804126922
4804132842
4804140045
4804145233
4804152801
4804156402
4804164031
4804167022
4804175262
4804180938
4804186858
4804192596
4804197234
4804204559
4804209502
4804216216
4804219939
4804229400
4804235442
4804241607
4804246123
4804251495
4804258330
4804264434
4804270904
4804275603
4804280913
4804287139
4804292510
4804297698
4804302947
4804308806
4804314361
4804319671
4804324798
4804331023
4804334929
4804341582
4804346160
4804353484
4804358184
4804364104
4804368560
4804374236
4804380400
4804385710
4804392241
4804397795
4804403228
4804409026
4804415435
4804420134
4804426360
4804431182
4804437651
4804443389
4804448577
4804453826
4804459014
4804464629
4804469817
4804476775
4804481169
4804487151
4804493254
4804499602
4804503935
4804509062
4804513945
4804521819
4804527251
4804532378
4804537688
4804542876
4804548552
4804552458
4804559294
4804565398
4804571074
4804577177
4804583037
4804587431
4804592985
4804598112
4804605742
4804612028
4804617216
4804621733
4804627043
4804632536
4804637785
4804644011
4804650114
4804656340
4804661039
4804667570
4804673307
4804678556
4804685026
4804690397
4804695646
4804701200
4804706022
4804711943
4804717619
4804723905
4804730619
4804737333
4804742887
4804746977
4804753568
4804758573
4804764799
4804771269
4804777067
4804783415
4804789640
4804794950
4804800932
4804805448
4804810331
4804818754
4804822355
4804829557
4804832609
4804840665
4804845670
4804851102
4804856473
4804862333
4804867704
4804873807
4804879362
4804884000
4804890409
4804896207
4804903104
4804908658
4804913785
4804918912
4804924161
4804929288
4804935148
4804942106
4804946866
4804953092
4804957181
4804962857
4804967191
4804974515
4804980985
4804986417
4804991788
4804997098
4805003568
4805007962
4805014859
4805019864
4805026395
4805031278
4805038358
4805043485
4805049832
4805055264
4805060758
4805066983
4805073026
4805077481
4805083096
4805088345
4805092740
4805099271
4805104703
4805112759
4805118069
4805123318
4805128934
4805134610
4805139920
4805145718
4805152981
4805157620
4805163052
4805167386
4805173123
4805177640
4805184598
4805191678
4805197171
4805201993
4805207120
4805212674
4805218289
4805223477
4805229397
4805235379
4805241116
4805246121
4805250943
4805258023
4805262906
4805269680
4805275357
4805282620
4805288235
4805293667
4805299282
4805303433
4805309597
4805315457
4805323269
4805327969
4805333096
4805339810
4805345425
4805348293
4805355068
4805362087
4805367642
4805373074
4805378506
4805384670
4805390774
4805396816
4805401943
4805408108
4805413784
4805420620
4805424587
4805430263
4805435512
4805442165
4805448086
4805454311
4805459072
4805464870
4805470547
4805474880
4805481533
4805485561
4805494533
4805499904
4805505031
4805510036
4805515590
4805522243
4805526760
4805533474
4805538051
4805543972
4805548366
4805554653
4805559169
4805565761
4805573024
4805578456
4805583522
4805588893
4805595546
4805601528
4805606716
4805611171
4805618617
4805622035
4805628627
4805634242
4805639553
4805644863
4805649928
4805656947
4805661525
4805669093
4805673732
4805679530
4805684291
4805691188
4805697353
4805702724
4805707668
4805712733
4805718532
4805723720
4805729213
4805734523
4805741908
4805746669
4805752284
4805756679
4805762416
4805766872
4805773524
4805780238
4805785792
4805791408
4805796901
4805802638
4805808070
4805813868
4805820094
4805827479
4805832545
4805838771
4805843348
4805849330
4805853663
4805860682
4805867518
4805872889
4805878749
4805883937
4805888636
4805894252
4805900660
4805906947
4805912013
4805916407
4805922755
4805927210
4805933070
4805937342
4805943446
4805949488
4805955103
4805960902
4805966456
4805972132
4805977259
4805982081
4805987574
4805994898
4805999537
4806005701
4806010401
4806017298
4806022852
4806028040
4806034876
4806040308
4806046046
4806051905
4806057642
4806062342
4806068568
4806073939
4806079798
4806084315
4806090723
4806097010
4806102625
4806108423
4806117151
4806123682
4806128565
4806134729
4806139307
4806146082
4806151392
4806156580
4806164148
4806168055
4806174219
4806179834
4806186731
4806191065
4806197412
4806200830
4806208765
4806214502
4806219690
4806224634
4806229761
4806236170
4806240991
4806247339
4806251734
4806258081
4806261133
4806269312
4806275476
4806280664
4806287500
4806293359
4806299341
4806303735
4806310510
4806315271
4806322534
4806329309
4806334924
4806341455
4806347620
4806352319
4806358545
4806366601
4806370996
4806378381
4806383935
4806389001
4806395654
4806401391
4806406762
4806411401
4806418298
4806424585
4806430017
4806435388
4806440454
4806446313
4806452417
4806459130
4806463891
4806471765
4806476892
4806482141
4806488793
4806492822
4806499902
4806506127
4806511987
4806516259
4806522546
4806529077
4806534387
4806541162
4806547021
4806552575
4806556909
4806562890
4806567223
4806575036
4806580590
4806586144
4806592553
4806598168
4806603295
4806607690
4806614465
4806620324
4806626977
4806632409
4806636376
4806643273
4806648888
4806653710
4806661034
4806667748
4806673485
4806678918
4806685021
4806688927
4806695397
4806701623
4806707116
4806711632
4806718590
4806724144
4806729577
4806735802
4806742089
4806747826
4806752526
4806759240
4806765953
4806771141
4806776390
4806781945
4806789513
4806794274
4806801110
4806805504
4806811669
4806817955
4806823082
4806830223
4806836510
4806846214
4806849938
4806859093
4806864647
4806870689
4806876976
4806883202
4806888268
4806894615
4806901512
4806906700
4806912804
4806919334
4806924889
4806931053
4806935265
4806942284
4806947105
4806953209
4806961387
4806967857
4806974083
4806978294
4806984581
4806991051
4806996483
4807002769
4807008079
4807013267
4807019676
4807025474
4807030723
4807036155
4807041832
4807047813
4807053856
4807059837
4807064170
4807070335
4807076133
4807080894
4807087303
4807093162
4807098350
4807104698
4807110679
4807116661
4807120262
4807128623
4807134239
4807139976
4807146385
4807151206
4807158042
4807163963
4807169029
4807173789
4807179466
4807186546
4807191978
4807197532
4807202842
4807206443
4807214378
4807220542
4807225730
4807230918
4807236411
4807241721
4807247703
4807253989
4807260947
4807266562
4807271140
4807276328
4807281211
4807289023
4807295127
4807300925
4807306785
4807312827
4807318564
4807324119
4807328269
4807333945
4807339621
4807346213
4807351950
4807356589
4807363608
4807369406
4807375510
4807381980
4807388205
4807392783
4807398276
4807404563
4807410300
4807415732
4807421958
4807427756
4807434897
4807440329
4807445273
4807451315
4807455832
4807461691
4807466452
4807473959
4807479453
4807484946
4807490683
4807497153
4807502280
4807508078
4807513632
4807518759
4807524496
4807530844
4807536948
4807542258
4807547507
4807552939
4807558493
4807564780
4807570883
4807574179
4807582602
4807587668
4807593100
4807598532
4807605124
4807609762
4807615561
4807620077
4807626364
4807632467
4807637716
4807644857
4807649618
4807655966
4807659201
4807667013
4807672262
4807678366
4807684774
4807691244
4807696188
4807702536
4807707846
4807712423
4807718527
4807723654
4807729757
4807735250
4807742147
4807747946
4807753317
4807758016
4807763998
4807770162
4807774679
4807782064
4807786825
4807793783
4807798238
4807804952
4807810018
4807816305
4807822103
4807827779
4807831014
4807838827
4807844381
4807849508
4807855245
4807861349
4807867391
4807873311
4807878866
4807883382
4807890340
4807895711
4807902547
4807908407
4807914327
4807920003
4807926351
4807932393
4807938863
4807946859
4807955892
4807962606
4807968221
4807973531
4807979695
4807984578
4807991658
4807998677
4808004232
4808010518
4808014913
4808022054
4808026753
4808033650
4808038777
4808045369
4808050496
4808057576
4808063435
4808069051
4808075581
4808082051
4808088460
4808093587
4808099568
4808104207
4808110860
4808116353
4808122273
4808129536
4808133931
4808140706
4808146016
4808152669
4808155965
4808162190
4808169270
4808175313
4808180867
4808186055
4808190754
4808197224
4808201802
4808208394
4808214192
4808217976
4808226277
4808230977
4808236226
4808243794
4808248799
4808255146
4808260273
4808266011
4808269245
4808276753
4808282551
4808289021
4808293843
4808299641
4808304890
4808310688
4808316426
4808321308
4808327656
4808335163
4808339314
4808346150
4808351154
4808357197
4808362324
4808367939
4808373615
4808379231
4808385273
4808389362
4808396015
4808400898
4808406513
4808412495
4808417683
4808423786
4808429890
4808435383
4808440388
4808448139
4808455768
4808462055
4808468098
4808474262
4808481952
4808487568
4808495380
4808501606
4808506611
4808513874
4808519672
4808526020
4808530719
4808537372
4808543110
4808549152
4808554584
4808560443
4808566730
4808571613
4808576801
4808584186
4808590839
4808596332
4808602130
4808608539
4808613605
4808620624
4808625690
4808631854
4808636249
4808642352
4808648883
4808653461
4808661151
4808665607
4808672321
4808675983
4808684345
4808690143
4808696246
4808702289
4808707355
4808712604
4808719623
4808724200
4808730243
4808734088
4808742084
4808748553
4808754474
4808761676
4808769244
4808776874
4808787372
4808795184
4808802020
4808808551
4808814349
4808819354
4808824908
4808830890
4808836383
4808843219
4808847613
4808854571
4808860369
4808865252
4808869891
4808875994
4808881976
4808887957
4808893939
4808899615
4808904254
4808909747
4808915362
4808920977
4808927142
4808933489
4808938738
4808944903
4808950091
4808954546
4808961688
4808968462
4808974444
4808978289
4808985796
4808992022
4808998309
4809003558
4809009417
4809015093
4809021990
4809027666
4809033953
4809040179
4809046160
4809051653
4809054949
4809063067
4809066485
4809074358
4809080462
4809087114
4809093096
4809099077
4809104693
4809109819
4809116839
4809121782
4809127886
4809133562
4809140764
4809143877
4809155230
4809162676
4809168657
4809174578
4809180315
4809186785
4809191240
4809198931
4809202288
4809209978
4809215349
4809220903
4809228349
4809234636
4809240495
4809244768
4809250322
4809255876
4809261491
4809266496
4809274248
4809280046
4809285173
4809290239
4809295427
4809301714
4809306291
4809313860
4809318498
4809324480
4809331132
4809336748
4809339921
4809348772
4809354753
4809359331
4809365312
4809370805
4809376420
4809382341
4809388139
4809392717
4809399858
4809403581
4809411088
4809417009
4809422319
4809428239
4809434404
4809440995
4809445878
4809452348
4809458390
4809462846
4809468949
4809474626
4809480302
4809486589
4809490495
4809497758
4809503617
4809507951
4809514665
4809521379
4809528459
4809533402
4809539933
4809546098
4809552018
4809556779
4809563126
4809568986
4809575333
4809580033
4809586564
4809592606
4809598710
4809605119
4809610062
4809617081
4809621842
4809628312
4809635209
4809642472
4809648820
4809654557
4809659989
4809667191
4809672928
4809678361
4809684464
4809690995
4809696305
4809701920
4809707657
4809712784
4809718461
4809725174
4809730973
4809736588
4809742081
4809748001
4809753556
4809760086
4809766129
4809771134
4809776505
4809783158
4809788040
4809794876
4809798966
4809804581
4809810440
4809815994
4809821304
4809827225
4809833023
4809840408
4809846268
4809851090
4809858170
4809864456
4809870621
4809875443
4809881180
4809886856
4809892410
4809898270
4809903091
4809907852
4809915054
4809921280
4809926895
4809931412
4809937759
4809944107
4809948746
4809955032
4809961563
4809967544
4809971756
4809977676
4809984329
4809990188
4809994888
4810001724
4810006180
4810013076
4810022598
4810028946
4810034439
4810039993
4810045669
4810051956
4810056594
4810063491
4810069961
4810075332
4810081985
4810087295
4810095657
4810100173
4810107498
4810113662
4810119583
4810126235
4810131057
4810137466
4810143997
4810150771
4810156143
4810162490
4810167434
4810175185
4810180618
4810186843
4810193130
4810198867
4810205764
4810210769
4810216689
4810221267
4810227492
4810234145
4810240066
4810245742
4810251784
4810259048
4810263930
4810270522
4810275283
4810280532
4810285232
4810291945
4810296584
4810302688
4810308547
4810315017
4810320754
4810326125
4810331801
4810336074
4810343154
4810347914
4810355605
4810360793
4810366652
4810371474
4810378737
4810384658
4810389968
4810393447
4810401808
4810405287
4810413832
4810419509
4810424635
4810430373
4810434584
4810440077
4810447096
4810452528
4810459181
4810464796
4810469740
4810475905
4810480421
4810487868
4810493300
4810498793
4810504530
4810509413
4810516615
4810521498
4810528456
4810533156
4810538832
4810543349
4810549025
4810555372
4810561171
4810566847
4810572584
4810578016
4810583265
4810590040
4810595778
4810600294
4810605543
4810611464
4810617506
4810623365
4810628492
4810635572
4810642469
4810648085
4810654676
4810659681
4810664442
4810671156
4810675856
4810682386
4810688917
4810693128
4810699781
4810704664
4810711073
4810716566
4810721937
4810727613
4810732435
4810738477
4810744398
4810750196
4810757276
4810763746
4810769544
4810774122
4810779432
4810785352
4810790296
4810795728
4810801160
4810806654
4810812635
4810818494
4810823926
4810830762
4810836622
4810842176
4810846631
4810852979
4810858228
4810863782
4810867200
4810876111
4810881421
4810886060
4810893018
4810896985
4810902417
4810908216
4810913892
4810919141
4810926038
4810932019
4810937268
4810942090
4810948743
4810953809
4810959729
4810965711
4810969922
4810976148
4810980237
4810987744
4810992566
4810997693
4811003675
4811008679
4811013806
4811020886
4811026135
4811033093
4811038709
4811044385
4811050916
4811057141
4811064282
4811068860
4811075452
4811080273
4811085889
4811090344
4811097302
4811100903
4811108472
4811114514
4811120618
4811126355
4811132458
4811139599
4811145947
4811152539
4811159192
4811164624
4811169201
4811175000
4811180127
4811187390
4811191540
4811199841
4811203869
4811211621
4811217541
4811223217
4811229321
4811234265
4811241955
4811247753
4811253674
4811259350
4811264477
4811269299
4811277111
4811280529
4811287670
4811292858
4811298840
4811305371
4811309826
4811316357
4811321423
4811327770
4811334362
4811340160
4811344738
4811350903
4811357250
4811363476
4811367626
4811372936
4811378735
4811384228
4811389050
4811394848
4811399975
4811405529
4811410900
4811417492
4811423168
4811429760
4811435070
4811442638
4811448559
4811454723
4811460949
4811466747
4811472545
4811477306
4811482738
4811489452
4811494213
4811499889
4811505687
4811510753
4811514965
4811521679
4811529552
4811533641
4811538219
4811544750
4811550243
4811556346
4811562694
4811569164
4811574169
4811579845
4811586437
4811591503
4811597606
4811603893
4811609691
4811615733
4811621715
4811626293
4811632640
4811638622
4811644237
4811651134
4811657237
4811663402
4811669688
4811675548
4811679881
4811685558
4811692332
4811698436
4811703502
4811709849
4811714610
4811721690
4811727367
4811734569
4811738353
4811748057
4811753245
4811759654
4811765635
4811771861
4811777842
4811783763
4811789317
4811796153
4811801829
4811806773
4811813426
4811818065
4811824107
4811829722
4811835337
4811841197
4811846690
4811852427
4811856883
4811863047
4811869334
4811875376
4811881968
4811888194
4811892771
4811899302
4811904124
4811910166
4811915598
4811920298
4811927500
4811932566
4811939280
4811945384
4811951670
4811956065
4811962229
4811966563
4811973887
4811978526
4811986155
4811991160
4811997691
4812003123
4812009653
4812015024
4812020151
4812025889
4812031382
4812036082
4812041941
4812048411
4812055063
4812059946
4812065378
4812071299
4812077402
4812082590
4812089304
4812095041
4812101084
4812108652
4812114267
4812119699
4812122873
4812129526
4812135141
4812141062
4812147104
4812152780
4812158029
4812163767
4812168650
4812174753
4812180124
4812187204
4812192636
4812198923
4812204599
4812210642
4812214853
4812221872
4812228159
4812233713
4812238718
4812245981
4812252023
4812257394
4812262888
4812268625
4812276682
4812281686
4812288889
4812294443
4812300180
4812306283
4812311655
4812318124
4812323862
4812329477
4812335946
4812341379
4812346933
4812352487
4812358590
4812364084
4812371286
4812375863
4812382272
4812386789
4812393380
4812400399
4812405587
4812411203
4812417062
4812422982
4812427316
4812433969
4812440988
4812448007
4812453561
4812457711
4812464974
4812468820
4812475717
4812480538
4812487374
4812492806
4812498055
4812504220
4812509591
4812516000
4812522408
4812528756
4812534737
4812540414
4812545907
4812552255
4812557687
4812562020
4812569650
4812574288
4812581063
4812585885
4812592904
4812598153
4812603524
4812610604
4812615060
4812620858
4812627389
4812632821
4812638009
4812643258
4812650887
4812656258
4812661934
4812667794
4812673287
4812679451
4812685433
4812692696
4812696969
4812703927
4812709908
4812715035
4812719613
4812725777
4812731514
4812739998
4812745491
4812750984
4812756966
4812762886
4812769356
4812774361
4812782845
4812788460
4812794136
4812800118
4812806099
4812811775
4812819405
4812825325
4812831551
4812836678
4812843086
4812848946
4812854439
4812859077
4812865486
4812869759
4812876717
4812882454
4812887703
4812893745
4812899971
4812905220
4812909981
4812917305
4812922859
4812928047
4812934273
4812940254
4812945808
4812951912
4812956917
4812962471
4812968330
4812972786
4812979744
4812985847
4812991401
4812998115
4813002205
4813008491
4813013984
4813019233
4813027229
4813032722
4813037910
4813043342
4813049690
4813055061
4813060859
4813066230
4813072761
4813077094
4813083991
4813089973
4813095405
4813101264
4813107124
4813113227
4813117805
4813123908
4813130317
4813135688
4813140815
4813146369
4813153266
4813159431
4813165046
4813171516
4813176948
4813183112
4813188483
4813195991
4813201911
4813206672
4813212470
4813218024
4813224494
4813230414
4813236335
4813241889
4813248237
4813253852
4813258918
4813263434
4813269904
4813277106
4813282416
4813288764
4813295173
4813300666
4813305610
4813315924
4813323615
4813329047
4813336249
4813342536
4813349555
4813353888
4813360175
4813366156
4813372565
4813380255
4813385871
4813392401
4813398505
4813403571
4813408515
4813416327
4813422369
4813427496
4813433295
4813438605
4813444098
4813452399
4813461493
4813468024
4813477301
4813483466
4813488898
4813494574
4813500433
4813507025
4813511664
4813517157
4813523993
4813530157
4813535467
4813541388
4813548468
4813554693
4813559210
4813563849
4813570624
4813575506
4813581427
4813588446
4813594427
4813600470
4813606268
4813610540
4813615850
4813622076
4813626898
4813633306
4813639715
4813644903
4813650885
4813656011
4813660650
4813666876
4813671209
4813678350
4813684576
4813690496
4813696661
4813701422
4813707830
4813713934
4813718694
4813724493
4813730169
4813735235
4813742254
4813747137
4813753545
4813759161
4813764471
4813770086
4813775823
4813780218
4813785589
4813792425
4813798406
4813804937
4813810857
4813816656
4813821294
4813828313
4813833501
4813839544
4813845037
4813851018
4813856939
4813862310
4813869878
4813874944
4813881719
4813889653
4813897405
4813903997
4813910711
4813916753
4813924016
4813930242
4813936589
4813940740
4813947576
4813953191
4813957952
4813962407
4813970403
4813976384
4813981816
4813988103
4813993840
4813998784
4814004277
4814010747
4814018132
4814026677
4814033147
4814040776
4814047307
4814056645
4814062444
4814067265
4814073918
4814077214
4814084416
4814089787
4814095952
4814103093
4814110234
4814115666
4814122014
4814128178
4814134770
4814140935
4814146123
4814151677
4814155156
4814162846
4814165898
4814174748
4814180119
4814186406
4814192814
4814199162
4814204350
4814208439
4814214238
4814220341
4814226567
4814231999
4814238530
4814245976
4814252079
4814257511
4814263493
4814270024
4814274174
4814279606
4814285954
4814292301
4814296696
4814303166
4814307743
4814314518
4814320500
4814325199
4814331059
4814336552
4814343082
4814349430
4814355167
4814361332
4814367435
4814371952
4814377933
4814383610
4814390385
4814395878
4814401859
4814406437
4814412723
4814420231
4814425968
4814431888
4814437504
4814442692
4814448551
4814454166
4814460453
4814466495
4814472233
4814476749
4814482486
4814488468
4814493534
4814500431
4814503849
4814510685
4814516666
4814522831
4814528812
4814535160
4814541019
4814547367
4814551456
4814556766
4814562259
4814568302
4814573734
4814580142
4814585697
4814591739
4814598880
4814604068
4814610660
4814615909
4814621402
4814624698
4814631778
4814635318
4814643008
4814646182
4814654971
4814661563
4814666202
4814672366
4814678104
4814683536
4814688724
4814694156
4814700015
4814705264
4814709842
4814716495
4814722659
4814728274
4814732852
4814738223
4814741519
4814749026
4814754886
4814759463
4814766421
4814772403
4814779055
4814783877
4814790286
4814795718
4814801944
4814807376
4814813418
4814817996
4814823855
4814828494
4814834292
4814839602
4814845523
4814851992
4814858279
4814865054
4814869387
4814875796
4814882449
4814887942
4814893557
4814899905
4814903445
4814911257
4814917178
4814923403
4814929507
4814935366
4814942019
4814947146
4814953677
4814960757
4814966616
4814971560
4814978274
4814981997
4814989992
4814993471
4815001589
4815007693
4815013979
4815019961
4815027468
4815032534
4815039187
4815045351
4815050539
4815057131
4815061709
4815067080
4815072817
4815078371
4815081850
4815090029
4815093264
4815100222
4815106630
4815112856
4815118959
4815123659
4815129946
4815135378
4815141115
4815145265
4815152162
4815157839
4815163942
4815169191
4815176698
4815180177
4815187135
4815193056
4815198854
4815206178
4815210878
4815217226
4815223024
4815227419
4815233217
4815238466
4815244814
4815252260
4815258241
4815264040
4815267397
4815274843
4815279848
4815285524
4815291322
4815296632
4815301698
4815307680
4815313966
4815320680
4815325807
4815331911
4815337953
4815343263
4815350709
4815354066
4815361879
4815366884
4815372438
4815378480
4815383119
4815390443
4815394349
4815400270
4815406251
4815412110
4815416871
4815423524
4815428590
4815435975
4815444947
4815451417
4815457887
4815464540
4815470582
4815475465
4815482789
4815487855
4815495423
4815498841
4815508241
4815513184
4815519227
4815525514
4815531495
4815538148
4815542847
4815549500
4815556275
4815561341
4815567628
4815574036
4815578736
4815584473
4815589234
4815597108
4815600403
4815608704
4815612061
4815619263
4815625001
4815630799
4815636780
4815642884
4815648621
4815654358
4815661011
4815665284
4815672425
4815678528
4815683106
4815689454
4815695984
4815701172
4815707703
4815712464
4815718567
4815723572
4815732239
4815736450
4815741822
4815747620
4815753174
4815758972
4815764588
4815770386
4815776795
4815782776
4815788757
4815794129
4815798584
4815804138
4815809265
4815816040
4815820496
4815826843
4815830139
4815836853
4815842712
4815848877
4815854370
4815860779
4815866882
4815872864
4815879028
4815884766
4815890808
4815894958
4815900574
4815906921
4815912536
4815917236
4815923401
4815928589
4815935058
4815940429
4815946350
4815951477
4815957641
4815960998
4815968445
4815975036
4815981079
4815986633
4815992187
4815997375
4816003234
4816008667
4816013366
4816019531
4816024169
4816030883
4816037170
4816043273
4816049377
4816053832
4816059692
4816065612
4816072387
4816079589
4816084411
4816090515
4816095825
4816101684
4816107604
4816112182
4816118835
4816122497
4816129638
4816134887
4816140258
4816145812
4816151427
4816156799
4816164062
4816169738
4816176025
4816180968
4816185607
4816191955
4816197082
4816203246
4816209167
4816214599
4816218078
4816225707
4816229308
4816237731
4816242980
4816249206
4816254760
4816260314
4816266356
4816272643
4816278380
4816283568
4816289489
4816294371
4816300536
4816305114
4816311034
4816316039
4816322386
4816328185
4816333800
4816339354
4816345519
4816350707
4816356627
4816362059
4816367430
4816373168
4816377806
4816384764
4816389830
4816395628
4816400877
4816407469
4816412657
4816419554
4816424681
4816430052
4816435301
4816440916
4816446593
4816452574
4816458433
4816465208
4816470702
4816476378
4816481200
4816485777
4816492674
4816497740
4816502806
4816508116
4816514708
4816520384
4816526488
4816532347
4816538328
4816544249
4816549864
4816555052
4816560667
4816567137
4816572203
4816578856
4816585142
4816590147
4816595335
4816603941
4816607603
4816615293
4816619444
4816627623
4816631224
4816639158
4816644834
4816650755
4816655088
4816661436
4816666685
4816673338
4816678709
4816683897
4816690428
4816695616
4816701109
4816704893
4816711851
4816717161
4816722898
4816729429
4816735654
4816740415
4816746275
4816751524
4816756773
4816763486
4816769163
4816775388
4816780637
4816785947
4816789243
4816795774
4816801389
4816807004
4816812192
4816817747
4816824033
4816830076
4816836667
4816842954
4816847349
4816854368
4816859983
4816865110
4816872556
4816876218
4816883481
4816888913
4816894895
4816900876
4816906675
4816912168
4816917722
4816923215
4816928525
4816934079
4816938474
4816945493
4816950315
4816957150
4816962277
4816968686
4816973447
4816979672
4816983029
4816989865
4816995908
4817001157
4817006589
4817010800
4817016293
4817022153
4817027890
4817034055
4817039792
4817045468
4817050961
4817056821
4817061948
4817068845
4817074826
4817081784
4817087582
4817092831
4817098691
4817103940
4817111264
4817118161
4817124142
4817129330
4817134945
4817141476
4817147641
4817154294
4817160702
4817166684
4817173886
4817179135
4817184201
4817191098
4817196896
4817203610
4817210202
4817216000
4817221310
4817226925
4817233456
4817239071
4817245785
4817250973
4817256161
4817262203
4817269406
4817272885
4817281918
4817285275
4817292599
4817299252
4817305172
4817310848
4817316525
4817322445
4817328548
4817335690
4817340267
4817347164
4817352108
4817357845
4817363522
4817368954
4817374630
4817380733
4817387142
4817393368
4817398739
4817403072
4817409969
4817414669
4817422115
4817427364
4817434200
4817439022
4817444698
4817451046
4817456661
4817461849
4817467586
4817475032
4817479671
4817485714
4817490963
4817497005
4817500179
4817507686
4817514095
4817519832
4817525142
4817530269
4817535579
4817541133
4817547908
4817554073
4817560359
4817565730
4817571285
4817574214
4817582576
4817588680
4817595699
4817603023
4817628719
4817633479
4817643672
4817649165
4817654719
4817661372
4817668452
4817674007
4817677180
4817685542
4817691279
4817695674
4817702754
4817707698
4817713984
4817718257
4817724727
4817730708
4817735713
4817741023
4817746943
4817752498
4817757808
4817764460
4817769404
4817775569
4817779048
4817786738
4817792292
4817797969
4817803767
4817809382
4817815058
4817820185
4817826350
4817832148
4817838801
4817843135
4817849543
4817854914
4817861384
4817866755
4817872859
4817878108
4817883723
4817889155
4817894770
4817900202
4817904963
4817910761
4817918513
4817924189
4817929865
4817935358
4817940363
4817947321
4817951838
4817957148
4817963923
4817969477
4817973994
4817979731
4817985285
4817989924
4817996821
4818003351
4818009150
4818015619
4818020685
4818026972
4818030878
4818037409
4818042963
4818050287
4818053461
4818060663
4818063776
4818071650
4818076044
4818081598
4818088495
4818094477
4818098993
4818104608
4818109796
4818115656
4818123651
4818129755
4818135431
4818141657
4818146967
4818151728
4818156915
4818161920
4818169367
4818176264
4818181207
4818187860
4818193964
4818200250
4818206171
4818212579
4818219782
4818226129
4818232294
4818237177
4818244623
4818247980
4818255487
4818262262
4818266901
4818273065
4818279291
4818285638
4818290643
4818297540
4818303888
4818309747
4818314874
4818320733
4818326532
4818332391
4818337884
4818344293
4818350396
4818355157
4818362176
4818368646
4818374444
4818379510
4818387078
4818392999
4818397699
4818403070
4818408136
4818414727
4818421380
4818428399
4818434136
4818439630
4818445977
4818449883
4818456658
4818464837
4818470574
4818476678
4818482354
4818488580
4818493646
4818499017
4818505792
4818512933
4818519402
4818523125
4818530206
4818536736
4818541863
4818547601
4818553948
4818559869
4818564873
4818570916
4818577386
4818582757
4818589409
4818595086
4818600640
4818605157
4818611748
4818618889
4818622918
4818629632
4818635064
4818641045
4818646477
4818652703
4818657219
4818665154
4818671196
4818676751
4818681694
4818688469
4818694268
4818699089
4818706414
4818714958
4818722954
4818728813
4818736870
4818742485
4818748894
4818756645
4818762261
4818768974
4818774773
4818779961
4818786797
4818792412
4818797783
4818804985
4818810112
4818814629
4818822685
4818828178
4818833733
4818839287
4818844597
4818851433
4818856743
4818862968
4818869804
4818875175
4818881767
4818887321
4818892814
4818898735
4818905266
4818910026
4818914970
4818923515
4818928764
4818934013
4818939995
4818945915
4818951896
4818958671
4818963859
4818970268
4818975395
4818982353
4818987419
4818992363
4818999443
4819005302
4819011772
4819017875
4819024345
4819029472
4819036735
4819042289
4819048759
4819054008
4819061210
4819067985
4819073600
4819078727
4819085075
4819091117
4819096305
4819103507
4819108756
4819113883
4819120170
4819125602
4819132316
4819137626
4819143607
4819148063
4819155204
4819160392
4819166679
4819173148
4819177604
4819183402
4819188529
4819194999
4819201530
4819207267
4819213614
4819218558
4819224967
4819231864
4819237479
4819244620
4819250296
4819256949
4819262015
4819269339
4819274283
4819280631
4819286551
4819293082
4819299002
4819303824
4819311270
4819317252
4819322379
4819328726
4819333304
4819340079
4819344596
4819350638
4819357535
4819363028
4819368765
4819374259
4819380362
4819385672
4819392386
4819396719
4819404166
4819409903
4819416312
4819421744
4819426749
4819434622
4819439810
4819445853
4819452078
4819458060
4819463614
4819469534
4819478628
4819485464
4819493277
4819500357
4819504629
4819512625
4819519766
4819524832
4819531729
4819535818
4819542105
4819549185
4819553396
4819560537
4819564810
4819571341
4819576345
4819583242
4819589834
4819595327
4819600210
4819605825
4819611685
4819616690
4819622488
4819627920
4819633718
4819639517
4819645315
4819650137
4819654959
4819662649
4819669851
4819674246
4819680532
4819686208
4819692251
4819697988
4819703664
4819710683
4819715017
4819721304
4819727346
4819733205
4819738515
4819748098
4819753652
4819759511
4819766103
4819770864
4819778615
4819783987
4819792165
4819798269
4819802907
4819809255
4819814565
4819820058
4819826223
4819832753
4819838613
4819843068
4819849721
4819855153
4819860402
4819866567
4819873525
4819879079
4819884816
4819890309
4819894826
4819901967
4819907033
4819914662
4819920034
4819925832
4819931691
4819937184
4819942494
4819948659
4819954213
4819961171
4819968556
4819978078
4819984975
4819994374
4819999013
4820008656
4820014577
4820018727
4820025380
4820029897
4820036061
4820041737
4820048390
4820055592
4820061452
4820066762
4820072499
4820077809
4820082875
4820091237
4820097523
4820102101
4820107960
4820113148
4820118763
4820125844
4820131459
4820137562
4820143483
4820148854
4820153370
4820159779
4820166432
4820172474
4820178028
4820183949
4820189137
4820194813
4820200672
4820206288
4820211170
4820218128
4820224110
4820229298
4820234852
4820239918
4820244374
4820251759
4820258106
4820263966
4820270619
4820276478
4820282032
4820286427
4820294666
4820301197
4820305775
4820312244
4820317799
4820323414
4820330311
4820336842
4820342701
4820348194
4820353870
4820359852
4820364551
4820369495
4820378651
4820385547
4820390003
4820396656
4820402820
4820408375
4820412952
4820419117
4820423633
4820432911
4820439136
4820443409
4820449939
4820455310
4820462329
4820469776
4820475452
4820481189
4820487232
4820493274
4820497547
4820504566
4820510364
4820516162
4820522022
4820528125
4820533679
4820538440
4820544483
4820551807
4820557605
4820563037
4820568958
4820573596
4820580310
4820585742
4820592273
4820597949
4820603564
4820608875
4820614917
4820619556
4820627917
4820633289
4820638965
4820645679
4820651294
4820656421
4820661120
4820667102
4820674365
4820680041
4820685901
4820691577
4820696338
4820702136
4820707324
4820714709
4820720080
4820725757
4820731494
4820736743
4820740893
4820749133
4820755053
4820760669
4820766772
4820771350
4820777758
4820783557
4820790210
4820793200
4820802294
4820807788
4820813464
4820819201
4820828662
4820838976
4820847277
4820855517
4820863574
4820869555
4820879443
4820887988
4820895068
4820903857
4820914111
4820922839
4820929919
4820937426
4820945177
4820953051
4820961108
4820969225
4820978564
4820989001
4820997301
4821005724
4821013842
4821025316
4821035143
4821042711
4821052599
4821061449
4821070055
4821079943
4821087328
4821094957
4821101915
4821110643
4821118456
4821126024
4821133592
4821141466
4821149400
4821154772
4821162584
4821172167
4821179613
4821186754
4821194444
4821201524
4821211290
4821217393
4821226244
4821234972
4821241075
4821250291
4821256517
4821263414
4821271776
4821280137
4821288438
4821295701
4821302232
4821310045
4821317430
4821325181
4821331590
4821339769
4821347764
4821356004
4821363816
4821370042
4821379747
4821386216
4821395738
4821402268
4821409165
4821417588
4821424485
4821431260
4821440537
4821447007
4821457505
4821467698
4821477097
4821485398
4821492295
4821503526
4821513230
4821522935
4821532395
4821537400
4821548997
4821553757
4821564988
4821573289
4821581162
4821589341
4821595078
4821604294
4821610154
4821620652
4821629014
4821639145
4821646103
4821653733
4821661484
4821668930
4821676438
4821683945
4821692124
4821699875
4821708359
4821716660
4821724961
4821731735
4821738999
4821746628
4821754929
4821763046
4821770798
4821780014
4821787643
4821794235
4821803757
4821808334
4821817673
4821824020
4821833542
4821838180
4821848740
4821856613
4821864487
4821872482
4821880417
4821887802
4821895492
4821904831
4821912765
4821920334
4821926681
4821934799
4821943100
4821952621
4821961593
4821968734
4821977218
4821984176
4821992416
4822001083
4822008224
4822016342
4822022811
4822032638
4822041061
4822049178
4822053512
4822064559
4822073226
4822080795
4822088485
4822096359
4822103622
4822109786
4822114608
4822118209
4822124068
4822127792
4822132735
4822136886
4822142196
4822144820
4822152328
4822158675
4822162154
4822166549
4822170455
4822177352
4822182174
4822188338
4822192855
4822199264
4822202254
4822209639
4822214888
4822220931
4822227401
4822233565
4822237655
4822242965
4822248153
4822253035
4822258101
4822262252
4822267623
4822272628
4822277632
4822281050
4822286299
4822290755
4822295272
4822299117
4822304671
4822307234
4822314498
4822318587
4822323958
4822328414
4822333846
4822339095
4822342757
4822348311
4822353316
4822357161
4822361800
4822366011
4822372847
4822377791
4822382857
4822386397
4822392378
4822398055
4822404829
4822409529
4822413252
4822418623
4822423628
4822430342
4822436018
4822442305
4822448714
4822454329
4822459761
4822465376
4822471663
4822477522
4822482954
4822487776
4822492232
4822495527
4822503096
4822506697
4822514692
4822520063
4822526350
4822531294
4822537703
4822540937
4822549604
4822555769
4822559675
4822563154
4822570906
4822576155
4822582136
4822587629
4822591780
4822595564
4822604780
4822611311
4822620344
4822625288
4822629560
4822636213
4822640974
4822647138
4822650678
4822658308
4822665449
4822672834
4822679304
4822684614
4822691206
4822697553
4822703168
4822711408
4822719404
4822724653
4822729291
4822735578
4822741010
4822746870
4822751081
4822756452
4822760175
4822767133
4822770673
4822777570
4822782270
4822788251
4822793134
4822797834
4822801862
4822807416
4822812848
4822816999
4822820234
4822826825
4822830060
4822837079
4822842694
4822847882
4822851117
4822857343
4822860883
4822867231
4822870649
4822878034
4822881574
4822891461
4822895246
4822903363
4822907086
4822914533
4822918378
4822925641
4822932172
4822937299
4822940656
4822947431
4822950299
4822957257
4822963605
4822969586
4822975201
4822980145
4822986798
4822991803
4822998029
4823004437
4823010724
4823015424
4823021527
4823025067
4823032880
4823036114
4823042828
4823047772
4823053448
4823057171
4823063641
4823067853
4823073163
4823079266
4823087445
4823091717
4823098919
4823104901
4823111310
4823116559
4823122723
4823127606
4823133282
4823139447
4823144391
4823150311
4823155011
4823160138
4823164288
4823170513
4823177716
4823182293
4823186077
4823194439
4823200970
4823206280
4823210003
4823220928
4823228131
4823234112
4823239239
4823246319
4823252300
4823257244
4823264202
4823271648
4823276348
4823282208
4823287640
4823293804
4823299969
4823304485
4823310528
4823317669
4823322796
4823326641
4823332439
4823338299
4823343120
4823349590
4823354656
4823360943
4823367779
4823373577
4823378765
4823383220
4823389995
4823394451
4823397869
4823408306
4823413006
4823418682
4823422466
4823429241
4823434185
4823440593
4823445964
4823451641
4823458232
4823463420
4823467815
4823474224
4823478679
4823485271
4823489910
4823495647
4823501934
4823508464
4823513957
4823518291
4823524089
4823530742
4823535320
4823540264
4823546123
4823551677
4823559062
4823564616
4823569988
4823576396
4823581523
4823585735
4823592571
4823597209
4823603557
4823609843
4823616008
4823620402
4823626201
4823632243
4823634135
4823644450
4823648112
4823656169
4823659709
4823666850
4823670573
4823677897
4823682963
4823690715
4823696025
4823700419
4823705607
4823712870
4823717570
4823722636
4823727214
4823734904
4823740886
4823748210
4823751384
4823758403
4823764384
4823769267
4823774211
4823782450
4823789164
4823796122
4823802104
4823809428
4823814738
4823821330
4823827555
4823833170
4823842692
4823847941
4823856242
4823861491
4823866801
4823871623
4823877665
4823882914
4823890238
4823895060
4823900492
4823905131
4823911478
4823915995
4823922892
4823929240
4823935343
4823940470
4823947001
4823951456
4823954874
4823963236
4823966715
4823975687
4823981486
4823986185
4823991739
4823997538
4824001078
4824009012
4824013834
4824020548
4824025675
4824031595
4824037760
4824042215
4824046976
4824053324
4824059000
4824063761
4824071024
4824077005
4824082804
4824088724
4824094461
4824099283
4824104959
4824108499
4824116434
4824123026
4824127725
4824133280
4824139078
4824144693
4824150186
4824154764
4824160989
4824166116
4824173257
4824179483
4824183450
4824191141
4824197183
4824202921
4824209085
4824215555
4824220560
4824226358
4824232767
4824238138
4824243936
4824249124
4824254251
4824260782
4824267435
4824270791
4824278787
4824283731
4824290384
4824295572
4824301736
4824307596
4824313699
4824319741
4824324014
4824330484
4824336160
4824340615
4824347696
4824354409
4824360635
4824366311
4824371804
4824376199
4824383218
4824388162
4824394448
4824403848
4824411782
4824420144
4824429238
4824434976
4824441506
4824447488
4824454629
4824460183
4824466409
4824471597
4824477883
4824482461
4824487710
4824492348
4824498696
4824506081
4824510842
4824515664
4824521523
4824527993
4824532937
4824539223
4824543740
4824550576
4824555398
4824561196
4824570473
4824575234
4824581460
4824589333
4824595315
4824602150
4824606850
4824612404
4824618691
4824623391
4824628945
4824634926
4824640786
4824646401
4824653115
4824659829
4824666359
4824670998
4824674843
4824683388
4824688820
4824694313
4824699562
4824705849
4824710976
4824716347
4824722450
4824727028
4824731606
4824737709
4824745949
4824752724
4824756935
4824763222
4824768959
4824774208
4824780312
4824782204
4824791786
4824798195
4824802834
4824807655
4824813881
4824819252
4824825600
4824830360
4824835365
4824842811
4824848366
4824853187
4824860573
4824865150
4824870704
4824876686
4824882057
4824888283
4824894691
4824900367
4824904762
4824910804
4824916237
4824922035
4824928505
4824933876
4824941383
4824946266
4824949745
4824958046
4824962928
4824969032
4824974281
4824980628
4824986305
4824995643
4825000892
4825005653
4825012123
4825016517
4825022926
4825029518
4825035194
4825045631
4825051490
4825056617
4825063148
4825067725
4825071937
4825080299
4825086402
4825092200
4825096839
4825102821
4825109412
4825113929
4825120277
4825127296
4825131202
4825138953
4825142493
4825148841
4825154273
4825160438
4825165198
4825171119
4825177161
4825183875
4825188575
4825195472
4825199927
4825205665
4825211951
4825217688
4825223853
4825228309
4825233924
4825237830
4825246802
4825253150
4825257422
4825263526
4825268470
4825274268
4825281226
4825286475
4825291785
4825296668
4825303382
4825308875
4825314978
4825320593
4825326697
4825331824
4825337317
4825343543
4825347937
4825352820
4825359351
4825364722
4825371680
4825375159
4825382422
4825387366
4825392981
4825395911
4825404211
4825410681
4825416418
4825420996
4825426123
4825432043
4825436621
4825442297
4825448889
4825454809
4825460730
4825465307
4825471411
4825476660
4825483801
4825493322
4825500403
4825507910
4825513464
4825519445
4825524328
4825529699
4825536108
4825542944
4825548559
4825554296
4825560461
4825565222
4825571813
4825577490
4825583105
4825590063
4825595190
4825602941
4825610021
4825616369
4825622534
4825629064
4825633337
4825642553
4825649633
4825654455
4825660009
4825665990
4825672094
4825676733
4825681615
4825688207
4825695043
4825699377
4825705114
4825710485
4825716955
4825722448
4825726903
4825730260
4825739477
4825746190
4825751256
4825754491
4825762731
4825767858
4825773778
4825778539
4825785375
4825790502
4825796666
4825802160
4825808690
4825813024
4825818944
4825823522
4825830175
4825837743
4825842992
4825848729
4825854161
4825860204
4825862096
4825871190
4825875096
4825883397
4825888524
4825895543
4825899022
4825905248
4825910802
4825917577
4825922521
4825927525
4825935033
4825940892
4825945775
4825951878
4825956334
4825961949
4825968419
4825973546
4825980565
4825986485
4825991368
4825998204
4826002476
4826008397
4826012364
4826015416
4826024571
4826031590
4826037266
4826042699
4826047581
4826050755
4826059605
4826066014
4826074315
4826080967
4826087071
4826093174
4826100621
4826105870
4826113316
4826120335
4826127415
4826137974
4826144444
4826151829
4826159153
4826164524
4826174046
4826180638
4826187962
4826198582
4826210362
4826218113
4826226658
4826234837
4826241490
4826253208
4826262730
4826267735
4826281834
4826291599
4826299412
4826303196
4826317661
4826323032
4826332126
4826338779
4826344517
4826352939
4826359348
4826366123
4826368381
4826378574
4826382419
4826390049
4826393650
4826400669
4826405979
4826413364
4826418918
4826425815
4826430637
4826435703
4826440158
4826448032
4826453769
4826459995
4826464695
4826471286
4826475681
4826481418
4826487705
4826492710
4826499301
4826504123
4826510654
4826514133
4826521213
4826526767
4826532749
4826538059
4826543735
4826548679
4826556430
4826561313
4826566989
4826572116
4826577975
4826582187
4826588901
4826594577
4826601169
4826607089
4826612643
4826618503
4826623813
4826629611
4826633212
4826641513
4826648410
4826654208
4826660373
4826664706
4826670199
4826675448
4826680087
4826686618
4826694919
4826700229
4826707614
4826713839
4826721164
4826727938
4826734103
4826745028
4826754428
4826761019
4826767977
4826776156
4826781283
4826792147
4826798922
4826806796
4826814242
4826823153
4826830355
4826835970
4826845919
4826854525
4826860934
4826868380
4826873934
4826885226
4826893404
4826903902
4826911715
4826918062
4826925082
4826930819
4826942904
4826951021
4826957491
4826965120
4826977877
4826984469
4826987276
4827000521
4827008089
4827016634
4827025911
4827036226
4827043856
4827051485
4827057039
4827061739
4827067354
4827074434
4827079317
4827084444
4827091341
4827096956
4827103426
4827109102
4827114961
4827119722
4827125520
4827129305
4827137850
4827141512
4827149507
4827155183
4827159517
4827164949
4827172701
4827176302
4827183443
4827189302
4827195650
4827201143
4827207063
4827213350
4827218904
4827223604
4827231050
4827236482
4827244050
4827248689
4827254426
4827258821
4827262117
4827270967
4827274263
4827283723
4827287690
4827295686
4827299104
4827305635
4827310579
4827317414
4827322480
4827327363
4827333894
4827340120
4827344941
4827350251
4827357087
4827361360
4827367219
4827372407
4827380158
4827386262
4827391145
4827397126
4827402802
4827410127
4827415009
4827420258
4827429048
4827438081
4827444367
4827451020
4827457307
4827466706
4827472688
4827477998
4827490876
4827497224
4827508149
4827513215
4827522126
4827529572
4827537812
4827544343
4827554230
4827563080
4827570344
4827578461
4827584626
4827595368
4827602997
4827606354
4827621613
4827627411
4827636872
4827644684
4827657318
4827662628
4827673188
4827682465
4827688202
4827699616
4827707611
4827714874
4827723908
4827734467
4827744659
4827751862
4827758942
4827765961
4827772003
4827778351
4827783661
4827790253
4827795929
4827800751
4827807098
4827813385
4827817718
4827821136
4827829742
4827836456
4827840668
4827846283
4827852386
4827856537
4827863373
4827868316
4827874176
4827879547
4827885223
4827892059
4827897003
4827901397
4827907989
4827912811
4827916168
4827926971
4827933136
4827938751
4827943939
4827949798
4827953399
4827960357
4827966522
4827972564
4827977691
4827984039
4827988922
4827994110
4828001068
4828005462
4828011749
4828016876
4828023956
4828029754
4828034637
4828041106
4828045440
4828051910
4828057464
4828062530
4828069671
4828075957
4828080291
4828086150
4828092132
4828097625
4828102691
4828108733
4828115996
4828123076
4828129424
4828136382
4828143767
4828150664
4828157439
4828165252
4828173613
4828184295
4828191497
4828205779
4828213103
4828220305
4828229949
4828233062
4828246123
4828251921
4828261626
4828269133
4828276885
4828286101
4828292510
4828301177
4828308318
4828311553
4828325957
4828332121
4828342314
4828350249
4828357024
4828364104
4828369658
4828381865
4828389372
4828400175
4828409331
4828418974
4828427763
4828433989
4828446135
4828454924
4828463225
4828470549
4828480192
4828489836
4828499968
4828506010
4828512907
4828519804
4828526823
4828532377
4828539457
4828545927
4828553556
4828557524
4828564848
4828570646
4828576872
4828580595
4828587553
4828591093
4828597685
4828603239
4828609525
4828614713
4828622160
4828627042
4828632658
4828637113
4828643888
4828651518
4828656278
4828662504
4828668058
4828673002
4828678800
4828684537
4828690275
4828695585
4828702482
4828707365
4828710660
4828717557
4828722440
4828729215
4828734586
4828741849
4828747953
4828755216
4828760648
4828766691
4828771573
4828778348
4828782621
4828789029
4828793546
4828797940
4828805265
4828808866
4828815763
4828822049
4828826444
4828831571
4828839261
4828844754
4828850370
4828855008
4828862210
4828867337
4828872830
4828879117
4828884854
4828892667
4828897550
4828903348
4828908353
4828914334
4828918057
4828925443
4828930875
4828937650
4828944180
4828952908
4828959195
4828964993
4828970914
4828975552
4828986050
4828991055
4829000577
4829008816
4829018094
4829025235
4829030789
4829039944
4829047024
4829050137
4829063748
4829069119
4829078091
4829084866
4829095303
4829100491
4829107693
4829119778
4829128689
4829137234
4829145779
4829154690
4829162258
4829167874
4829177944
4829182705
4829192105
4829198330
4829206814
4829212612
4829221218
4829229641
4829236355
4829241055
4829244961
4829252468
4829258877
4829263576
4829268520
4829275478
4829281216
4829286892
4829293484
4829301052
4829306118
4829312343
4829316799
4829322292
4829329494
4829335048
4829341213
4829346645
4829352749
4829357998
4829363918
4829368618
4829375637
4829382290
4829386989
4829392299
4829398769
4829403652
4829408962
4829415493
4829421596
4829428737
4829433864
4829438625
4829444667
4829450893
4829455898
4829461574
4829467189
4829473598
4829478603
4829484340
4829489284
4829495509
4829501125
4829505519
4829510341
4829517238
4829523952
4829528896
4829534023
4829539333
4829545497
4829553737
4829557582
4829565150
4829571132
4829573146
4829582729
4829587794
4829593227
4829596950
4829605983
4829609645
4829618861
4829623012
4829629420
4829634120
4829639613
4829645228
4829650538
4829654811
4829663051
4829668727
4829674403
4829679530
4829684657
4829688929
4829694606
4829700343
4829705958
4829714198
4829720057
4829725062
4829733302
4829738124
4829746607
4829752955
4829760646
4829768275
4829778590
4829786341
4829793299
4829799952
4829808192
4829812403
4829821742
4829830103
4829835474
4829841334
4829846644
4829852076
4829859278
4829864100
4829869593
4829876185
4829882716
4829888270
4829893153
4829897242
4829905543
4829909266
4829916590
4829923060
4829928492
4829932947
4829938563
4829945765
4829951075
4829955713
4829959131
4829968042
4829971582
4829978540
4829982081
4829991053
4829994654
4830001490
4830007593
4830014002
4830019129
4830026026
4830032251
4830037989
4830043238
4830048548
4830055506
4830060999
4830066980
4830070459
4830079737
4830083582
4830089441
4830095850
4830101282
4830105859
4830112085
4830131372
4830137415
4830142114
4830148584
4830154199
4830159692
4830167200
4830172510
4830177087
4830183374
4830187768
4830191736
4830200586
4830204553
4830212121
4830215967
4830223169
4830228113
4830233972
4830240136
4830244897
4830249536
4830256616
4830262170
4830269616
4830274255
4830279565
4830284875
4830288598
4830297937
4830302514
4830309411
4830316247
4830321862
4830325524
4830333642
4830337304
4830342980
4830347802
4830358361
4830367272
4830372216
4830380029
4830385644
4830392663
4830399560
4830405969
4830415124
4830421594
4830425500
4830434960
4830439172
4830446374
4830452111
4830458337
4830464501
4830470116
4830475854
4830480309
4830487450
4830492150
4830499474
4830504540
4830513146
4830517968
4830524926
4830530846
4830536461
4830543053
4830549401
4830554345
4830560387
4830566674
4830573510
4830578270
4830585411
4830590233
4830598229
4830605675
4830613732
4830622399
4830631798
4830639916
4830648400
4830654503
4830663658
4830672569
4830681420
4830687401
4830698021
4830705406
4830713280
4830718407
4830724999
4830730125
4830735374
4830741417
4830745323
4830750389
4830754723
4830762718
4830769676
4830774742
4830779076
4830782432
4830788231
4830792015
4830797447
4830801109
4830806297
4830810509
4830815819
4830819664
4830825584
4830829796
4830835228
4830839622
4830845176
4830849327
4830856041
4830860618
4830865684
4830869896
4830876121
4830880455
4830886924
4830889793
4830896141
4830900779
4830905357
4830913902
4830919822
4830926719
4830931480
4830937156
4830942649
4830947288
4830953086
4830960960
4830969627
4830974937
4830982993
4830988853
4830995872
4831001121
4831003745
4831010642
4831015952
4831021018
4831025901
4831030662
4831035178
4831040000
4831046409
4831050437
4831056235
4831061179
4831066611
4831071921
4831076499
4831081260
4831087241
4831092124
4831095969
4831101890
4831105979
4831112937
4831117148
4831123618
4831129600
4831135215
4831139976
4831145286
4831149924
4831155845
4831160361
4831166648
4831171531
4831177085
4831182273
4831187949
4831193015
4831200583
4831207419
4831213156
4831217856
4831224021
4831228537
4831234885
4831239463
4831245139
4831250998
4831256308
4831263144
4831268942
4831273642
4831279807
4831286704
4831292807
4831298911
4831303488
4831309592
4831314352
4831320334
4831323874
4831332053
4831335898
4831344260
4831347983
4831355673
4831360007
4831368063
4831372031
4831380637
4831384360
4831391318
4831396384
4831403464
4831409018
4831414999
4831418722
4831426047
4831431906
4831436789
4831443991
4831449484
4831456198
4831460226
4831467672
4831471579
4831479757
4831483114
4831493551
4831499411
4831506857
4831512106
4831519369
4831524618
4831531088
4831537252
4831545309
4831551779
4831557699
4831564779
4831570699
4831576681
4831581808
4831587301
4831593221
4831597555
4831604818
4831610861
4831617696
4831623495
4831630575
4831635824
4831641134
4831646261
4831652364
4831657186
4831663595
4831667013
4831674520
4831677999
4831684591
4831690145
4831696310
4831699911
4831707601
4831714254
4831720662
4831727132
4831733236
4831738363
4831744405
4831749166
4831755147
4831761617
4831765889
4831772054
4831777303
4831784993
4831790364
4831796224
4831800985
4831808919
4831813863
4831819600
4831824727
4831830770
4831836019
4831841878
4831847005
4831853475
4831858296
4831864034
4831869161
4831876302
4831880208
4831886800
4831892171
4831899434
4831903462
4831911275
4831917989
4831923116
4831929158
4831937337
4831941609
4831948994
4831953084
4831962300
4831968892
4831974812
4831981465
4831986348
4831992146
4831998616
4832004597
4832010945
4832016987
4832021748
4832027608
4832034443
4832041157
4832046711
4832052327
4832061604
4832068440
