4929466140
4929470534
4929475417
4929478896
4929482436
4929485854
4929489272
4929492507
4929496230
4929499831
4929503493
4929506911
4929511489
4929516189
4929519790
4929523635
4929529494
4929534194
4929539321
4929544265
4929549758
4929555312
4929561599
4929565505
4929571608
4929577956
4929584609
4929590468
4929594985
4929602919
4929609938
4929616408
4929623549
4929630995
4929640456
4929649794
4929657179
4929664870
4929671889
4929681105
4929686720
4929695692
4929702101
4929712721
4929717665
4929729140
4929739210
4929746657
4929755141
4929763746
4929771132
4929777296
4929786635
4929793409
4929804518
4929811903
4929819349
4929830641
4929837294
4929849562
4929857801
4929864820
4929872511
4929879591
4929888380
4929896253
4929903089
4929910719
4929918836
4929924757
4929933851
4929941847
4929948683
4929955152
4929962049
4929970045
4929979444
4929987196
4929993421
4930000806
4930010206
4930016920
4930023572
4930032606
4930039381
4930047864
4930052381
4930062391
4930069715
4930076978
4930084119
4930091504
4930099134
4930106946
4930114576
4930122144
4930129407
4930135450
4930144178
4930152600
4930159986
4930166944
4930176404
4930184095
4930191724
4930199231
4930206861
4930214612
4930222547
4930231030
4930239148
4930246472
4930253125
4930262158
4930268811
4930278516
4930286328
4930293958
4930301343
4930309521
4930316418
4930324841
4930334119
4930339123
4930350598
4930357983
4930365613
4930373242
4930381726
4930392163
4930399060
4930407849
4930414502
4930423291
4930430859
4930438794
4930449597
4930458996
4930466015
4930474316
4930481823
4930488110
4930495922
4930502148
4930513012
4930518017
4930530041
4930534435
4930544323
4930548718
4930558239
4930567211
4930575024
4930582653
4930589855
4930597607
4930605358
4930611950
4930619701
4930627819
4930636669
4930645763
4930653942
4930661815
4930669750
4930678234
4930687267
4930694957
4930704052
4930711376
4930720348
4930726940
4930735729
4930742870
4930751720
4930758800
4930767772
4930776622
4930783458
4930791454
4930800426
4930807140
4930815990
4930823131
4930832469
4930840404
4930849559
4930856456
4930865306
4930872813
4930881419
4930889964
4930896983
4930906627
4930914012
4930924083
4930931346
4930941234
4930945994
4930956553
4930963695
4930974254
4930983409
4930991588
4930996470
4931006907
4931011668
4931022471
4931027781
4931039134
4931043895
4931054454
4931062266
4931070445
4931078990
4931087168
4931094004
4931101512
4931109690
4931117625
4931125620
4931134837
4931141123
4931150401
4931158579
4931168101
4931176341
4931182322
4931190318
4931199168
4931207590
4931214487
4931225962
4931231394
4931242319
4931249888
4931259287
4931266367
4931277170
4931282114
4931292856
4931299021
4931309214
4931317698
4931325998
4931333200
4931340464
4931348398
4931355722
4931362986
4931370798
4931377878
4931385080
4931392649
4931401316
4931409067
4931417368
4931424875
4931433237
4931440500
4931447580
4931457407
4931465158
4931475656
4931480173
4931490610
4931498422
4931504404
4931512704
4931520761
4931529977
4931537485
4931544748
4931551401
4931558420
4931566110
4931574228
4931580697
4931590097
4931597848
4931605172
4931612558
4931620065
4931628061
4931635202
4931642465
4931649667
4931657479
4931665292
4931672311
4931680062
4931688607
4931696725
4931705636
4931713510
4931721139
4931728219
4931736154
4931745004
4931753304
4931762643
4931769967
4931777535
4931786080
4931795785
4931801888
4931811654
4931819161
4931827462
4931831856
4931841134
4931849251
4931857613
4931865243
4931873543
4931880440
4931887398
4931895760
4931902596
4931911873
4931918099
4931927498
4931936470
4931943550
4931950936
4931957894
4931965584
4931974312
4931982186
4931991280
4932000191
4932004524
4932013558
4932017220
4932025520
4932032601
4932039620
4932046883
4932053597
4932058907
4932065620
4932071968
4932078682
4932084297
4932090095
4932097847
4932102913
4932110298
4932115486
4932122688
4932126472
4932133980
4932141365
4932147590
4932153877
4932159981
4932166755
4932171455
4932178047
4932184334
4932191047
4932197761
4932204780
4932210395
4932217109
4932222480
4932230171
4932236335
4932244148
4932252021
4932257759
4932263984
4932269721
4932275520
4932281990
4932287788
4932294074
4932300849
4932305732
4932311164
4932315986
4932322822
4932327705
4932335395
4932340827
4932346565
4932352729
4932358588
4932365669
4932370124
4932377509
4932382270
4932389777
4932394660
4932401435
4932404792
4932412238
4932418586
4932424140
4932431281
4932437140
4932443305
4932449103
4932455024
4932461554
4932468085
4932473273
4932479133
4932484015
4932492011
4932495551
4932502997
4932512763
4932519294
4932525397
4932528998
4932537055
4932543402
4932547858
4932555182
4932561957
4932568366
4932573554
4932581732
4932585272
4932593146
4932600287
4932605902
4932612189
4932617255
4932624335
4932630621
4932636481
4932641547
4932648444
4932653510
4932661322
4932664984
4932672125
4932675482
4932684821
4932691473
4932695685
4932702460
4932708563
4932713568
4932719855
4932726141
4932731695
4932740545
4932745428
4932752447
4932757452
4932763373
4932769659
4932775824
4932781622
4932786627
4932794745
4932798101
4932805304
4932812079
4932817877
4932824163
4932829901
4932835577
4932841680
4932846991
4932853155
4932861761
4932867071
4932873052
4932878790
4932884466
4932890447
4932897100
4932902227
4932907903
4932913946
4932917242
4932925482
4932930608
4932937811
4932942938
4932948736
4932955206
4932961919
4932968023
4932971502
4932978948
4932984869
4932989751
4932997015
4933001592
4933008367
4933011724
4933018987
4933025457
4933031133
4933038457
4933043401
4933049810
4933056402
4933066533
4933072515
4933077215
4933082464
4933090276
4933095586
4933102727
4933109075
4933114873
4933123174
4933127752
4933132695
4933138860
4933142888
4933153081
4933159917
4933166020
4933171208
4933178960
4933183171
4933190129
4933196965
4933203069
4933208379
4933215520
4933221684
4933226506
4933233464
4933239690
4933245061
4933251347
4933257329
4933262944
4933267583
4933274236
4933281255
4933286687
4933292119
4933297185
4933303654
4933309941
4933316411
4933322880
4933328984
4933334965
4933341252
4933345769
4933352971
4933358037
4933365422
4933371342
4933375371
4933381474
4933386784
4933394230
4933400578
4933404911
4933411015
4933416874
4933422673
4933429020
4933432988
4933439579
4933446781
4933450932
4933457707
4933464726
4933469914
4933475529
4933482060
4933487370
4933493962
4933498173
4933505009
4933509953
4933516300
4933522099
4933526676
4933532780
4933540470
4933546635
4933554020
4933556950
4933564701
4933570927
4933576664
4933583195
4933592045
4933597904
4933605167
4933610416
4933617496
4933621403
4933628971
4933636478
4933642826
4933648502
4933654789
4933659488
4933666569
4933672245
4933678043
4933682987
4933689396
4933692508
4933700687
4933707218
4933711612
4933718692
4933724125
4933728641
4933735294
4933740177
4933747440
4933752689
4933758182
4933763553
4933768436
4933774478
4933780582
4933786380
4933791690
4933797916
4933804447
4933810428
4933815616
4933822147
4933827701
4933833255
4933839542
4933844363
4933850223
4933855594
4933863589
4933868961
4933874698
4933879825
4933886600
4933891910
4933897403
4933902591
4933909915
4933913760
4933921268
4933928103
4933934939
4933941653
4933948855
4933953616
4933959903
4933964175
4933971805
4933978274
4933983340
4933987735
4933994326
4933999453
4934005435
4934011477
4934017581
4934022647
4934028750
4934035586
4934040164
4934048159
4934053775
4934059939
4934065127
4934070559
4934076602
4934082217
4934090090
4934095156
4934101626
4934108401
4934113955
4934120486
4934125552
4934131838
4934137515
4934145815
4934151125
4934158144
4934164248
4934169497
4934174685
4934179079
4934186648
4934191775
4934197756
4934202578
4934210696
4934215456
4934222536
4934229128
4934234987
4934240420
4934245058
4934252382
4934257204
4934263430
4934269899
4934275087
4934281984
4934288820
4934293520
4934299379
4934306704
4934311342
4934318117
4934323000
4934329714
4934335268
4934340883
4934347414
4934352663
4934358522
4934365358
4934368410
4934375612
4934382265
4934386476
4934394594
4934398989
4934404299
4934410768
4934416322
4934423830
4934429445
4934435060
4934440248
4934445497
4934452821
4934459779
4934465089
4934471193
4934477846
4934483888
4934489381
4934496278
4934502626
4934505861
4934512636
4934519105
4934523561
4934530275
4934537172
4934546022
4934551942
4934558412
4934564271
4934570070
4934575807
4934584047
4934590944
4934595582
4934602601
4934608522
4934615113
4934620301
4934627137
4934632630
4934638734
4934645326
4934650575
4934659913
4934666871
4934672425
4934677613
4934684510
4934690614
4934696534
4934702332
4934707826
4934713624
4934718751
4934726014
4934732606
4934737367
4934745179
4934750611
4934756165
4934763062
4934768800
4934774476
4934781739
4934787293
4934793397
4934799134
4934805054
4934810975
4934815735
4934823548
4934829102
4934833924
4934839966
4934847107
4934853943
4934858582
4934863343
4934871277
4934876160
4934882386
4934888611
4934894226
4934899170
4934905701
4934913147
4934917908
4934923401
4934930298
4934937561
4934942749
4934948426
4934954956
4934958679
4934966309
4934973938
4934979370
4934985230
4934991211
4934996948
4935002319
4935007874
4935014160
4935021790
4935026184
4935033630
4935040466
4935047119
4935053894
4935059998
4935065186
4935072205
4935080200
4935085083
4935091553
4935096741
4935101562
4935109497
4935115295
4935121338
4935127319
4935133240
4935142395
4935145813
4935153564
4935159851
4935163696
4935169555
4935176208
4935182739
4935187072
4935193664
4935199585
4935204834
4935209838
4935215698
4935222656
4935226623
4935234008
4935240722
4935247009
4935252258
4935258605
4935263977
4935269714
4935276367
4935281249
4935287719
4935294372
4935300170
4935305480
4935311279
4935318298
4935321105
4935328918
4935337157
4935342712
4935348937
4935355224
4935359863
4935366637
4935372314
4935377990
4935384826
4935388915
4935395873
4935402221
4935409423
4935415099
4935419189
4935427550
4935433349
4935437865
4935444640
4935450072
4935455260
4935461059
4935466491
4935473266
4935478148
4935484374
4935491149
4935495421
4935501769
4935508605
4935513915
4935519347
4935524169
4935533690
4935541075
4935547240
4935552733
4935559325
4935564208
4935574217
4935579650
4935585448
4935591307
4935598021
4935603514
4935611266
4935616393
4935623106
4935628783
4935635741
4935643980
4935649535
4935657835
4935662352
4935670103
4935676512
4935681578
4935690001
4935695006
4935700194
4935708189
4935712706
4935719786
4935729796
4935736448
4935742491
4935748839
4935754393
4935759764
4935765806
4935770750
4935777586
4935783140
4935788694
4935796324
4935799864
4935807188
4935812681
4935819029
4935825071
4935829649
4935835936
4935841734
4935846800
4935851927
4935858457
4935863706
4935870115
4935874510
4935880796
4935886472
4935892027
4935897581
4935903745
4935910520
4935915220
4935921079
4935926695
4935931883
4935936826
4935943784
4935948972
4935956235
4935959531
4935966123
4935972410
4935979795
4935984251
4935990598
4935996885
4936002500
4936007017
4936012815
4936020078
4936026304
4936032407
4936035825
4936041929
4936048398
4936054441
4936060178
4936066343
4936072507
4936080076
4936085447
4936090268
4936098020
4936104123
4936109861
4936113340
4936122068
4936128537
4936134885
4936140805
4936146665
4936151120
4936157590
4936163816
4936169309
4936175900
4936180783
4936187375
4936193784
4936199643
4936206174
4936210996
4936217832
4936222592
4936229550
4936233945
4936240903
4936244382
4936253720
4936260007
4936264767
4936272092
4936276669
4936282834
4936287411
4936293759
4936299802
4936305844
4936312436
4936317929
4936322568
4936327939
4936333371
4936339963
4936346371
4936351376
4936357663
4936362118
4936368100
4936373837
4936380246
4936388424
4936396054
4936402645
4936408261
4936414730
4936419979
4936425778
4936432064
4936437435
4936443356
4936447811
4936455807
4936459347
4936466427
4936473812
4936478634
4936485104
4936490597
4936496090
4936500424
4936508175
4936514706
4936520199
4936526180
4936533260
4936538387
4936543758
4936550350
4936555782
4936560360
4936566891
4936573238
4936577816
4936584652
4936591671
4936597713
4936603939
4936610775
4936617061
4936621822
4936628231
4936634701
4936639034
4936647030
4936653743
4936658809
4936663997
4936671505
4936678707
4936684810
4936689998
4936696407
4936701961
4936706905
4936713924
4936720333
4936725887
4936731319
4936737239
4936743221
4936747859
4936754390
4936758907
4936766963
4936772273
4936778011
4936784053
4936788020
4936794368
4936801692
4936807063
4936813838
4936818904
4936823909
4936829768
4936834895
4936842036
4936846858
4936853023
4936858455
4936865169
4936872249
4936875972
4936884456
4936890498
4936895503
4936901179
4936906856
4936913447
4936919734
4936924556
4936929866
4936935298
4936941523
4936948237
4936954219
4936960200
4936965754
4936970332
4936977351
4936983149
4936989192
4936995845
4937001460
4937008784
4937012995
4937018122
4937025508
4937032527
4937037043
4937044001
4937050166
4937056269
4937062800
4937070063
4937075556
4937082209
4937088191
4937095088
4937100581
4937107600
4937113154
4937119624
4937125605
4937131037
4937136103
4937142573
4937147883
4937156794
4937162653
4937168146
4937174738
4937180842
4937186152
4937191035
4937198420
4937205012
4937209833
4937218317
4937224543
4937231501
4937238276
4937242853
4937250300
4937257135
4937262629
4937268732
4937273249
4937280817
4937287165
4937292658
4937297235
4937303034
4937308832
4937317499
4937322687
4937327570
4937334223
4937338983
4937344721
4937352594
4937358148
4937363825
4937371637
4937377619
4937382868
4937389154
4937396234
4937400507
4937407953
4937413568
4937418939
4937425714
4937430780
4937436517
4937442499
4937447382
4937454034
4937459589
4937465143
4937470453
4937475030
4937483087
4937488458
4937493951
4937499750
4937506769
4937511590
4937517511
4937523553
4937530145
4937536249
4937541986
4937548944
4937553155
4937559930
4937565912
4937571100
4937577386
4937584161
4937589715
4937596002
4937602655
4937609307
4937614373
4937621209
4937626031
4937633966
4937641351
4937648858
4937655694
4937661614
4937668084
4937673394
4937679986
4937684869
4937693780
4937700005
4937705682
4937712518
4937717217
4937724419
4937728997
4937735040
4937740960
4937747308
4937753167
4937758782
4937765435
4937772454
4937777093
4937783868
4937787896
4937795769
4937802727
4937808587
4937814019
4937821343
4937825982
4937832390
4937838738
4937844658
4937850152
4937854546
4937863396
4937869439
4937875725
4937882134
4937887810
4937891167
4937898796
4937905999
4937912224
4937917717
4937922844
4937930352
4937936028
4937941765
4937947075
4937954216
4937960503
4937966606
4937971550
4937977287
4937984673
4937990593
4937995171
4938003044
4938008049
4938014702
4938021477
4938026726
4938032219
4938039299
4938045769
4938052422
4938059318
4938064629
4938069939
4938076164
4938082146
4938090385
4938094658
4938102165
4938108391
4938114372
4938119255
4938124382
4938133171
4938139824
4938145988
4938154045
4938158989
4938164482
4938171074
4938181450
4938187187
4938193657
4938199760
4938205558
4938210502
4938219108
4938224540
4938229545
4938235832
4938240226
4938247672
4938253776
4938258781
4938264640
4938268913
4938275749
4938281852
4938286613
4938293449
4938297416
4938305167
4938310600
4938316093
4938320976
4938328117
4938333610
4938338676
4938344230
4938350333
4938355704
4938361808
4938368095
4938373527
4938380241
4938385734
4938390983
4938396781
4938401603
4938409171
4938415275
4938421134
4938426261
4938430839
4938438834
4938443961
4938449576
4938456229
4938461356
4938467032
4938472770
4938477897
4938486014
4938490958
4938497245
4938501517
4938507987
4938513541
4938519034
4938524405
4938531058
4938535514
4938542960
4938548392
4938553092
4938561331
4938567740
4938574698
4938579520
4938586051
4938592581
4938599173
4938603812
4938611441
4938616141
4938623160
4938629446
4938635550
4938641348
4938646414
4938651907
4938657828
4938664419
4938671072
4938676077
4938682608
4938690054
4938695791
4938700613
4938706778
4938713064
4938719229
4938723990
4938732412
4938738394
4938744314
4938749624
4938755117
4938759695
4938763845
4938771414
4938777823
4938782461
4938788076
4938794790
4938799429
4938806570
4938811575
4938818472
4938824270
4938830252
4938835989
4938840322
4938846792
4938852651
4938858999
4938863088
4938868704
4938875356
4938881216
4938886343
4938892690
4938898489
4938903127
4938910207
4938914236
4938920705
4938925283
4938932973
4938937917
4938944326
4938950124
4938956655
4938961721
4938967885
4938972463
4938977712
4938982351
4938989980
4938997610
4939005178
4939010793
4939017446
4939021596
4939029226
4939035329
4939039724
4939047231
4939052663
4939058400
4939063283
4939069387
4939077016
4939081166
4939088491
4939094960
4939098561
4939105764
4939112294
4939118093
4939124623
4939131826
4939137441
4939142446
4939145803
4939153920
4939164784
4939169545
4939175832
4939181508
4939187062
4939193227
4939197865
4939206776
4939211964
4939217397
4939223683
4939228444
4939234731
4939242482
4939246754
4939253041
4939259572
4939264638
4939270009
4939275563
4939282338
4939288136
4939293812
4939300221
4939304860
4939311757
4939317006
4939323597
4939329335
4939333912
4939340321
4939347096
4939352467
4939359852
4939365040
4939370472
4939376881
4939381215
4939387562
4939393238
4939398915
4939405506
4939409596
4939417164
4939422657
4939429310
4939435658
4939441151
4939447743
4939452992
4939458546
4939463551
4939471851
4939477284
4939482288
4939488392
4939492725
4939499683
4939505299
4939512379
4939518726
4939524647
4939529530
4939535450
4939541431
4939546192
4939554554
4939560474
4939566944
4939572620
4939577686
4939585926
4939591175
4939596729
4939602772
4939608143
4939615650
4939619373
4939627613
4939634021
4939639026
4939644520
4939650074
4939657337
4939662891
4939670215
4939673755
4939680469
4939687549
4939693836
4939699024
4939703784
4939710254
4939718433
4939724475
4939730457
4939735218
4939742114
4939747363
4939753711
4939760303
4939764942
4939770923
4939777515
4939782276
4939787769
4939795276
4939801868
4939807361
4939813403
4939818652
4939823901
4939829578
4939835864
4939840503
4939847217
4939852039
4939857165
4939863025
4939868335
4939875476
4939881091
4939886645
4939892993
4939897998
4939904468
4939910754
4939916675
4939923205
4939927966
4939933703
4939939746
4939945117
4939952319
4939958056
4939962756
4939968371
4939973986
4939978747
4939986987
4939992480
4939997668
4940003039
4940009753
4940014086
4940019641
4940027270
4940032641
4940037890
4940043933
4940049853
4940056689
4940063281
4940069628
4940075060
4940080798
4940086840
4940091906
4940098071
4940104296
4940111620
4940118639
4940124072
4940129870
4940137255
4940143114
4940152087
4940157336
4940165148
4940171191
4940177233
4940182848
4940189684
4940195543
4940201281
4940207934
4940213061
4940218615
4940226183
4940230517
4940237963
4940243822
4940248705
4940255358
4940261889
4940267443
4940272570
4940278612
4940285570
4940291185
4940296068
4940302477
4940308031
4940313524
4940319689
4940324816
4940329393
4940336656
4940343004
4940348070
4940354540
4940359239
4940366014
4940371324
4940378893
4940385484
4940390428
4940395555
4940401903
4940406175
4940414293
4940419420
4940426805
4940432115
4940437852
4940443651
4940449815
4940456041
4940461656
4940467943
4940473314
4940478441
4940484971
4940490282
4940497789
4940503953
4940509324
4940515916
4940521959
4940527574
4940535020
4940541124
4940545640
4940552842
4940558702
4940564988
4940570909
4940577012
4940582505
4940587815
4940594346
4940600816
4940606553
4940613084
4940617478
4940622727
4940630357
4940633653
4940641038
4940646287
4940656907
4940662583
4940669846
4940675523
4940682664
4940688523
4940694383
4940699998
4940706590
4940712632
4940718919
4940724778
4940729234
4940735215
4940738694
4940746445
4940752793
4940758530
4940763962
4940769211
4940773850
4940779771
4940785630
4940792344
4940797898
4940803635
4940808518
4940813767
4940819687
4940824265
4940830369
4940835434
4940841782
4940845261
4940852646
4940859177
4940865403
4940871445
4940875656
4940881089
4940886399
4940891709
4940897690
4940903733
4940909104
4940915085
4940921433
4940928147
4940934067
4940939926
4940943405
4940950791
4940954148
4940961167
4940966904
4940973007
4940979050
4940985275
4940991623
4940996018
4941001389
4941007431
4941013718
4941019028
4941025742
4941031540
4941037521
4941043137
4941050095
4941056076
4941061081
4941066818
4941069931
4941077988
4941085495
4941093979
4941100326
4941105697
4941112228
4941118332
4941124191
4941132248
4941138656
4941144149
4941151840
4941158188
4941164047
4941168930
4941173874
4941181564
4941189254
4941194870
4941201034
4941207077
4941213119
4941219223
4941225875
4941230880
4941236679
4941242843
4941247665
4941254501
4941259994
4941265975
4941272201
4941277572
4941282699
4941289230
4941294357
4941299911
4941305648
4941312118
4941315719
4941324874
4941331588
4941339217
4941344527
4941350326
4941353988
4941362594
4941369308
4941377608
4941381393
4941388228
4941393783
4941400863
4941406295
4941413192
4941419356
4941422896
4941431441
4941438033
4941443160
4941450484
4941460616
4941466536
4941474593
4941480819
4941487960
4941495528
4941498885
4941508467
4941518294
4941525374
4941531478
4941537520
4941544783
4941547896
4941555647
4941562544
4941569685
4941576094
4941583846
4941590376
4941598616
4941603926
4941611494
4941616255
4941623885
4941630110
4941635786
4941641768
4941646345
4941653364
4941659041
4941665083
4941671553
4941678999
4941684309
4941689619
4941695540
4941701338
4941708174
4941713179
4941722029
4941727278
4941734541
4941739302
4941745649
4941751692
4941757429
4941763166
4941768660
4941774702
4941780500
4941785749
4941791792
4941798201
4941802961
4941809248
4941815168
4941820417
4941823530
4941831343
4941837690
4941843977
4941850446
4941855451
4941862898
4941870283
4941876569
4941882429
4941889265
4941895979
4941900922
4941907270
4941912397
4941919416
4941926069
4941931562
4941937116
4941942976
4941948591
4941954389
4941960126
4941965681
4941970075
4941977216
4941983686
4941989240
4941994489
4942000471
4942005781
4942011274
4942017438
4942024946
4942029523
4942034894
4942041425
4942048139
4942051313
4942059186
4942066144
4942071759
4942077436
4942083173
4942088056
4942094281
4942100324
4942105146
4942112165
4942116559
4942123822
4942126935
4942133954
4942140546
4942146588
4942154401
4942160687
4942165265
4942170941
4942176373
4942181195
4942188519
4942196271
4942202679
4942208356
4942214093
4942220746
4942226788
4942231610
4942237775
4942244305
4942247845
4942256756
4942262982
4942268048
4942275006
4942282452
4942288373
4942293316
4942299664
4942303937
4942310406
4942316693
4942322247
4942327618
4942333416
4942340008
4942345990
4942350750
4942356366
4942361554
4942366742
4942374005
4942379498
4942384747
4942390606
4942396160
4942402386
4942408734
4942416424
4942422772
4942430096
4942435040
4942441631
4942448040
4942454083
4942460064
4942464275
4942470745
4942475811
4942483501
4942488689
4942494549
4942499798
4942506634
4942509930
4942516888
4942520245
4942530010
4942535870
4942540874
4942547222
4942553509
4942559124
4942565044
4942571270
4942575420
4942581768
4942588360
4942594951
4942599407
4942606304
4942609722
4942616741
4942623394
4942628521
4942634990
4942641033
4942646770
4942653118
4942659099
4942665081
4942670635
4942675823
4942682231
4942688030
4942695659
4942701457
4942707317
4942712810
4942718852
4942724407
4942728374
4942734477
4942741252
4942747051
4942751994
4942758952
4942765056
4942771159
4942775615
4942781963
4942788188
4942793681
4942801311
4942808086
4942813090
4942819682
4942825908
4942831340
4942838115
4942841655
4942849895
4942856242
4942861186
4942864604
4942873027
4942878947
4942885356
4942891337
4942896403
4942902385
4942908610
4942914348
4942919475
4942924785
4942931437
4942936015
4942942363
4942946940
4942953471
4942959147
4942965190
4942968486
4942975383
4942982646
4942988200
4942993144
4942998332
4943005046
4943010966
4943016276
4943022380
4943029032
4943033915
4943038859
4943044779
4943051249
4943057536
4943062418
4943068339
4943073954
4943078959
4943085612
4943091532
4943098734
4943104166
4943109293
4943115885
4943120280
4943127482
4943132914
4943139933
4943145121
4943150858
4943156290
4943162089
4943168558
4943174662
4943179667
4943185343
4943192423
4943197245
4943202738
4943212198
4943218119
4943223917
4943230143
4943234903
4943241129
4943246622
4943254740
4943262857
4943268778
4943274149
4943281290
4943286844
4943292704
4943298441
4943306009
4943311441
4943316629
4943322916
4943329386
4943335306
4943342447
4943348978
4943355203
4943360452
4943367227
4943370828
4943377359
4943384134
4943388712
4943395059
4943400735
4943407144
4943413858
4943419168
4943424173
4943430154
4943435403
4943441751
4943448892
4943454507
4943461282
4943466470
4943472452
4943477579
4943483682
4943490030
4943495523
4943501321
4943507303
4943512368
4943518045
4943525491
4943531961
4943536782
4943542459
4943548135
4943553811
4943559671
4943566140
4943570718
4943577798
4943582437
4943588540
4943595315
4943600686
4943607034
4943612161
4943618569
4943623574
4943628396
4943636025
4943641213
4943647317
4943653909
4943657082
4943663796
4943670205
4943675759
4943682534
4943688943
4943696084
4943702676
4943707986
4943714944
4943719033
4943727395
4943733987
4943740212
4943745705
4943751687
4943758889
4943764016
4943771950
4943776528
4943782570
4943787697
4943793557
4943799660
4943807107
4943813149
4943818642
4943824379
4943828591
4943834816
4943839333
4943846962
4943852700
4943858864
4943865029
4943870888
4943876870
4943882607
4943888771
4943894692
4943900917
4943905678
4943912880
4943918129
4943925209
4943930580
4943937294
4943943764
4943948830
4943955361
4943958778
4943966591
4943973610
4943979652
4943986610
4943991127
4943997108
4944001991
4944009315
4944014870
4944021034
4944027016
4944032570
4944039345
4944044289
4944051552
4944055092
4944063881
4944070473
4944075111
4944082191
4944087562
4944093788
4944100258
4944107460
4944113197
4944119423
4944124794
4944131019
4944136818
4944141151
4944149940
4944155677
4944161903
4944167884
4944172645
4944179725
4944184608
4944192420
4944196022
4944203163
4944210548
4944216590
4944221778
4944227271
4944233802
4944245643
4944250099
4944257484
4944260902
4944269752
4944276588
4944283180
4944289222
4944295142
4944303077
4944307594
4944315406
4944321815
4944327125
4944333594
4944339820
4944345801
4944351966
4944357825
4944363868
4944371009
4944376868
4944383155
4944387427
4944395057
4944401587
4944407203
4944413123
4944418372
4944425025
4944431556
4944437659
4944443152
4944446570
4944453833
4944460303
4944466346
4944472815
4944478797
4944483618
4944490149
4944496863
4944501990
4944509253
4944514441
4944521582
4944527442
4944533057
4944538367
4944543982
4944549414
4944557227
4944563757
4944567969
4944574866
4944581397
4944587500
4944592444
4944598791
4944603613
4944611365
4944617834
4944623144
4944629004
4944634375
4944639807
4944647314
4944653418
4944659399
4944665869
4944671484
4944677832
4944682776
4944689734
4944695959
4944701025
4944708593
4944713842
4944720251
4944726965
4944733252
4944739172
4944743994
4944751928
4944755651
4944763098
4944767736
4944774694
4944781713
4944787573
4944793249
4944798376
4944805883
4944812292
4944817663
4944824743
4944830297
4944835363
4944843298
4944849096
4944855932
4944862035
4944868871
4944876684
4944882604
4944888342
4944894262
4944899450
4944905920
4944911230
4944918554
4944924291
4944928869
4944936864
4944942602
4944948278
4944951574
4944960912
4944967382
4944973180
4944980199
4944985509
4944993017
4944997838
4945003881
4945010350
4945017003
4945020360
4945027562
4945033361
4945040685
4945046483
4945052159
4945058873
4945065282
4945070897
4945075170
4945081884
4945087987
4945093297
4945100743
4945106542
4945112462
4945118077
4945121434
4945128453
4945135838
4945142186
4945148534
4945155980
4945163915
4945169835
4945177831
4945185643
4945192784
4945199010
4945204991
4945211156
4945217503
4945222874
4945229039
4945236241
4945241856
4945248021
4945254368
4945259068
4945265294
4945271275
4945278966
4945284520
4945289952
4945296483
4945301304
4945306797
4945313145
4945318699
4945326451
4945332310
4945335728
4945344212
4945347508
4945355503
4945361180
4945370274
4945375950
4945382847
4945388645
4945393711
4945401463
4945404820
4945412937
4945419712
4945426487
4945432591
4945438755
4945444615
4945450230
4945456699
4945463596
4945469883
4945475315
4945482212
4945487583
4945494297
4945499485
4945508213
4945513706
4945519321
4945525303
4945531040
4945536594
4945542515
4945548679
4945554661
4945561313
4945567295
4945572849
4945577610
4945583774
4945588474
4945594822
4945600193
4945607090
4945611972
4945619785
4945626377
4945631870
4945637546
4945643161
4945649082
4945654819
4945660556
4945666660
4945674350
4945678745
4945687046
4945693210
4945699375
4945703952
4945710727
4945716281
4945722019
4945725314
4945733737
4945739719
4945745212
4945751560
4945757114
4945762607
4945768161
4945775851
4945781100
4945788669
4945792026
4945801120
4945805942
4945811252
4945817355
4945823764
4945830783
4945836154
4945841403
4945848117
4945854404
4945859286
4945866244
4945871737
4945876437
4945884860
4945890292
4945896212
4945902133
4945912875
4945918673
4945924716
4945930270
4945938266
4945943393
4945951266
4945958102
4945962741
4945970004
4945976596
4945982699
4945989596
4945996188
4946001498
4946008334
4946012972
4946021090
4946026278
4946032137
4946041720
4946049288
4946055575
4946060580
4946068087
4946073092
4946079928
4946083163
4946093050
4946099581
4946103793
4946110689
4946116732
4946123019
4946127718
4946133700
4946138949
4946146456
4946151644
4946158053
4946164095
4946169588
4946172945
4946181673
4946187960
4946193575
4946199434
4946203890
4946209993
4946216036
4946222261
4946228731
4946234468
4946239046
4946244295
4946250643
4946256197
4946262728
4946268892
4946274629
4946278902
4946285250
4946290621
4946295870
4946302339
4946307894
4946314119
4946319734
4946325350
4946331026
4946336275
4946341646
4946349031
4946352327
4946360017
4946366670
4946371980
4946376497
4946381685
4946387239
4946394136
4946401582
4946405855
4946412324
4946416658
4946422639
4946426790
4946434541
4946440401
4946446260
4946451082
4946456209
4946462617
4946466646
4946474092
4946480195
4946488069
4946494233
4946499604
4946505342
4946510530
4946516084
4946523957
4946529512
4946534272
4946541291
4946545869
4946553437
4946559724
4946565461
4946572419
4946579316
4946584687
4946590608
4946596040
4946600617
4946608491
4946615083
4946620881
4946625459
4946633271
4946638032
4946643708
4946649445
4946654267
4946660615
4946666474
4946671662
4946677399
4946683015
4946688203
4946696076
4946701874
4946706269
4946712495
4946718049
4946723481
4946727814
4946735016
4946742280
4946747956
4946752350
4946757477
4946764130
4946768220
4946773652
4946780427
4946786835
4946791169
4946796967
4946801239
4946809418
4946815278
4946821564
4946829071
4946835114
4946841217
4946846039
4946852509
4946856842
4946862763
4946868988
4946874481
4946880280
4946885529
4946891571
4946895783
4946902558
4946908966
4946915009
4946919708
4946926117
4946930634
4946937897
4946941132
4946948578
4946955597
4946959992
4946966095
4946972076
4946977814
4946982391
4946991241
4946996551
4947002838
4947007477
4947013641
4947020294
4947026398
4947032440
4947040619
4947047394
4947055572
4947061859
4947066803
4947072845
4947079071
4947087188
4947092987
4947097564
4947105133
4947108856
4947116241
4947121551
4947129058
4947136627
4947142608
4947148223
4947154144
4947160247
4947168243
4947173797
4947179473
4947184905
4947190521
4947195465
4947200836
4947208648
4947215667
4947219817
4947225860
4947232330
4947237335
4947242156
4947249969
4947255340
4947260467
4947265472
4947274810
4947280975
4947287444
4947294097
4947299834
4947305083
4947310638
4947316314
4947321868
4947329314
4947335479
4947341155
4947346038
4947351287
4947357085
4947363128
4947370269
4947374480
4947381804
4947387420
4947393584
4947400115
4947405669
4947411284
4947416106
4947423003
4947428679
4947433867
4947439299
4947446257
4947452727
4947458831
4947464507
4947470549
4947474517
4947481352
4947486418
4947493498
4947499480
4947505217
4947509551
4947515044
4947521269
4947527373
4947534453
4947542571
4947548979
4947555998
4947560271
4947568449
4947574126
4947582549
4947591399
4947597502
4947605070
4947611052
4947616972
4947620207
4947627898
4947635527
4947641997
4947647734
4947655729
4947660795
4947666594
4947673918
4947678312
4947684721
4947689848
4947695158
4947701811
4947707304
4947712797
4947717741
4947724577
4947729521
4947735868
4947742033
4947748381
4947753569
4947758085
4947764616
4947770353
4947775785
4947782316
4947788114
4947794828
4947802397
4947807768
4947814420
4947821378
4947827909
4947834196
4947838896
4947845609
4947851103
4947857389
4947863920
4947868864
4947875944
4947879667
4947887235
4947894559
4947899137
4947905363
4947910978
4947915128
4947919767
4947926847
4947933073
4947939054
4947944669
4947949857
4947955594
4947959745
4947966764
4947973417
4947980192
4947986173
4947991544
4947997525
4948003690
4948008878
4948014859
4948021512
4948026090
4948031888
4948036832
4948044095
4948053311
4948061429
4948067166
4948073148
4948078885
4948085477
4948091702
4948098477
4948106168
4948114896
4948120450
4948126920
4948133023
4948139798
4948147305
4948154385
4948160306
4948167386
4948172269
4948179410
4948185208
4948191373
4948198636
4948204068
4948210477
4948216519
4948224454
4948232449
4948238858
4948244290
4948250455
4948256741
4948262906
4948269375
4948275723
4948280056
4948287320
4948293057
4948298428
4948305752
4948312466
4948317227
4948325528
4948331448
4948335842
4948343350
4948349514
4948353909
4948361538
4948367092
4948371731
4948380398
4948387783
4948392605
4948399624
4948405422
4948410244
4948419094
4948425625
4948430386
4948437954
4948444119
4948449551
4948456081
4948461819
4948466885
4948474392
4948478725
4948485195
4948492275
4948498867
4948505642
4948511745
4948515346
4948520595
4948525539
4948531093
4948538906
4948545315
4948555630
4948560695
4948566372
4948571804
4948576442
4948583034
4948588222
4948592434
4948596706
4948600734
4948610439
4948614894
4948619045
4948623134
4948630336
4948635646
4948640346
4948644802
4948648525
4948653408
4948658412
4948664211
4948668972
4948674343
4948678554
4948682949
4948687587
4948691005
4948695949
4948699611
4948705654
4948708400
4948714321
4948718776
4948723720
4948729274
4948734584
4948740566
4948743617
4948750453
4948755702
4948758998
4948764980
4948768581
4948772975
4948777248
4948782802
4948788966
4948793422
4948798732
4948802211
4948808681
4948814357
4948819301
4948825954
4948833644
4948838222
4948843654
4948847926
4948852443
4948857509
4948862391
4948868495
4948875575
4948878627
4948884608
4948890101
4948895045
4948899806
4948903529
4948907924
4948914393
4948919642
4948924098
4948930079
4948934535
4948938929
4948944117
4948949610
4948954127
4948959376
4948964259
4948968043
4948975428
4948980006
4948987391
4948992030
4948997035
4949001124
4949005702
4949011927
4949017359
4949022120
4949025782
4949032862
4949036768
4949042323
4949048121
4949054957
4949058070
4949063258
4949067957
4949072962
4949077662
4949082911
4949088099
4949091578
4949095789
4949099695
4949105006
4949107264
4949115687
4949120997
4949126307
4949130152
4949133997
4949138941
4949144556
4949149012
4949155726
4949160364
4949164515
4949169031
4949174036
4949179224
4949185267
4949190088
4949194910
4949200342
4949203577
4949211206
4949216822
4949222925
4949229334
4949235376
4949241541
4949248865
4949252527
4949260401
4949266321
4949270838
4949276941
4949282800
4949284571
4949296106
4949301721
4949307398
4949313013
4949317102
4949322900
4949329858
4949338586
4949342432
4949348718
4949353479
4949360193
4949365747
4949374048
4949377710
4949386255
4949394922
4949400049
4949405664
4949410303
4949417444
4949424585
4949431299
4949440210
4949445154
4949451440
4949456811
4949464319
4949470361
4949477807
4949483850
4949492395
4949497705
4949504602
4949507470
4949514611
4949521142
4949525293
4949532556
4949538354
4949545373
4949549462
4949554345
4949559167
4949564294
4949568505
4949574609
4949581323
4949586267
4949590783
4949596581
4949603600
4949609094
4949613915
4949617761
4949623681
4949629723
4949634545
4949640832
4949645348
4949653832
4949660424
4949666833
4949675866
4949683373
4949691430
4949699364
4949711022
4949719262
4949723595
4949734582
4949744042
4949752221
4949761071
4949769127
4949776146
4949784203
4949792138
4949801476
4949810570
4949818810
4949827599
4949835656
4949844567
4949852318
4949860985
4949869347
4949876793
4949885155
4949892662
4949900353
4949907921
4949915611
4949923668
4949932091
4949940086
4949947899
4949955589
4949962486
4949970421
4949978172
4949985802
4949993980
4950002586
4950010948
4950017662
4950026207
4950034202
4950041527
4950052513
4950062401
4950068504
4950076744
4950084739
4950093834
4950100486
4950110740
4950120628
4950129356
4950134178
4950144554
4950152427
4950160423
4950168418
4950177574
4950186485
4950195091
4950201499
4950210532
4950218040
4950224693
4950234458
4950239341
4950248740
4950256736
4950264793
4950269614
4950279868
4950287742
4950296409
4950304832
4950311179
4950319602
4950327720
4950335593
4950342551
4950353171
4950360373
4950369773
4950375876
4950383994
4950390830
4950401084
4950407309
4950415915
4950422751
4950433982
4950441550
4950448630
4950457053
4950464377
4950472312
4950478842
4950487815
4950492758
4950503012
4950511862
4950520407
4950527548
4950533591
4950544089
4950552878
4950561362
4950568808
4950577414
4950586508
4950591086
4950601340
4950609335
4950617209
4950625509
4950633810
4950641745
4950648337
4950658102
4950666769
4950674337
4950681295
4950689108
4950698751
4950706869
4950715475
4950721640
4950731039
4950739096
4950746908
4950755453
4950764242
4950771688
4950780783
4950789694
4950795614
4950805074
4950813009
4950820944
4950825460
4950835897
4950846151
4950854879
4950862447
4950869161
4950880453
4950888265
4950895833
4950902608
4950910909
4950921407
4950929708
4950937459
4950943319
4950953328
4950962362
4950972799
4950978963
4950983480
4950989034
4950993306
4950997579
4951003804
4951008687
4951013875
4951017232
4951026082
4951030599
4951035848
4951041036
4951045125
4951050252
4951055257
4951060262
4951065755
4951069417
4951074910
4951078633
4951084187
4951089742
4951094563
4951099568
4951104146
4951107808
4951113240
4951117268
4951121602
4951126973
4951132466
4951135457
4951141621
4951146748
4951153157
4951158101
4951161946
4951167195
4951173848
4951178364
4951181660
4951188618
4951194050
4951198079
4951203389
4951209187
4951214924
4951219197
4951224629
4951230183
4951235798
4951240803
4951246052
4951252522
4951258809
4951263813
4951270344
4951275593
4951280720
4951286274
4951291829
4951296833
4951301838
4951307637
4951314289
4951318257
4951325886
4951329731
4951337849
4951343586
4951349140
4951354328
4951359028
4951364521
4951373493
4951379963
4951385639
4951393391
4951399067
4951406147
4951411396
4951416279
4951421223
4951429890
4951435688
4951441486
4951445576
4951452168
4951458820
4951463398
4951469013
4951478229
4951484699
4951491230
4951495685
4951501972
4951506489
4951511860
4951516254
4951521747
4951525959
4951530597
4951534931
4951540729
4951545307
4951552631
4951558674
4951566791
4951571796
4951578815
4951586689
4951590778
4951596027
4951603168
4951606403
4951614582
4951618061
4951625812
4951628925
4951635639
4951638813
4951647602
4951652484
4951658466
4951662067
4951668109
4951671344
4951679340
4951682514
4951690448
4951693744
4951701984
4951705219
4951712482
4951716937
4951722430
4951726886
4951732135
4951736713
4951743121
4951747638
4951753558
4951757953
4951764423
4951769977
4951775348
4951783588
4951789081
4951793597
4951799701
4951804706
4951811114
4951815448
4951821307
4951828753
4951833697
4951839251
4951844439
4951850177
4951853961
4951861895
4951865313
4951872393
4951877581
4951886187
4951890338
4951898822
4951902362
4951908831
4951914141
4951920489
4951925433
4951935809
4951941363
4951948748
4951956866
4951962298
4951969683
4951975298
4951981402
4951986346
4951991778
4951997149
4952003008
4952007586
4952015215
4952019976
4952026629
4952032732
4952036578
4952042437
4952046832
4952052142
4952058428
4952063311
4952070940
4952075579
4952081438
4952087115
4952091997
4952098284
4952104021
4952111773
4952116656
4952121905
4952127215
4952132464
4952137407
4952143511
4952149187
4952156084
4952158342
4952166094
4952169390
4952176897
4952180864
4952187639
4952192339
4952199236
4952202898
4952211809
4952217302
4952222979
4952228472
4952235613
4952240679
4952246050
4952252519
4952258257
4952263079
4952269121
4952273577
4952280718
4952285356
4952291216
4952297685
4952303423
4952307878
4952313188
4952319597
4952322893
4952330888
4952334734
4952342729
4952348161
4952355791
4952359514
4952366350
4952371599
4952377824
4952382097
4952388261
4952395280
4952401201
4952405595
4952412553
4952417009
4952423723
4952428728
4952431962
4952441301
4952447770
4952453630
4952456010
4952464555
4952471635
4952477372
4952486833
4952492509
4952499894
4952505204
4952512040
4952516862
4952523820
4952531022
4952537736
4952543351
4952551286
4952557267
4952563432
4952568925
4952574845
4952581132
4952583085
4952591569
4952600358
4952604875
4952611527
4952615861
4952622147
4952627946
4952629960
4952638932
4952644852
4952652116
4952657914
4952663834
4952668412
4952674149
4952680375
4952687638
4952692704
4952698929
4952702225
4952709977
4952713456
4952720414
4952725113
4952735001
4952740006
4952745743
4952749283
4952756180
4952761673
4952767472
4952772355
4952779984
4952785172
4952791459
4952798416
4952803177
4952809708
4952814591
4952819535
4952826981
4952832779
4952839615
4952844925
4952851151
4952856339
4952862930
4952868363
4952875565
4952881668
4952885697
4952893631
4952897843
4952905838
4952910965
4952917679
4952922134
4952929886
4952935562
4952941971
4952948013
4952954056
4952961319
4952968338
4952974564
4952980850
4952986648
4952993057
4952999771
4953005508
4953010818
4953014664
4953023269
4953027115
4953034927
4953041824
4953046280
4953052627
4953059036
4953062393
4953069351
4953074112
4953080337
4953088760
4953094009
4953101211
4953107986
4953113418
4953119277
4953124038
4953131790
4953135391
4953143325
4953149368
4953155288
4953160049
4953166580
4953172622
4953178420
4953182937
4953190017
4953195022
4953201614
4953207717
4953212661
4953218398
4953225723
4953231765
4953237441
4953242934
4953247207
4953250625
4953259902
4953263442
4953270217
4953275344
4953285964
4953290420
4953296218
4953302505
4953308608
4953314528
4953321731
4953326613
4953329848
4953337539
4953342238
4953348647
4953354140
4953362197
4953367080
4953376784
4953382155
4953390334
4953394545
4953403945
4953408034
4953417311
4953421035
4953429091
4953433303
4953440871
4953445082
4953452895
4953458449
4953466200
4953469985
4953478346
4953481947
4953489455
4953495619
4953503005
4953508681
4953515273
4953520888
4953528517
4953537428
4953543959
4953550978
4953555006
4953562208
4953570692
4953576491
4953582106
4953588270
4953593764
4953599379
4953604872
4953610731
4953616224
4953623793
4953629591
4953633864
4953641310
4953648268
4953650404
4953659132
4953664991
4953670912
4953676771
4953683302
4953688734
4953694044
4953700697
4953707777
4953714430
4953718885
4953725416
4953729383
4953734938
4953742506
4953749891
4953756544
4953762769
4953768141
4953773329
4953778639
4953784559
4953789137
4953796644
4953802625
4953809705
4953814832
4953820387
4953824964
4953831922
4953836378
4953843031
4953848280
4953855909
4953862318
4953867078
4953873487
4953878919
4953884778
4953888990
4953896863
4953901746
4953906934
4953908765
4953916700
4953919874
4953927930
4953933606
4953939771
4953943250
4953951001
4953957044
4953962720
4953965833
4953972303
4953978589
4953984754
4953990735
4953995740
4953999036
4954007337
4954010877
4954017408
4954022901
4954028821
4954033765
4954041760
4954046826
4954053052
4954058118
4954065137
4954070081
4954076978
4954082776
4954089978
4954094861
4954100903
4954107373
4954112378
4954119214
4954124402
4954132581
4954135083
4954144116
4954148022
4954155591
4954161267
4954168164
4954173779
4954180066
4954186413
4954192761
4954197949
4954204358
4954210583
4954216260
4954221509
4954228955
4954235180
4954239331
4954246716
4954254101
4954259594
4954264782
4954270153
4954277478
4954283886
4954291088
4954297070
4954304150
4954311291
4954317211
4954324536
4954330151
4954337597
4954343456
4954350231
4954356518
4954365246
4954371288
4954376721
4954384106
4954392101
4954397717
4954404003
4954410656
4954415722
4954421764
4954430492
4954434338
4954441051
4954446667
4954453442
4954456921
4954464611
4954470226
4954475414
4954479687
4954486645
4954492077
4954497204
4954502636
4954506664
4954513744
4954518871
4954524242
4954531383
4954536815
4954541454
4954547435
4954552074
4954558605
4954564281
4954571972
4954577648
4954583080
4954587658
4954596996
4954602916
4954612072
4954618236
4954624645
4954632396
4954636974
4954644786
4954648998
4954654979
4954659313
4954666454
4954671153
4954678111
4954684215
4954689403
4954693431
4954699718
4954703990
4954709728
4954713817
4954721996
4954726817
4954730724
4954735973
4954740794
4954744517
4954750926
4954757274
4954762584
4954766978
4954772288
4954778575
4954783641
4954787730
4954792857
4954800731
4954812633
4954817821
4954823863
4954829539
4954834544
4954839244
4954846507
4954851756
4954857188
4954862986
4954867686
4954873606
4954883616
4954891612
4954899241
4954904978
4954910350
4954916148
4954922496
4954928904
4954934764
4954940074
4954949168
4954954722
4954960032
4954964305
4954970469
4954976084
4954979991
4954983103
4954991953
4954998667
4955004099
4955010569
4955015086
4955021494
4955025278
4955031443
4955035838
4955041148
4955044199
4955050791
4955054026
4955060252
4955063975
4955071177
4955075083
4955081797
4955085764
4955091929
4955096567
4955102793
4955106821
4955113840
4955120676
4955126169
4955129770
4955138926
4955145395
4955149790
4955153391
4955162363
4955167490
4955173471
4955179331
4955184458
4955190744
4955196543
4955202646
4955208994
4955211374
4955218881
4955224497
4955231027
4955236948
4955241281
4955246652
4955252756
4955259043
4955264536
4955272775
4955284189
4955295908
4955301218
4955309885
4955315317
4955320810
4955326852
4955331857
4955338205
4955344308
4955351511
4955357370
4955363595
4955370248
4955374643
4955381235
4955384958
4955392831
4955396432
4955405282
4955409189
4955416391
4955421396
4955426706
4955432077
4955439523
4955444101
4955451303
4955457650
4955464242
4955469369
4955475228
4955481576
4955485788
4955493661
4955497628
4955507577
4955511544
4955519784
4955524056
4955531808
4955535775
4955542489
4955549142
4955557015
4955562325
4955567880
4955573617
4955579904
4955584786
4955590279
4955596566
4955601693
4955611337
4955617135
4955622750
4955627328
4955633248
4955638436
4955643746
4955648446
4955654854
4955660165
4955666268
4955670846
4955676339
4955681039
4955687203
4955695382
4955702157
4955708016
4955711739
4955718880
4955723031
4955731331
4955736458
4955742562
4955747384
4955753304
4955757637
4955763863
4955769295
4955774910
4955779244
4955782540
4955790169
4955793404
4955800240
4955806710
4955812935
4955816475
4955823067
4955826485
4955833443
4955838753
4955846688
4955851021
4955857918
4955864693
4955868904
4955873726
4955883186
4955888741
4955896004
4955900887
4955906136
4955912727
4955919014
4955923836
4955929695
4955934700
4955941475
4955946602
4955951973
4955957405
4955963570
4955969673
4955976875
4955984993
4955990974
4955997749
4956003120
4956008552
4956014412
4956019844
4956027046
4956032478
4956037117
4956040962
4956048835
4956054451
4956059944
4956065681
4956073860
4956080574
4956087165
4956094123
4956099189
4956105781
4956110420
4956115852
4956123115
4956127876
4956134468
4956143379
4956148506
4956153816
4956161689
4956166511
4956172309
4956178779
4956183662
4956191840
4956199165
4956205512
4956211555
4956215217
4956222602
4956228217
4956236274
4956241523
4956248359
4956253364
4956259955
4956264716
4956271735
4956276923
4956283454
4956290839
4956295844
4956302802
4956307746
4956312201
4956317939
4956323676
4956325690
4956335944
4956342658
4956349250
4956355048
4956359320
4956362738
4956370734
4956374518
4956383246
4956387152
4956394721
4956397956
4956405341
4956410163
4956416144
4956421149
4956427313
4956433173
4956440863
4956446723
4956452704
4956457160
4956463385
4956468207
4956476325
4956481757
4956489142
4956495673
4956502142
4956506476
4956512457
4956518439
4956524664
4956532538
4956540167
4956545660
4956551947
4956557501
4956563910
4956568732
4956573004
4956583746
4956587469
4956596258
4956599920
4956606451
4956612494
4956617743
4956621527
4956631720
4956636602
4956644232
4956649542
4956655157
4956661200
4956668097
4956673956
4956681402
4956686895
4956692511
4956698675
4956703314
4956712530
4956716314
4956722601
4956726324
4956732733
4956738104
4956744451
4956751714
4956755316
4956763738
4956769903
4956774053
4956777166
4956783331
4956786138
4956793096
4956798956
4956804876
4956809698
4956815008
4956819524
4956825140
4956830999
4956835149
4956841070
4956846990
4956852788
4956857244
4956863653
4956867925
4956873846
4956879339
4956884588
4956889165
4956895269
4956900396
4956907049
4956911626
4956917425
4956923528
4956928838
4956932866
4956939397
4956943975
4956950200
4956954778
4956960820
4956967961
4956973760
4956980413
4956982732
4956994146
4956998052
4957005620
4957009282
4957016545
4957020513
4957028874
4957033940
4957038701
4957045781
4957051640
4957056340
4957063054
4957068303
4957074651
4957079228
4957085759
4957090886
4957096989
4957101567
4957107915
4957113530
4957119023
4957124760
4957130131
4957136662
4957142705
4957148747
4957153447
4957158757
4957165349
4957170720
4957177006
4957182500
4957190007
4957195439
4957200200
4957206364
4957211796
4957216008
4957224308
4957227971
4957235539
4957241032
4957246952
4957252751
4957273320
4957281010
4957286930
4957293095
4957299809
4957304875
4957310368
4957317265
4957321903
4957326847
4957335087
4957342045
4957348210
4957354252
4957361515
4957366520
4957372624
4957377995
4957383305
4957393009
4957398380
4957405460
4957411015
4957416203
4957422367
4957427311
4957434269
4957438908
4957445560
4957452152
4957457218
4957463871
4957469181
4957473575
4957479801
4957484379
4957491276
4957496586
4957502933
4957507694
4957511356
4957519840
4957526920
4957533512
4957539249
4957543949
4957547733
4957555729
4957560001
4957566471
4957571537
4957580753
4957585392
4957592105
4957595890
4957602115
4957607730
4957614627
4957619937
4957625736
4957630435
4957638126
4957643497
4957648990
4957656680
4957658878
4957667545
4957673709
4957679263
4957682925
4957691837
4957695682
4957703067
4957707339
4957713687
4957720523
4957725711
4957731387
4957737857
4957742679
4957748111
4957754642
4957760440
4957764957
4957771853
4957777774
4957779910
4957790469
4957794314
4957801700
4957805667
4957813357
4957818972
4957826053
4957831057
4957836001
4957841250
4957849490
4957854739
4957859195
4957865847
4957872195
4957878970
4957885134
4957890750
4957895144
4957903323
4957908145
4957914492
4957919680
4957927676
4957931460
4957937808
4957943545
4957951113
4957956179
4957962954
4957968203
4957976199
4957983279
4957988589
4957993166
4957999331
4958003909
4958011172
4958016665
4958021181
4958030581
4958034487
4958041628
4958048037
4958053591
4958058352
4958065249
4958070742
4958077639
4958082522
4958088320
4958094546
4958100893
4958106264
4958110109
4958117983
4958125185
4958130373
4958134279
4958142031
4958148012
4958153078
4958159182
4958165407
4958170473
4958176699
4958182436
4958188967
4958194338
4958198854
4958205385
4958207521
4958216860
4958222658
4958228517
4958235231
4958241762
4958248049
4958253481
4958259401
4958265505
4958270509
4958278627
4958282838
4958288759
4958293947
4958300844
4958307375
4958321413
4958341310
4958349794
4958359437
4958366701
4958376893
4958385621
4958393373
4958401124
4958411378
4958417299
4958422059
4958427003
4958432313
4958436952
4958442872
4958447267
4958453859
4958458253
4958464112
4958468751
4958474366
4958480104
4958484925
4958489991
4958496339
4958502015
4958508546
4958512940
4958518067
4958523377
4958528810
4958533998
4958541505
4958549073
4958554322
4958558839
4958562196
4958570496
4958573792
4958581971
4958587281
4958594788
4958601868
4958607606
4958612855
4958619996
4958624757
4958630921
4958634949
4958640992
4958647889
4958654298
4958660035
4958664368
4958668641
4958675538
4958681641
4958688233
4958692994
4958700013
4958704285
4958710816
4958714844
4958719605
4958725464
4958731568
4958737976
4958743103
4958748475
4958753540
4958757935
4958764344
4958770203
4958773377
4958780213
4958786927
4958790955
4958794190
4958801148
4958807862
4958812012
4958817200
4958825440
4958830322
4958836060
4958841187
4958847901
4958851746
4958858704
4958865845
4958871765
4958877258
4958882507
4958888367
4958892761
4958899231
4958903564
4958910706
4958917602
4958923279
4958929260
4958934387
4958940246
4958945984
4958951782
4958956909
4958962707
4958969909
4958974304
4958980408
4958986877
4958991882
4958996277
4959003662
4959009887
4959014648
4959020263
4959025390
4959029663
4959036499
4959040466
4959047302
4959053955
4959059997
4959064453
4959069397
4959075256
4959081298
4959087280
4959092407
4959098876
4959104064
4959109802
4959116027
4959123413
4959128967
4959134338
4959138732
4959146362
4959152587
4959157165
4959160766
4959169555
4959173400
4959180602
4959183898
4959193114
4959197326
4959203979
4959207763
4959213988
4959217406
4959224425
4959229125
4959236877
4959241149
4959249023
4959256042
4959261046
4959264464
4959274169
4959279906
4959286071
4959291381
4959297728
4959303344
4959309691
4959311889
4959319884
4959325866
4959330443
4959337157
4959342467
4959348632
4959354430
4959360350
4959365844
4959372924
4959378539
4959384459
4959389403
4959398925
4959405699
4959411925
4959416869
4959423644
4959428893
4959435301
4959440795
4959448241
4959453124
4959458006
4959464415
4959470946
4959476256
4959481505
4959487730
4959494017
4959499266
4959503111
4959510435
4959514647
4959524229
4959528014
4959536314
4959541807
4959546751
4959552916
4959558409
4959564268
4959570433
4959578489
4959584532
4959589903
4959596007
4959602171
4959608702
4959614012
4959617552
4959626280
4959632261
4959638731
4959643187
4959648802
4959652281
4959660215
4959663633
4959673460
4959680967
4959685789
4959693296
4959699034
4959707090
4959713194
4959722532
4959728575
4959734678
4959742185
4959747740
4959753172
4959760862
4959765135
4959775449
4959782896
4959789304
4959795042
4959802305
4959809019
4959814329
4959821653
4959828794
4959834653
4959838682
4959845762
4959849790
4959855710
4959862485
4959868162
4959872800
4959880491
4959885984
4959891050
4959896543
4959898435
4959907224
4959910581
4959917966
4959922300
4959929685
4959935117
4959939206
4959944333
4959951169
4959954648
4959962033
4959966001
4959972226
4959976743
4959982114
4959989011
4959993527
4959998288
4960006101
4960011289
4960017026
4960021909
4960028195
4960033689
4960038022
4960043759
4960050656
4960057309
4960059567
4960068112
4960073178
4960078610
4960083615
4960089108
4960092831
4960103207
4960106747
4960114682
4960118649
4960127011
4960132931
4960140256
4960148007
4960153500
4960159787
4960164425
4960168088
4960175595
4960181759
4960186459
4960190060
4960197384
