184537111568
184537117915
184537122859
184537126948
184537132136
184537136775
184537141109
184537147151
184537151546
184537156184
184537160640
184537165401
184537171077
184537174068
184537178706
184537182979
184537187312
184537191829
184537195491
184537199946
184537204036
184537208552
184537213130
184537216914
184537221858
184537226252
184537230891
184537235469
184537238765
184537244197
184537248530
184537253596
184537258113
184537262446
184537266352
184537269465
184537273860
184537277827
184537281916
184537286799
184537292048
184537295710
184537300593
184537304072
184537308100
184537312495
184537316096
184537322138
184537326106
184537331111
184537335627
184537339594
184537343684
184537347102
184537351069
184537355402
184537359736
184537363154
184537367365
184537370722
184537375117
184537378535
184537382807
184537386897
184537390986
184537394953
184537398554
184537402033
184537406428
184537410334
184537414606
184537418757
184537423090
184537427424
184537430720
184537434748
184537439448
184537442194
184537448603
184537452692
184537456721
184537460505
184537463618
184537467402
184537471369
184537475214
184537479731
184537484064
184537487177
184537491755
184537496088
184537500727
184537504023
184537508600
184537514643
184537518793
184537522333
184537526972
184537531611
184537536127
184537540033
184537544306
184537547846
184537553339
184537557001
184537561640
184537565363
184537569574
184537572992
184537577143
184537581903
184537586786
184537590448
184537594416
184537598444
184537603388
184537608148
184537613092
184537616876
184537622003
184537625727
184537630365
184537635614
184537641229
184537644769
184537648248
184537653986
184537659784
184537663690
184537668695
184537672418
184537677423
184537681390
184537686823
184537691278
184537695978
184537700067
184537704584
184537709039
184537713922
184537718561
184537722711
184537726739
184537733453
184537737848
184537742120
184537746454
184537749994
184537755121
184537759515
184537764032
184537769281
184537773858
184537777643
184537782709
184537788141
184537792657
184537796380
184537800836
184537806024
184537809320
184537815667
184537820367
184537824151
184537828302
184537833184
184537837396
184537842157
184537848748
184537853143
184537857293
184537862970
184537867974
184537872430
184537876031
184537881158
184537887017
184537890618
184537895867
184537900811
184537905572
184537910272
184537913995
184537916863
184537922906
184537925958
184537931939
184537936883
184537941461
184537945489
184537950066
184537954217
184537960381
184537963372
184537968316
184537972649
184537978387
184537982720
184537987420
184537991143
184537997002
184538002801
184538007317
184538011040
184538017144
184538020989
184538026238
184538030694
184538036187
184538040642
184538046441
184538051140
184538055352
184538060052
184538061761
184538069634
184538073052
184538077874
184538082635
184538086785
184538091851
184538097222
184538100091
184538106377
184538111382
184538115715
184538121453
184538126519
184538130608
184538135064
184538139275
184538144280
184538148247
184538153191
184538158013
184538162224
184538167046
184538171379
184538176934
184538181450
184538185112
184538189690
184538194512
184538198052
184538203301
184538209831
184538214470
184538219475
184538224602
184538229363
184538234429
184538239128
184538243523
184538247795
184538254143
184538258415
184538263359
184538267510
184538272575
184538278313
184538283134
184538287041
184538292839
184538296684
184538302483
184538306633
184538311882
184538317619
184538322990
184538326836
184538332329
184538336235
184538341118
184538346977
184538350517
184538355949
184538360893
184538366325
184538371269
184538375175
184538379387
184538385734
184538390068
184538394645
184538400139
184538405693
184538410148
184538415703
184538419731
184538424553
184538429496
184538434257
184538438102
184538442985
184538446586
184538451286
184538456718
184538462150
184538465751
184538470451
184538475883
184538480217
184538486137
184538490776
184538496757
184538500724
184538506523
184538510734
184538517143
184538522025
184538527702
184538532646
184538537162
184538543632
184538548209
184538553275
184538557914
184538563895
184538568290
184538574088
184538578361
184538582938
184538588676
184538593681
184538598319
184538604545
184538609061
184538614432
184538620109
184538625114
184538629203
184538635367
184538639457
184538644706
184538650138
184538654288
184538660148
184538664725
184538669181
184538674918
184538681571
184538686515
184538691214
184538696891
184538701163
184538706717
184538712516
184538718009
184538723136
184538729239
184538735404
184538740714
184538745414
184538750968
184538754203
184538760794
184538765006
184538771964
184538775992
184538782645
184538788199
184538792899
184538796622
184538803702
184538808646
184538813956
184538818717
184538822562
184538828238
184538831961
184538837943
184538844412
184538849356
184538853507
184538859000
184538863211
184538868582
184538872611
184538877737
184538882803
184538888113
184538892935
184538897818
184538902212
184538907400
184538911490
184538918875
184538923941
184538929434
184538934195
184538939566
184538944937
184538953482
184538959524
184538968130
184538974844
184538982779
184538991995
184538999136
184539006521
184539015127
184539022268
184539032461
184539038626
184539045706
184539051809
184539058767
184539066824
184539075186
184539081961
184539089590
184539098562
184539107107
184539113088
184539119619
184539127920
184539137624
184539144521
184539152639
184539161001
184539167104
184539171682
184539176687
184539179433
184539185964
184539189931
184539196096
184539200674
184539204824
184539209524
184539212942
184539218069
184539222036
184539226736
184539230642
184539235952
184539239858
184539244741
184539250600
184539254018
184539258962
184539263906
184539268422
184539273488
184539277578
184539283376
184539288198
184539292409
184539297658
184539301564
184539305837
184539311025
184539315114
184539319875
184539324147
184539328664
184539333852
184539338552
184539341542
184539346852
184539351491
184539356130
184539359914
184539365041
184539369130
184539373098
184539377309
184539382314
184539385854
184539390737
184539394277
184539399831
184539404531
184539409230
184539414601
184539417775
184539423146
184539426930
184539431935
184539437795
184539442616
184539447743
184539452687
184539457692
184539462514
184539466969
184539471486
184539476369
184539481557
184539488210
184539493031
184539498585
184539502003
184539507680
184539512379
184539518117
184539522938
184539527943
184539531178
184539537221
184539543385
184539547719
184539551869
184539558644
184539563649
184539567799
184539572621
184539576832
184539581959
184539586964
184539591298
184539597523
184539601368
184539605031
184539610768
184539614979
184539619740
184539624073
184539627858
184539635365
184539639332
184539643727
184539648793
184539651295
184539657338
184539661793
184539666676
184539669178
184539675282
184539679981
184539683460
184539687916
184539692311
184539696644
184539701771
184539706532
184539711964
184539715382
184539719837
184539723622
184539729298
184539733753
184539737721
184539742725
184539746510
184539750782
184539756153
184539758839
184539764332
184539767994
184539773548
184539778187
184539783314
184539787769
184539791370
184539795338
184539800404
184539804249
184539809925
184539815540
184539820606
184539824451
184539829456
184539833179
184539838428
184539842274
184539847828
184539852344
184539856678
184539861683
184539866016
184539869922
184539875049
184539878711
184539883594
184539890918
184539895740
184539899769
184539904957
184539908558
184539913196
184539918262
184539922596
184539926502
184539932361
184539935901
184539941455
184539947010
184539950550
184539955432
184539959217
184539964771
184539969837
184539973438
184539978809
184539982349
184539987842
184539991565
184539996997
184540000842
184540007068
184540011341
184540016040
184540019702
184540024768
184540029285
184540034351
184540038196
184540043323
184540047168
184540051929
184540056690
184540061572
184540065173
184540072376
184540076587
184540081836
184540086902
184540090991
184540095569
184540100696
184540105273
184540109241
184540114123
184540119372
184540123462
184540126269
184540132434
184540136951
184540141772
184540144580
184540150622
184540156848
184540161914
184540164721
184540170581
184540174914
184540179248
184540183093
184540189013
184540193530
184540197925
184540201770
184540207202
184540211047
184540216357
184540220141
184540226489
184540230395
184540237292
184540240039
184540246203
184540250537
184540255481
184540259936
184540264209
184540268664
184540273242
184540277575
184540283068
184540287463
184540291735
184540295519
184540300952
184540305834
184540310473
184540314929
184540319262
184540323290
184540328356
184540332324
184540337939
184540343188
184540347949
184540351733
184540357104
184540360888
184540365954
184540369860
184540374987
184540379321
184540384753
184540388598
184540392870
184540397936
184540402392
184540406237
184540410754
184540418200
184540422961
184540426745
184540432299
184540435778
184540440661
184540445544
184540449267
184540454699
184540459704
184540463427
184540469530
184540473620
184540478197
184540483263
184540486681
184540493578
184540498949
184540504808
184540509081
184540513109
184540518602
184540522448
184540527086
184540531298
184540536486
184540540819
184540546312
184540550219
184540555590
184540559740
184540564684
184540569200
184540574816
184540579088
184540583238
184540587206
184540592394
184540597460
184540601549
184540606127
184540612535
184540617540
184540621507
184540625292
184540630541
184540634386
184540640245
184540645128
184540649767
184540654039
184540659288
184540663561
184540668871
184540672777
184540677293
184540684801
184540690294
184540693590
184540698839
184540703538
184540709703
184540714281
184540717332
184540724168
184540729112
184540733934
184540738023
184540742052
184540747423
184540751329
184540756456
184540762803
184540768480
184540773301
184540778184
184540782762
184540786729
184540790696
184540795884
184540800767
184540806138
184540809251
184540814378
184540818528
184540823594
184540828294
184540834336
184540840257
184540845445
184540850633
184540858079
184540863755
184540867784
184540872239
184540877915
184540883042
184540887986
184540892686
184540899217
184540902146
184540908860
184540913621
184540918992
184540922776
184540927232
184540932298
184540936326
184540941270
184540945481
184540951280
184540957078
184540962388
184540965012
184540970872
184540976060
184540980637
184540984971
184540988999
184540994431
184540998399
184541003831
184541007615
184541016160
184541021958
184541030991
184541038865
184541045762
184541054612
184541064927
184541072739
184541079453
184541087204
184541093125
184541102158
184541108445
184541115891
184541124619
184541131821
184541141648
184541147873
184541154038
184541158188
184541161789
184541167465
184541171677
184541175766
184541180039
184541182358
184541187912
184541192063
184541195908
184541199875
184541203781
184541206528
184541212021
184541216171
184541220688
184541224472
184541228745
184541232712
184541236008
184541239975
184541244858
184541249374
184541252670
184541256882
184541260178
184541264877
184541268173
184541272202
184541276657
184541281418
184541285263
184541289597
184541293442
184541297897
184541300156
184541306869
184541312057
184541316330
184541320907
184541323898
184541327988
184541332260
184541336532
184541340439
184541346786
184541352218
184541355942
184541360336
184541364486
184541369064
184541373703
184541379318
184541384079
184541389389
184541392990
184541397567
184541402633
184541407272
184541411728
184541415268
184541419784
184541424362
184541429184
184541432418
184541437240
184541441513
184541445785
184541449935
184541455246
184541460128
184541464401
184541469161
184541473556
184541478195
184541481368
184541487167
184541492233
184541496078
184541501144
184541505966
184541511154
184541514694
184541519821
184541523544
184541529281
184541532882
184541538497
184541541854
184541546859
184541551620
184541555099
184541561874
184541565414
184541571090
184541574386
184541579818
184541584151
184541588546
184541592879
184541598312
184541603255
184541608016
184541612044
184541616744
184541620101
184541625655
184541628585
184541634994
184541639144
184541645553
184541650069
184541655013
184541659469
184541663253
184541667037
184541672225
184541676864
184541681685
184541685592
184541690658
184541694625
184541700362
184541704268
184541708541
184541714217
184541719405
184541723311
184541728499
184541732466
184541736922
184541741805
184541745955
184541751326
184541754866
184541759871
184541764449
184541768050
184541772750
184541777327
184541781783
184541785689
184541791487
184541795455
184541798873
184541805159
184541810408
184541813826
184541819197
184541823592
184541829451
184541833296
184541836470
184541843489
184541846785
184541852644
184541855757
184541860701
184541865828
184541870589
184541875044
184541880049
184541884383
184541889021
184541893416
184541899092
184541905501
184541909163
184541913679
184541918318
184541922774
184541927595
184541932173
184541936018
184541940657
184541945418
184541949324
184541955000
184541959150
184541963789
184541968001
184541973555
184541978071
184541983626
184541987532
184541991865
184541997236
184542001631
184542005232
184542010481
184542014875
184542020857
184542024946
184542029341
184542032820
184542037947
184542043135
184542047590
184542051374
184542056562
184542061994
184542066023
184542070661
184542075727
184542080244
184542083967
184542089338
184542094526
184542098432
184542103437
184542108198
184542111555
184542116987
184542121320
184542126631
184542130659
184542136518
184542139753
184542145734
184542149152
184542154218
184542158735
184542163496
184542169294
184542173750
184542178266
184542182478
184542186323
184542192060
184542195783
184542200788
184542205183
184542210676
184542214582
184542219221
184542223188
184542228010
184542231550
184542236921
184542244062
184542248639
184542252973
184542258222
184542262128
184542266950
184542273176
184542278180
184542283551
184542289777
184542294355
184542300641
184542305585
184542310346
184542313276
184542320783
184542324750
184542330976
184542335431
184542340680
184542344525
184542349774
184542354291
184542359845
184542364301
184542369794
184542374494
184542378827
184542382550
184542386273
184542392682
184542396039
184542402326
184542406964
184542410687
184542414411
184542420026
184542424420
184542428327
184542433942
184542439374
184542442059
184542447919
184542452313
184542456708
184542460797
184542466718
184542472150
184542477032
184542481610
184542486127
184542490033
184542494366
184542498456
184542503277
184542509320
184542513776
184542516705
184542521405
184542525433
184542530255
184542534405
184542539044
184542544415
184542547772
184542552105
184542556256
184542560895
184542565228
184542569073
184542572796
184542577923
184542582867
184542586895
184542591595
184542595746
184542598980
184542604046
184542609173
184542613568
184542617169
184542621624
184542625164
184542630291
184542633953
184542638714
184542644512
184542650372
184542653973
184542658795
184542664471
184542668988
184542672833
184542677349
184542684307
184542688091
184542691937
184542697369
184542701336
184542705670
184542709637
184542714459
184542721111
184542725384
184542729290
184542734356
184542738079
184542742718
184542747662
184542752605
184542758770
184542764080
184542768108
184542773174
184542777874
184542782452
184542787456
184542791607
184542795574
184542802105
184542806866
184542811565
184542815960
184542819866
184542823528
184542828594
184542833477
184542838848
184542843181
184542847332
184542850872
184542855938
184542859844
184542864544
184542870037
184542874737
184542878399
184542882549
184542887005
184542890850
184542896099
184542902507
184542907390
184542913066
184542917217
184542921428
184542926067
184542931072
184542935405
184542939678
184542945049
184542948772
184542953228
184542956829
184542961711
184542965190
184542970928
184542977214
184542985881
184542994365
184543000591
184543008342
184543014263
184543025310
184543031841
184543041118
184543048198
184543056621
184543062602
184543071696
184543078593
184543085918
184543096233
184543102275
184543111674
184543118327
184543122722
184543126933
184543130351
184543135600
184543139201
184543144816
184543149028
184543154155
184543157817
184543162700
184543166484
184543170695
184543175761
184543179606
184543183207
184543188456
184543192607
184543197245
184543201701
184543206828
184543211161
184543215373
184543218486
184543223185
184543228007
184543231486
184543236796
184543239848
184543244914
184543249247
184543252360
184543256632
184543260356
184543267314
184543271525
184543275309
184543278910
184543282267
184543287455
184543291606
184543297648
184543303202
184543306864
184543311320
184543316325
184543320841
184543325846
184543330302
184543334818
184543339640
184543345011
184543349833
184543353678
184543357951
184543363871
184543368143
184543372294
184543380167
184543384074
184543389628
184543394450
184543398295
184543404093
184543409037
184543413187
184543418680
184543424418
184543428385
184543431925
184543438151
184543443094
184543448221
184543451761
184543457010
184543462443
184543468180
184543473185
184543477030
184543481424
184543486979
184543491495
184543497171
184543501749
184543506815
184543511026
184543516397
184543520243
184543525675
184543529459
184543535257
184543540567
184543547769
184543551981
184543555643
184543562113
184543565653
184543571695
184543575357
184543581949
184543585550
184543591898
184543596597
184543600565
184543604776
184543610819
184543615701
184543620279
184543626138
184543630899
184543636453
184543641519
184543645792
184543650552
184543654398
184543657816
184543666299
184543671854
184543676065
184543681802
184543685648
184543688455
184543695169
184543699991
184543705118
184543710489
184543716104
184543719156
184543725870
184543730691
184543734903
184543739175
184543743936
184543750955
184543755288
184543759622
184543764932
184543770730
184543775552
184543779336
184543784402
184543788614
184543795144
184543799295
184543804361
184543809365
184543813089
184543818765
184543822366
184543829507
184543835733
184543841409
184543844949
184543851113
184543855020
184543860696
184543865396
184543869485
184543875100
184543880532
184543885354
184543890420
184543894631
184543898965
184543902932
184543908547
184543916177
184543921426
184543925759
184543930764
184543934487
184543940713
184543944924
184543949868
184543954934
184543961953
184543966164
184543972024
184543975930
184543980569
184543985024
184543990090
184543996133
184543999551
184544006142
184544011025
184544016091
184544020791
184544025246
184544029519
184544036049
184544039467
184544045266
184544049965
184544055214
184544060463
184544065590
184544069680
184544074379
184544080178
184544085793
184544090920
184544094704
184544099587
184544104958
184544110573
184544115761
184544122048
184544127541
184544133217
184544138832
184544144509
184544149697
184544154335
184544159096
184544164589
184544169716
184544174782
184544180824
184544185829
184544190041
184544196083
184544200295
184544203407
184544212135
184544216896
184544222328
184544227028
184544233254
184544237831
184544243324
184544247841
184544252785
184544259560
184544264809
184544268959
184544273048
184544279518
184544283363
184544289833
184544293251
184544299599
184544304909
184544310768
184544315529
184544321083
184544325661
184544330665
184544335182
184544341713
184544346107
184544351539
184544355690
184544358925
184544366188
184544371742
184544376747
184544381385
184544387794
184544392616
184544398353
184544403053
184544408058
184544412330
184544417640
184544423194
184544427223
184544433937
184544438087
184544444679
184544448097
184544454566
184544459876
184544464332
184544469093
184544474525
184544478980
184544485267
184544489539
184544494117
184544499915
184544503944
184544510780
184544514625
184544520179
184544526649
184544530921
184544535499
184544541846
184544546851
184544552772
184544557288
184544562354
184544568397
184544574195
184544578529
184544584571
184544588721
184544594031
184544599647
184544605079
184544609839
184544615088
184544620521
184544625220
184544629493
184544635108
184544640662
184544646277
184544650428
184544656165
184544659583
184544666663
184544672034
184544676795
184544681311
184544686499
184544692664
184544697425
184544702124
184544707373
184544713843
184544718787
184544722815
184544727515
184544733191
184544737158
184544743750
184544747962
184544753882
184544759741
184544763953
184544767310
184544775244
184544778662
184544785498
184544789099
184544796607
184544801917
184544806555
184544811255
184544816809
184544822913
184544828162
184544834509
184544841223
184544846045
184544851477
184544856726
184544861182
184544865332
184544871619
184544877783
184544882727
184544888830
184544892737
184544899573
184544903418
184544909765
184544913122
184544919653
184544925757
184544931616
184544937170
184544941687
184544946203
184544952307
184544957190
184544962500
184544969336
184544975561
184544980200
184544984961
184544988867
184544995092
184544999182
184545004980
184545009314
184545013159
184545020483
184545025793
184545031164
184545036291
184545040075
184545043127
184545049658
184545054785
184545061254
184545064855
184545071020
184545074682
184545080602
184545083898
184545089208
184545093664
184545101049
184545104711
184545109594
184545113683
184545119360
184545123754
184545128942
184545133947
184545139623
184545144262
184545150732
184545155553
184545160131
184545164465
184545169164
184545174169
184545180334
184545184850
184545189367
184545194921
184545204259
184545211217
184545220189
184545229528
184545238866
184545247167
184545260106
184545269140
184545280004
184545289769
184545298497
184545305822
184545314122
184545322911
184545331273
184545339818
184545349279
184545354405
184545358373
184545364110
184545368077
184545373631
184545377538
184545383580
184545387731
184545393956
184545398168
184545402562
184545407872
184545412755
184545416661
184545423192
184545428075
184545432957
184545437901
184545442845
184545445836
184545452000
184545457005
184545462315
184545468175
184545471959
184545477269
184545482396
184545486790
184545492222
184545496678
184545503148
184545508702
184545514378
184545519078
184545524998
184545530369
184545535008
184545539097
184545547459
184545552952
184545558018
184545564549
184545569005
184545574498
184545580235
184545583836
184545590916
184545597203
184545602757
184545607701
184545612400
184545617771
184545622227
184545629124
184545636021
184545640843
184545645420
184545651402
184545657200
184545663059
184545666783
184545674107
184545679844
184545685459
184545691013
184545696995
184545702610
184545707615
184545711155
184545718723
184545722446
184545729038
184545733067
184545740025
184545743748
184545751804
184545755711
184545763401
184545768772
184545774753
184545778538
184545786777
184545790073
184545796360
184545801121
184545808018
184545811558
184545818088
184545823704
184545830112
184545834934
184545841831
184545846531
184545851597
184545856418
184545861789
184545867222
184545873264
184545879612
184545884311
184545888645
184545894931
184545899143
184545902378
184545910862
184545914280
184545922336
184545926364
184545931858
184545937290
184545942783
184545948154
184545952060
184545958713
184545966098
184545971347
184545975376
184545980686
184545986972
184545991672
184545998447
184546003391
184546008395
184546012607
184546018771
184546023105
184546027133
184546034091
184546037936
184546044223
184546050815
184546055514
184546061008
184546065951
184546070529
184546076999
184546081760
184546086642
184546092563
184546098605
184546104098
184546109836
184546115695
184546120395
184546125277
184546131320
184546136325
184546142428
184546148593
184546150912
184546159457
184546166476
184546171420
184546177157
184546182589
184546188937
184546195407
184546201449
184546206820
184546213229
184546218295
184546224276
184546227999
184546234347
184546239291
184546245761
184546251803
184546257174
184546262179
184546267367
184546272982
184546278353
184546284274
184546289034
184546295016
184546299960
184546306551
184546311129
184546318575
184546321322
184546329440
184546334383
184546340121
184546343783
184546350619
184546354647
184546361727
184546366061
184546372164
184546377413
184546383272
184546387179
184546394991
184546400973
184546405611
184546411471
184546416109
184546419283
184546427218
184546430575
184546438082
184546441439
184546447542
184546452791
184546458651
184546463350
184546470491
184546475130
184546480074
184546484346
184546489901
184546497103
184546501986
184546508150
184546512239
184546517916
184546522982
184546528719
184546532808
184546539034
184546542879
184546550569
184546553865
184546560884
184546566316
184546571687
184546575166
184546581819
184546589143
184546595125
184546600435
184546606966
184546610689
184546616853
184546621492
184546626070
184546633089
184546638765
184546643404
184546649324
184546653047
184546660677
184546666475
184546672578
184546676912
184546683198
184546687105
184546694612
184546699129
184546705415
184546709993
184546716463
184546720552
184546727022
184546732698
184546739106
184546744600
184546751069
184546756929
184546762544
184546768770
184546774263
184546779939
184546786226
184546791841
184546798738
184546803743
184546808625
184546814668
184546819673
184546826142
184546830964
184546837983
184546842195
184546848115
184546854280
184546859101
184546864655
184546870332
184546875337
184546882600
184546887910
184546895234
184546901215
184546905793
184546911713
184546916108
184546923432
184546928620
184546933686
184546939851
184546946320
184546951752
184546956208
184546961457
184546967377
184546972565
184546977143
184546980744
184546989716
184546995515
184547000031
184547006562
184547011139
184547018647
184547022919
184547026948
184547034577
184547039582
184547045502
184547050690
184547054902
184547058136
184547065827
184547071137
184547076813
184547084748
184547089447
184547094818
184547100067
184547104218
184547111115
184547114472
184547120087
184547126679
184547131501
184547137360
184547141632
184547147675
184547152619
184547156586
184547160614
184547167877
184547173737
184547178009
184547181488
184547189240
184547193146
184547198395
184547203156
184547210053
184547216522
184547221100
184547226532
184547232941
184547236786
184547243439
184547248077
184547253448
184547259979
184547265167
184547269867
184547275848
184547279327
184547285553
184547290985
184547296600
184547302399
184547309234
184547314300
184547319610
184547324493
184547330841
184547335541
184547341217
184547346405
184547352997
184547358001
184547364410
184547370575
184547377227
184547381195
184547386932
184547392974
184547399322
184547405059
184547410919
184547416534
184547422271
184547428009
184547434112
184547438384
184547443633
184547449920
184547455779
184547460235
184547465972
184547472625
184547477203
184547483917
184547488311
184547491851
184547499725
184547504058
184547509795
184547513763
184547522369
184547524749
184547532867
184547537749
184547544524
184547551055
184547556060
184547562408
184547566802
184547575225
184547584685
184547590606
184547601592
184547607757
184547620025
184547630217
184547637420
184547648650
184547657866
184547666106
184547671843
184547681365
184547687346
184547699126
184547705718
184547713042
184547722319
184547728850
184547733245
184547739043
184547743437
184547748686
184547753325
184547758757
184547764311
184547769377
184547773894
184547778655
184547784331
184547789519
184547793974
184547799040
184547804594
184547809843
184547814238
184547819182
184547824858
184547829680
184547833952
184547839629
184547843901
184547848723
184547855315
184547859831
184547864043
184547871123
184547876372
184547880278
184547886687
184547892424
184547896330
184547902250
184547907255
184547911406
184547917204
184547922270
184547924956
184547931059
184547933561
184547939909
184547944487
184547949186
184547955046
184547961149
184547967070
184547971220
184547974394
184547980253
184547984526
184547989592
184547998442
184548003385
184548008818
184548012724
184548017546
184548022917
184548026029
184548031340
184548037931
184548044828
184548050138
184548054350
184548058561
184548064543
184548068876
184548074064
184548080839
184548084867
184548090910
184548096220
184548101103
184548105070
184548109220
184548114896
184548121854
184548128446
184548133573
184548137540
184548141874
184548147245
184548152677
184548157011
184548161710
184548167692
184548172147
184548177824
184548182096
184548186674
184548192289
184548197050
184548203580
184548210782
184548215177
184548220243
184548225126
184548230192
184548234037
184548239652
184548244535
184548250821
184548255216
184548261319
184548265287
184548269010
184548275235
184548278714
184548285550
184548290311
184548296598
184548300077
184548306058
184548309049
184548315274
184548320157
184548324796
184548332120
184548337979
184548342923
184548347135
184548351529
184548356290
184548361722
184548367215
184548372220
184548378018
184548382291
184548388089
184548392301
184548396573
184548402371
184548406400
184548413785
184548418057
184548423489
184548428677
184548432889
184548437161
184548442227
184548447598
184548451871
184548456692
184548462247
184548467190
184548472378
184548477139
184548482327
184548487454
184548492276
184548498929
184548504422
184548506192
184548513272
184548516263
184548522732
184548527859
184548533413
184548536953
184548543545
184548548489
184548553555
184548556729
184548562161
184548566311
184548572964
184548579922
184548584683
184548589138
184548594326
184548598721
184548603543
184548607388
184548613125
184548618496
184548624478
184548628506
184548633877
184548637844
184548643582
184548648709
184548653286
184548659084
184548664150
184548670193
184548675076
184548679043
184548685085
184548688931
184548693997
184548698452
184548704617
184548710842
184548715725
184548719753
184548724575
184548730251
184548733242
184548739651
184548744533
184548750027
184548755032
184548759365
184548763698
184548769253
184548773586
184548778469
184548783840
184548789516
184548793850
184548798855
184548804409
184548808498
184548813930
184548818020
184548822292
184548827785
184548833156
184548838100
184548843105
184548848293
184548852199
184548857143
184548863491
184548869899
184548873928
184548879177
184548884365
184548888027
184548892971
184548897914
184548902126
184548908046
184548914638
184548919643
184548923793
184548928005
184548933315
184548937770
184548944179
184548950282
184548955898
184548960658
184548966396
184548970790
184548975551
184548981044
184548985500
184548993800
184548998317
184549002101
184549008144
184549012233
184549017482
184549021449
184549027248
184549031398
184549036830
184549042201
184549046168
184549051540
184549057033
184549060878
184549065700
184549070949
184549076869
184549082728
184549087489
184549092128
184549095363
184549100856
184549105311
184549111354
184549116176
184549121608
184549126063
184549131923
184549136073
184549140956
184549144801
184549150538
184549156276
184549162867
184549166896
184549171656
184549176905
184549182093
184549185939
184549189723
184549196864
184549200526
184549207057
184549210841
184549216639
184549219569
184549226222
184549231166
184549236231
184549243495
184549248805
184549252528
184549258204
184549261805
184549267726
184549272669
184549276576
184549285182
184549289759
184549294459
184549299769
184549304102
184549309351
184549313746
184549319727
184549324427
184549329432
184549333704
184549339442
184549343836
184549348536
184549353968
184549358973
184549363306
184549368799
184549373011
184549378443
184549383509
184549388087
184549393275
184549397913
184549403345
184549407129
184549412562
184549418360
184549422266
184549426661
184549432093
184549436548
184549441309
184549449305
184549453394
184549457605
184549463526
184549467859
184549472620
184549476587
184549481714
184549488001
184549492517
184549498011
184549502039
184549507166
184549511499
184549516687
184549520166
184549526209
184549532923
184549538355
184549542200
184549548059
184549551111
184549556421
184549560694
184549566492
184549575220
184549579553
184549584375
184549588831
184549593164
184549599023
184549603418
184549607568
184549613855
184549618799
184549623010
184549627954
184549633447
184549637598
184549643213
184549647058
184549653711
184549658777
184549664392
184549669702
184549673730
184549679285
184549683130
184549686243
184549693139
184549698327
184549703943
184549709009
184549712793
184549717614
184549723108
184549728113
184549732141
184549738061
184549744287
184549748376
184549752954
184549757287
184549762963
184549767236
184549771814
184549777856
184549783044
184549787011
184549793664
184549800195
184549809106
184549815454
184549825219
184549832727
184549840478
