51225790370
51225796290
51225803065
51225809108
51225814784
51225820216
51225827418
51225833644
51225839137
51225845057
51225849635
51225857020
51225862880
51225870143
51225876124
51225880946
51225887538
51225893702
51225900477
51225908351
51225916102
51225923670
51225928980
51225936732
51225943995
51225950953
51225956202
51225964137
51225970240
51225976344
51225982813
51225991053
51225997279
51226004176
51226009730
51226017603
51226023218
51226029871
51226038172
51226043970
51226051966
51226058192
51226064356
51226070948
51226078699
51226087000
51226092432
51226099451
51226105555
51226112269
51226120142
51226128565
51226134851
51226142969
51226149195
51226156702
51226163111
51226170374
51226177393
51226185449
51226192957
51226199243
51226206018
51226213281
51226220850
51226227564
51226235315
51226241968
51226248377
51226257654
51226264307
51226271265
51226279626
51226286646
51226293237
51226298730
51226306787
51226314477
51226321313
51226329797
51226336694
51226343713
51226349328
51226356042
51226363611
51226368982
51226376916
51226384179
51226392419
51226397973
51226404504
51226409631
51226419641
51226427087
51226433984
51226440210
51226447900
51226453210
51226461145
51226468469
51226475488
51226483239
51226490624
51226495996
51226502831
51226508264
51226516015
51226524804
51226531335
51226537682
51226544640
51226551171
51226557580
51226564294
51226572106
51226579308
51226586022
51226594262
51226600426
51226605492
51226614526
51226621361
51226629662
51226636559
51226645409
51226653405
51226660485
51226667931
51226677270
51226685326
51226692406
51226700829
51226709679
51226719140
51226727501
51226737023
51226745263
51226755577
51226766869
51226773949
51226784264
51226792687
51226801781
51226811119
51226819359
51226827110
51226833702
51226842491
51226850060
51226860069
51226868431
51226878563
51226886925
51226893394
51226902061
51226909874
51226916649
51226927452
51226935509
51226941795
51226950523
51226960289
51226968834
51226974022
51226982689
51226990379
51226998619
51227005089
51227014122
51227021324
51227031089
51227037864
51227045738
51227052391
51227061363
51227067894
51227074790
51227084434
51227093406
51227100120
51227107810
51227114341
51227123680
51227130515
51227139427
51227147117
51227155051
51227164207
51227170432
51227178916
51227186973
51227195335
51227202842
51227210044
51227220542
51227227439
51227236106
51227242637
51227251304
51227259910
51227264976
51227275474
51227281516
51227293235
51227301169
51227309348
51227314719
51227323447
51227330527
51227339988
51227347861
51227355796
51227364951
51227372885
51227379904
51227387290
51227395346
51227402732
51227412375
51227421103
51227428000
51227437094
51227445395
51227451682
51227460288
51227465964
51227474997
51227486533
51227493002
51227498068
51227509909
51227516012
51227525473
51227530234
51227540243
51227548910
51227558005
51227562704
51227572836
51227579977
51227588705
51227595541
51227602987
51227613485
51227621542
51227628866
51227637106
51227644613
51227655172
51227662252
51227669210
51227678915
51227686483
51227696005
51227703695
51227709921
51227717855
51227725424
51227732259
51227739462
51227748373
51227755819
51227762106
51227769796
51227776571
51227783590
51227791158
51227798482
51227807455
51227814657
51227820943
51227828207
51227835592
51227841878
51227850545
51227859701
51227866964
51227874471
51227882222
51227889364
51227897725
51227904012
51227912862
51227921468
51227931478
51227939473
51227946675
51227954366
51227960286
51227969442
51227977986
51227986836
51227993367
51228001058
51228009969
51228017720
51228026082
51228034444
51228043111
51228050740
51228056599
51228064595
51228072774
51228081563
51228090230
51228099995
51228108052
51228116963
51228125386
51228131917
51228142110
51228148701
51228158162
51228164937
51228171467
51228177327
51228182454
51228187703
51228193684
51228197651
51228206013
51228211567
51228216694
51228219624
51228226643
51228234089
51228240132
51228246235
51228252217
51228258381
51228263752
51228269490
51228275105
51228280720
51228285725
51228291767
51228297260
51228301899
51228307881
51228312946
51228320027
51228325215
51228330708
51228337360
51228340473
51228346821
51228353596
51228359150
51228365437
51228370441
51228375263
51228380512
51228386677
51228392597
51228397785
51228403278
51228408222
51228413532
51228418781
51228423908
51228428669
51228435383
51228439899
51228444538
51228450214
51228454059
51228460773
51228465534
51228470722
51228476520
51228482136
51228485798
51228492634
51228496906
51228502094
51228508320
51228511676
51228516986
51228521808
51228529071
51228534381
51228539997
51228544208
51228549823
51228554035
51228560871
51228566059
51228570758
51228576984
51228582172
51228587238
51228592792
51228599018
51228603290
51228609027
51228614337
51228620502
51228626972
51228632098
51228637836
51228641559
51228648639
51228655048
51228660053
51228667377
51228672321
51228677020
51228682025
51228687946
51228693500
51228698932
51228704791
51228709552
51228714618
51228719745
51228724750
51228730731
51228737567
51228741778
51228745746
51228751605
51228757281
51228762958
51228769488
51228773761
51228780414
51228785602
51228792498
51228797870
51228803607
51228807940
51228814776
51228817767
51228824420
51228829242
51228836200
51228841510
51228846087
51228851092
51228855792
51228861834
51228866961
51228872698
51228878314
51228882952
51228890032
51228894244
51228900225
51228904925
51228910174
51228916033
51228921526
51228926531
51228931658
51228939166
51228943560
51228949725
51228953204
51228959551
51228964434
51228969866
51228976824
51228981280
51228986163
51228992754
51228997088
51229002337
51229008684
51229013628
51229019854
51229024248
51229028948
51229034746
51229041643
51229046404
51229051836
51229056353
51229062029
51229066240
51229071245
51229077227
51229081987
51229088274
51229093889
51229098894
51229104509
51229110918
51229115252
51229121660
51229125933
51229132463
51229137041
51229142290
51229147356
51229153093
51229157488
51229164080
51229168108
51229174883
51229179277
51229185442
51229191789
51229196428
51229200517
51229205156
51229209917
51229215532
51229220293
51229225786
51229231462
51229235491
51229241045
51229245866
51229251543
51229257646
51229262407
51229268022
51229273210
51229278581
51229284257
51229288774
51229294755
51229300249
51229304399
51229308977
51229313371
51229318986
51229325456
51229329729
51229334733
51229339189
51229344682
51229348710
51229355302
51229360856
51229364702
51229371110
51229376054
51229379777
51229386186
51229391923
51229396074
51229401811
51229406266
51229411576
51229417070
51229422929
51229428422
51229432328
51229438249
51229442216
51229447831
51229452714
51229457963
51229463945
51229468217
51229473039
51229477555
51229484452
51229489701
51229496110
51229501115
51229507157
51229512650
51229517716
51229525041
51229529679
51229534989
51229539384
51229545182
51229549943
51229557328
51229562577
51229567338
51229572709
51229577836
51229584244
51229590836
51229596085
51229601212
51229607438
51229611954
51229616715
51229620560
51229627091
51229632706
51229637406
51229642289
51229646317
51229653153
51229659806
51229663163
51229669938
51229675248
51229678910
51229686478
51229691727
51229695878
51229702225
51229706681
51229712662
51229717057
51229720902
51229727555
51229733475
51229738480
51229743363
51229747757
51229752701
51229758316
51229761856
51229768875
51229774369
51229778885
51229783463
51229789322
51229796219
51229801468
51229807266
51229811295
51229816727
51229821732
51229826859
51229832901
51229837601
51229842789
51229848282
51229853897
51229860245
51229864944
51229870010
51229875748
51229881546
51229886185
51229891617
51229897537
51229903213
51229907425
51229914078
51229918594
51229923843
51229928787
51229934402
51229940689
51229945267
51229950760
51229955154
51229962478
51229967300
51229974197
51229978775
51229982864
51229988784
51229992508
51229999038
51230005203
51230010147
51230016372
51230022171
51230026199
51230033706
51230038955
51230043838
51230048599
51230053176
51230059524
51230064590
51230070571
51230074783
51230080032
51230085098
51230090774
51230095779
51230102126
51230107314
51230111709
51230118667
51230123367
51230128555
51230133865
51230139724
51230143996
51230150344
51230153762
51230160415
51230166579
51230172195
51230176833
51230183059
51230187820
51230191787
51230198623
51230202956
51230208266
51230214919
51230219924
51230225844
51230229140
51230235793
51230241286
51230246840
51230252151
51230256057
51230262404
51230269179
51230273757
51230280227
51230284499
51230289260
51230295180
51230299697
51230307936
51230312209
51230317702
51230324111
51230328688
51230334609
51230339614
51230344924
51230349684
51230355361
51230360793
51230364943
51230371535
51230377089
51230382765
51230386733
51230392897
51230398696
51230404677
51230409987
51230415175
51230419325
51230424880
51230428847
51230434340
51230441664
51230446425
51230452834
51230458144
51230462355
51230468398
51230471877
51230478529
51230484206
51230489943
51230494215
51230499525
51230504835
51230509779
51230515211
51230519789
51230525709
51230530897
51230536024
51230541395
51230546889
51230552015
51230557570
51230562452
51230566481
51230573683
51230579969
51230584913
51230590406
51230596083
51230601820
51230608229
51230615187
51230619886
51230625074
51230630751
51230637831
51230643385
51230648512
51230653456
51230660475
51230665052
51230670729
51230676527
51230683302
51230687330
51230692457
51230698560
51230702589
51230707838
51230713331
51230718824
51230724745
51230730909
51230735670
51230740614
51230746473
51230752515
51230757520
51230762464
51230766920
51230772779
51230778822
51230783460
51230788892
51230795118
51230799451
51230803907
51230810316
51230814893
51230821607
51230826612
51230832227
51230838575
51230844312
51230848951
51230855298
51230863172
51230868299
51230873670
51230878431
51230883619
51230888685
51230893934
51230899610
51230905713
51230909558
51230915418
51230920118
51230925794
51230930860
51230937635
51230942090
51230947705
51230952649
51230958386
51230962842
51230970471
51230976514
51230980420
51230985730
51230991895
51230996778
51231001843
51231007214
51231013318
51231018140
51231023572
51231029736
51231034131
51231040967
51231045483
51231051465
51231057874
51231065320
51231070020
51231076062
51231081067
51231087537
51231093823
51231099621
51231104748
51231110913
51231115063
51231122204
51231126965
51231132092
51231138135
51231143933
51231149548
51231155346
51231159619
51231167187
51231171826
51231177197
51231184094
51231190381
51231195080
51231200390
51231205456
51231210888
51231219128
51231224560
51231229748
51231236218
51231240979
51231247143
51231252453
51231258984
51231264294
51231269604
51231275585
51231280041
51231286267
51231292248
51231297863
51231303906
51231308788
51231313915
51231320080
51231326000
51231332775
51231337292
51231341930
51231348522
51231354076
51231359753
51231365673
51231371349
51231376354
51231383007
51231386913
51231392589
51231398083
51231405285
51231410351
51231415661
51231421886
51231426952
51231431835
51231438732
51231441540
51231449413
51231454235
51231459911
51231464855
51231469982
51231476818
51231484081
51231488353
51231494701
51231499828
51231505016
51231511303
51231515697
51231522289
51231526928
51231532543
51231537853
51231544445
51231549571
51231554882
51231560680
51231566234
51231572154
51231577953
51231582836
51231588390
51231594554
51231599498
51231605052
51231609874
51231614452
51231619823
51231626354
51231630260
51231637157
51231642223
51231649059
51231654002
51231658336
51231664806
51231669871
51231675365
51231680736
51231686473
51231691173
51231697276
51231703197
51231707957
51231713512
51231718883
51231724864
51231730174
51231736094
51231740611
51231746776
51231753184
51231757579
51231762828
51231769420
51231772471
51231779002
51231783702
51231789683
51231795359
51231801402
51231807078
51231812876
51231819102
51231823130
51231829783
51231834239
51231841624
51231847911
51231852854
51231858653
51231864817
51231869578
51231877146
51231882884
51231886912
51231893015
51231900828
51231905711
51231911204
51231917002
51231922495
51231928111
51231932139
51231938609
51231943674
51231949290
51231955088
51231959605
51231964609
51231971506
51231975352
51231981516
51231986948
51231992136
51231997507
51232003306
51232008982
51232013254
51232018687
51232023874
51232030100
51232035898
51232043223
51232048288
51232053232
51232058725
51232062632
51232069162
51232074717
51232079416
51232086313
51232091135
51232097605
51232101999
51232107248
51232113657
51232119394
51232124399
51232130503
51232135202
51232141001
51232147043
51232153818
51232159006
51232164133
51232169931
51232175302
51232179941
51232187387
51232192392
51232196420
51232201914
51232208200
51232214487
51232220346
51232226267
51232230356
51232237619
51232241647
51232247629
51232254221
51232259714
51232264474
51232272043
51232275949
51232282663
51232288278
51232293344
51232299875
51232304941
51232309579
51232315439
51232319711
51232327035
51232331674
51232336862
51232342233
51232346994
51232352487
51232358896
51232363107
51232369149
51232373544
51232378976
51232385690
51232389901
51232396615
51232402536
51232408395
51232415170
51232421945
51232425851
51232433175
51232437509
51232443551
51232449472
51232454110
51232461007
51232465707
51232470529
51232477242
51232481271
51232488473
51232496224
51232501534
51232506844
51232513802
51232519845
51232525460
51232530709
51232535592
51232542489
51232547555
51232553292
51232559212
51232565316
51232569710
51232576363
51232579720
51232586861
51232592965
51232596688
51232603036
51232609383
51232614571
51232620675
51232626473
51232632760
51232639840
51232645455
51232650399
51232657235
51232662301
51232667244
51232673531
51232678353
51232686104
51232692025
51232697091
51232701973
51232707711
51232714913
51232721688
51232725777
51232731514
51232737557
51232742379
51232747566
51232753731
51232758064
51232764046
51232770394
51232774666
51232780892
51232785164
51232791451
51232797066
51232801705
51232808113
51232813423
51232817391
51232824410
51232828499
51232834236
51232840584
51232844429
51232850960
51232857002
51232862862
51232868294
51232873238
51232877449
51232882271
51232888374
51232892158
51232898689
51232903023
51232909798
51232916694
51232922371
51232927559
51232933296
51232938911
51232943367
51232949470
51232953621
51232960151
51232965522
51232970894
51232977363
51232982490
51232987251
51232992561
51232998848
51233004585
51233010322
51233014595
51233020820
51233026374
51233031135
51233038032
51233041938
51233047248
51233053718
51233058235
51233062324
51233069282
51233072883
51233078987
51233084358
51233088386
51233095222
51233099189
51233105110
51233109077
51233114143
51233119453
51233125129
51233130927
51233136848
51233139777
51233146247
51233151618
51233156318
51233161262
51233166816
51233172431
51233177924
51233182868
51233186835
51233191901
51233197761
51233202766
51233209601
51233214850
51233219062
51233224067
51233229194
51233233954
51233238898
51233245124
51233252143
51233255317
51233262641
51233267524
51233272467
51233277167
51233282233
51233287848
51233293647
51233297980
51233303290
51233308417
51233312262
51233318000
51233325446
51233330634
51233335150
51233339972
51233344977
51233349799
51233355536
51233359320
51233365424
51233371039
51233375800
51233379767
51233385626
51233389960
51233396246
51233401862
51233407050
51233411810
51233416571
51233422247
51233425909
51233431830
51233438178
51233443243
51233449164
51233453925
51233459967
51233463934
51233470648
51233475653
51233481085
51233487555
51233492804
51233497748
51233501349
51233507635
51233512030
51233518316
51233523321
51233528265
51233534369
51233539801
51233544317
51233550238
51233554876
51233559759
51233565435
51233570868
51233575689
51233581976
51233586493
51233592108
51233598455
51233603216
51233607977
51233612677
51233617742
51233622930
51233628424
51233633856
51233639166
51233644720
51233650152
51233654363
51233668707
51233677496
51233682745
51233687628
51233692816
51233698675
51233703924
51233709173
51233715093
51233720464
51233725958
51233732183
51233737554
51233742742
51233749517
51233754583
51233759283
51233765386
51233771429
51233775945
51233781316
51233787115
51233792303
51233798711
51233802862
51233808904
51233814947
51233820012
51233825323
51233829961
51233837041
51233841802
51233846929
51233852788
51233858037
51233863897
51233870366
51233874700
51233881292
51233887334
51233893438
51233898931
51233903875
51233910161
51233914678
51233918767
51233925481
51233931035
51233935918
51233941838
51233946233
51233952580
51233957829
51233964116
51233969975
51233976201
51233980718
51233985356
51233990544
51233995915
51234001592
51234007939
51234012517
51234017766
51234021916
51234028386
51234033879
51234039006
51234044011
51234050298
51234054875
51234060368
51234065007
51234071294
51234076420
51234083012
51234087651
51234092534
51234097844
51234103459
51234109013
51234114201
51234119450
51234125493
51234128300
51234135563
51234140263
51234145146
51234149907
51234155034
51234161015
51234164738
51234170353
51234174260
51234180241
51234187321
51234192021
51234197026
51234202397
51234207646
51234211613
51234217472
51234223515
51234228337
51234233647
51234239567
51234244328
51234249027
51234255558
51234259770
51234268192
51234273136
51234277653
51234284001
51234288761
51234293888
51234298832
51234304569
51234309635
51234315311
51234320683
51234325504
51234330997
51234336185
51234340641
51234349064
51234354008
51234358402
51234365604
51234371342
51234376224
51234381901
51234388309
51234392338
51234397953
51234403507
51234410099
51234416263
51234420292
51234425907
51234431034
51234436222
51234443180
51234448917
51234453739
51234460270
51234464359
51234471073
51234477665
51234482669
51234488102
51234493839
51234498294
51234504398
51234509037
51234515995
51234521060
51234527286
51234532108
51234538639
51234544315
51234550662
51234555240
51234561649
51234567081
51234571414
51234578067
51234583499
51234589298
51234595279
51234600406
51234606448
51234613040
51234619083
51234626163
51234631168
51234637271
51234643375
51234649234
51234654300
51234660220
51234664310
51234669742
51234673587
51234679629
51234685550
51234690982
51234695926
51234701114
51234706973
51234712710
51234717898
51234722781
51234728763
51234735537
51234740359
51234745547
51234751529
51234758304
51234763858
51234769473
51234774905
51234780276
51234786746
51234790774
51234796817
51234802981
51234807864
51234813601
51234818972
51234824221
51234830386
51234835025
51234840762
51234845767
51234851443
51234857241
51234861758
51234867129
51234873538
51234877566
51234884219
51234889346
51234894412
51234899783
51234906191
51234910830
51234916079
51234921328
51234927187
51234932314
51234937930
51234944277
51234948733
51234953982
51234960696
51234965761
51234970644
51234977907
51234982424
51234987246
51234992434
51234997988
51235003969
51235009829
51235015810
51235019777
51235026735
51235031984
51235037661
51235042788
51235049929
51235054689
51235060305
51235064211
51235070192
51235075197
51235080629
51235086184
51235091921
51235098024
51235102541
51235108095
51235113405
51235119509
51235124819
51235130434
51235135073
51235140138
51235145754
51235151064
51235157228
51235161379
51235168093
51235172792
51235177980
51235183534
51235189272
51235194215
51235200441
51235205446
51235210878
51235215578
51235220949
51235226686
51235232545
51235237794
51235244875
51235250734
51235256715
51235262147
51235267274
51235274171
51235280458
51235285402
51235291688
51235297487
51235302919
51235308351
51235314393
51235320192
51235325746
51235331117
51235336610
51235342653
51235348573
51235353944
51235359071
51235365419
51235369813
51235375184
51235379945
51235386232
51235390260
51235398866
51235404237
51235408387
51235414735
51235419557
51235424623
51235430665
51235435243
51235441285
51235447572
51235453004
51235459901
51235464112
51235470948
51235475526
51235483338
51235488770
51235492799
51235497926
51235503114
51235510194
51235515015
51235520387
51235526246
51235532044
51235537354
51235545167
51235551575
51235556885
51235562928
51235569459
51235575623
51235580018
51235586732
51235591553
51235598389
51235604432
51235609131
51235615723
51235619629
51235625855
51235632447
51235638062
51235644349
51235650391
51235656067
51235661927
51235667420
51235672120
51235678101
51235683411
51235688782
51235694764
51235701844
51235706055
51235712403
51235717224
51235724121
51235728272
51235735352
51235739258
51235745178
51235751343
51235756470
51235761353
51235765564
51235772095
51235777222
51235782227
51235788086
51235794495
51235800232
51235805542
51235808716
51235816406
51235822083
51235826538
51235831909
51235838379
51235843689
51235848877
51235855347
51235859985
51235865356
51235871948
51235876892
51235882141
51235887024
51235893860
51235900696
51235906616
51235911499
51235915527
51235923034
51235928344
51235933593
51235939453
51235946472
51235950683
51235957885
51235964233
51235968933
51235975219
51235981628
51235987182
51235993042
51235999023
51236004272
51236009643
51236014953
51236019958
51236026184
51236032104
51236036682
51236041870
51236048522
51236053954
51236059753
51236065368
51236070617
51236076843
51236081909
51236086791
51236094177
51236098876
51236103454
51236109008
51236114257
51236120483
51236125915
51236130675
51236136840
51236143432
51236147948
51236153197
51236158752
51236164855
51236170775
51236174560
51236180297
51236186584
51236191833
51236197387
51236201781
51236208129
51236213317
51236218444
51236222960
51236228515
51236233153
51236239806
51236243773
51236250182
51236255980
51236261351
51236266723
51236272460
51236277465
51236282653
51236289122
51236295165
51236301818
51236306761
51236312255
51236318785
51236323424
51236329894
51236336730
51236341429
51236347350
51236353942
51236359129
51236363951
51236370421
51236375670
51236381285
51236386229
51236392455
51236397582
51236402037
51236409422
51236414061
51236419615
51236424254
51236429747
51236436156
51236440184
51236445982
51236451903
51236457030
51236462401
51236467467
51236473875
51236478636
51236486265
51236490355
51236496397
51236501158
51236507261
51236513243
51236518675
51236523497
51236528319
51236534300
51236539854
51236545469
51236552671
51236556334
51236562437
51236568785
51236573545
51236579344
51236585508
51236591124
51236596373
51236602110
51236606626
51236611814
51236618467
51236623777
51236629087
51236634153
51236638548
51236644590
51236651304
51236657163
51236662473
51236668211
51236672178
51236678220
51236682066
51236688352
51236694822
51236699888
51236705320
51236709226
51236714475
51236719663
51236724912
51236731016
51236736143
51236741392
51236746946
51236751157
51236755979
51236762144
51236767698
51236772886
51236777769
51236783079
51236788572
51236793394
51236798826
51236803892
51236809446
51236815061
51236820920
51236825681
51236831540
51236838193
51236842771
51236849912
51236854673
51236860898
51236866880
51236872373
51236879270
51236884336
51236889951
51236895078
51236899411
51236906186
51236911557
51236917111
51236923947
51236931211
51236935239
51236940610
51236947690
51236952573
51236957578
51236963376
51236968137
51236973203
51236978696
51236984738
51236989743
51236994931
51237000424
51237007382
51237012814
51237017819
51237023557
51237028806
51237033017
51237040036
51237045712
51237051511
51237057370
51237063412
51237069394
51237075925
51237081845
51237088071
51237094601
51237100278
51237105649
51237111630
51237117550
51237122555
51237128232
51237133481
51237138669
51237144284
51237149289
51237154110
51237159848
51237165524
51237171627
51237176388
51237182309
51237187008
51237192990
51237198788
51237203610
51237208676
51237214718
51237219052
51237226132
51237231747
51237236935
51237242733
51237248165
51237252987
51237259274
51237266659
51237272335
51237277096
51237281246
51237288632
51237295101
51237299557
51237305294
51237311825
51237318356
51237324764
51237330196
51237335079
51237341244
51237347408
51237351803
51237357418
51237362789
51237369259
51237373531
51237379757
51237384884
51237389278
51237393673
51237400203
51237406429
51237412472
51237417721
51237422237
51237428096
51237433590
51237439449
51237444393
51237450679
51237457027
51237462520
51237468135
51237471981
51237477840
51237484249
51237489254
51237494442
51237499874
51237505306
51237510921
51237517391
51237520748
51237528621
51237533077
51237537898
51237543086
51237548458
51237554805
51237559688
51237564937
51237569515
51237574458
51237579097
51237584041
51237590511
51237595760
51237600703
51237604305
51237610225
51237615474
51237620174
51237625606
51237631770
51237636653
51237641719
51237646480
51237651301
51237656367
51237661372
51237666621
51237672114
51237676753
51237681636
51237686641
51237691401
51237696773
51237703425
51237708980
51237712214
51237719661
51237724605
51237729731
51237734187
51237740352
51237745601
51237750727
51237755732
51237760798
51237765681
51237770808
51237777217
51237781733
51237787165
51237793513
51237796260
51237803340
51237806391
51237812800
51237819392
51237823542
51237828852
51237834101
51237839289
51237844477
51237848689
51237855403
51237860590
51237866084
51237870844
51237876521
51237881342
51237886042
51237892451
51237898493
51237902888
51237907893
51237912043
51237918024
51237922236
51237928522
51237934138
51237939509
51237944941
51237949824
51237955439
51237959162
51237965266
51237971796
51237977411
51237981989
51237989008
51237994623
51237999933
51238006342
51238011042
51238016657
51238020685
51238027948
51238033320
51238038508
51238043634
51238049921
51238054682
51238059259
51238065790
51238070734
51238077204
51238081537
51238086847
51238093195
51238098627
51238102289
51238107843
51238113031
51238118280
51238122492
51238128717
51238134210
51238139520
51238144403
51238147211
51238153558
51238159967
51238165094
51238170770
51238176325
51238180170
51238185846
51238191950
51238196161
51238202631
51238208124
51238213495
51238219293
51238224420
51238230096
51238234186
51238240655
51238246759
51238252069
51238256891
51238261651
51238266717
51238271661
51238277521
51238281305
51238287591
51238293817
51238300226
51238304010
51238311090
51238316705
51238322809
51238329034
51238333490
51238340020
51238345269
51238350457
51238355584
51238362176
51238366937
51238372247
51238377557
51238382867
51238387994
51238393243
51238397393
51238402154
51238407891
51238412042
51238417596
51238423516
51238428399
51238433038
51238438226
51238444207
51238449273
51238454095
51238458856
51238464410
51238468133
51238473565
51238479974
51238484795
51238490167
51238495477
51238499444
51238505181
51238509881
51238514458
51238518975
51238525689
51238530572
51238535577
51238541619
51238545220
51238551140
51238556573
51238561211
51238566460
51238570855
51238576226
51238580926
51238586236
51238591729
51238596795
51238602532
51238607659
51238612664
51238617669
51238622612
51238628228
51238632195
51238639275
51238643853
51238648858
51238654168
51238659905
51238664055
51238670403
51238676384
51238681511
51238686943
51238691826
51238696282
51238701165
51238707329
51238711174
51238717522
51238721977
51238728081
51238732659
51238737786
51238742363
51238749382
51238755486
51238759697
51238765251
51238770561
51238775200
51238780571
51238786430
51238791924
51238797295
51238802361
51238807365
51238812736
51238817680
51238823296
51238828850
51238834221
51238838493
51238844231
51238849602
51238854851
51238859062
51238865288
51238870781
51238877006
51238881767
51238886650
51238892021
51238896843
51238901481
51238906608
51238912651
51238917045
51238922294
51238926628
51238933036
51238937187
51238942802
51238948356
51238953361
51238957939
51238963066
51238967704
51238973442
51238977043
51238983390
51238989067
51238994621
51239000114
51239004386
51239009880
51239013786
51239019767
51239024467
51239029655
51239033866
51239040092
51239044731
51239049857
51239054618
51239061454
51239066581
51239072379
51239077689
51239081779
51239087516
51239091544
51239096854
51239103324
51239108390
51239113578
51239118461
51239124015
51239128898
51239134208
51239138297
51239144157
51239150016
51239154410
51239160026
51239165031
51239169181
51239176688
51239181327
51239186332
51239190360
51239196586
51239201346
51239206290
51239211356
51239215629
51239222159
51239228019
51239233573
51239237723
51239242728
51239246756
51239252860
51239257804
51239264029
51239267386
51239273429
51239278861
51239283866
51239288748
51239293082
51239300955
51239305350
51239310416
51239314566
51239320975
51239325186
51239330741
51239337454
51239342642
51239346976
51239351920
51239357718
51239362479
51239366507
51239371695
51239377737
51239383475
51239388419
51239392691
51239398550
51239402762
51239409109
51239415030
51239420279
51239425467
51239430350
51239436148
51239439932
51239445547
51239451529
51239457510
51239461844
51239468436
51239475210
51239480643
51239486319
51239490591
51239497183
51239502005
51239508108
51239513235
51239518545
51239524283
51239529593
51239535574
51239539724
51239546011
51239550100
51239555899
51239560049
51239565786
51239570303
51239576712
51239582083
51239587088
51239591848
51239596853
51239602041
51239607168
51239612661
51239618460
51239623159
51239627249
51239633230
51239637380
51239643240
51239648733
51239654409
51239659658
51239664602
51239669668
51239674551
51239680471
51239684560
51239690664
51239695364
51239701101
51239705190
51239710867
51239714895
51239721548
51239728994
51239734426
51239738637
51239743642
51239749502
51239753164
51239758657
51239764516
51239770009
51239776662
51239781789
51239787771
51239792959
51239798940
51239804860
51239809621
51239815114
51239821584
51239827382
51239832509
51239838002
51239843557
51239849416
51239854726
51239859670
51239865468
51239870534
51239875173
51239880300
51239886830
51239891042
51239897145
51239902333
51239906362
51239911550
51239916493
51239921620
51239928029
51239933827
51239938588
51239943227
51239948232
51239953481
51239958730
51239963857
51239969777
51239974843
51239980153
51239984425
51239989613
51239995290
51240000478
51240006215
51240011342
51240016225
51240021168
51240025990
51240031911
51240035878
51240041859
51240047108
51240051442
51240057667
51240063038
51240067006
51240071828
51240078175
51240083241
51240088307
51240093190
51240095997
51240102467
51240108326
51240113453
51240119008
51240124257
51240129139
51240132618
51240138539
51240143849
51240148426
51240153920
51240159779
51240164723
51240169606
51240172657
51240178944
51240184193
51240189564
51240195057
51240199879
51240205189
51240210133
51240214710
51240219898
51240225392
51240229786
51240236012
51240240711
51240247852
51240253773
51240259022
51240265980
51240270619
51240277332
51240282581
51240287830
51240294117
51240299244
51240304676
51240310596
51240316578
51240320423
51240325672
51240330860
51240335804
51240340992
51240345692
51240353382
51240357227
51240361744
51240368091
51240372669
51240377430
51240382801
51240387073
51240392627
51240397632
51240402942
51240407886
51240413074
51240418323
51240423816
51240428089
51240434681
51240439319
51240444690
51240449573
51240454212
51240457264
51240464099
51240470569
51240475391
51240479419
51240484180
51240489368
51240494251
51240500110
51240504566
51240510730
51240517200
51240522510
51240528552
51240534290
51240540393
51240544544
51240550159
51240554981
51240560291
51240565723
51240570544
51240575732
51240580920
51240585864
51240591602
51240596240
51240601611
51240606372
51240612048
51240617480
51240620776
51240627429
51240632251
51240638293
51240643176
51240648059
51240652515
51240657764
51240664355
51240668933
51240674487
51240678515
51240684131
51240688159
51240693957
51240701159
51240706347
51240711108
51240715991
51240721118
51240726062
51240730700
51240736621
51240742785
51240747363
51240752551
51240756579
51240762744
51240767382
51240772326
51240778552
51240783740
51240788378
51240793261
51240799426
51240802905
51240809008
51240814196
51240820666
51240825183
51240830615
51240835253
51240840197
51240846301
51240851794
51240857409
51240861437
51240867236
51240872424
51240876574
51240881762
51240887255
51240893420
51240899218
51240902087
51240909289
51240914355
51240919237
51240923998
51240929247
51240935839
51240940295
51240944750
51240949999
51240955309
51240959337
51240964892
51240971483
51240976427
51240981371
51240986376
51240991076
51240996142
51241001085
51241006212
51241012438
51241016771
51241023180
51241027208
51241032885
51241037096
51241044176
51241048998
51241054308
51241059252
51241064196
51241069994
51241073534
51241079821
51241084398
51241089769
51241093981
51241100267
51241106066
51241110887
51241116747
51241122362
51241127062
51241132921
51241137926
51241142442
51241147630
51241153002
51241158373
51241165270
51241169115
51241175035
51241178819
51241184801
51241190355
51241195116
51241199388
51241205858
51241210802
51241216600
51241221727
51241226671
51241231676
51241237108
51241243272
51241247728
51241253221
51241257310
51241263109
51241267320
51241272996
51241280076
51241284044
51241289415
51241294236
51241299302
51241304002
51241309129
51241314683
51241320726
51241326158
51241331102
51241336473
51241341233
51241347215
51241352342
51241358873
51241363999
51241368943
51241373826
51241379380
51241384629
51241388780
51241394456
51241400315
51241404405
51241409898
51241415757
51241420518
51241423387
51241429978
51241436204
51241441453
51241446824
51241452012
51241456345
51241461717
51241466111
51241471787
51241477219
51241481309
51241487290
51241491319
51241497300
51241501817
51241507127
51241514085
51241517930
51241523118
51241528062
51241534043
51241539414
51241543381
51241548813
51241555100
51241559922
51241565049
51241570054
51241574875
51241579880
51241585129
51241591782
51241595627
51241601243
51241604966
51241610581
51241615830
51241621079
51241625596
51241631882
51241636032
51241642502
51241647873
51241652573
51241657151
51241662155
51241668442
51241672409
51241677658
51241682419
51241687546
51241692917
51241698349
51241703110
51241709824
51241715073
51241720078
51241724899
51241729660
51241734604
51241739792
51241745834
51241751328
51241755478
51241760605
51241765305
51241770615
51241775925
51241781174
51241787766
51241792343
51241797165
51241801926
51241806930
51241811813
51241817245
51241823105
51241828781
51241833786
51241838974
51241843429
51241847580
51241854721
51241861069
51241866318
51241870895
51241875839
51241881149
51241885849
51241891708
51241896713
51241903000
51241907760
51241913009
51241918991
51241923385
51241927475
51241932907
51241939804
51241943954
51241949081
51241955185
51241959640
51241964523
51241970016
51241974777
51241981857
51241986129
51241991989
51241996322
51242003219
51242008041
51242013107
51242018783
51242024154
51242028793
51242034103
51242040389
51242044479
51242049850
51242056014
51242061324
51242066146
51242070968
51242076217
51242081405
51242087936
51242094466
51242099898
51242105392
51242110152
51242116134
51242121444
51242125411
51242131087
51242136703
51242141219
51242146712
51242152572
51242157516
51242162642
51242167769
51242172835
51242178267
51242182967
51242188033
51242193831
51242197432
51242203719
51242210677
51242214827
51242221175
51242226546
51242232405
51242238204
51242243697
51242250472
51242254744
51242258956
51242265792
51242268904
51242277327
51242282759
51242288008
51242292464
51242297652
51242303572
51242307356
51242313155
51242318343
51242323103
51242330061
51242334578
51242338728
51242344466
51242349043
51242354170
51242359419
51242364607
51242369551
51242374495
51242379622
51242384627
51242390364
51242395674
51242400435
51242406172
51242411787
51242416914
51242422468
51242425276
51242431319
51242437361
51242442427
51242447920
51242452986
51242458113
51242463484
51242467695
51242473005
51242478499
51242482954
51242489180
51242493208
51242498945
51242504927
51242509749
51242513105
51242519636
51242525435
51242529463
51242535933
51242539778
51242545637
51242550825
51242555647
51242560041
51242566572
51242571211
51242576094
51242580732
51242587141
51242591963
51242597090
51242602888
51242608503
51242612409
51242617597
51242622602
51242627912
51242632429
51242636823
51242643415
51242648054
51242653669
51242659528
51242664289
51242668378
51242673627
51242680036
51242685529
51242690351
51242694624
51242699812
51242705122
51242709699
51242715864
51242721479
51242726728
51242731611
51242736555
51242741376
51242746442
51242752241
51242758405
51242761457
51242765302
51242768293
51242772382
51242776471
51242780561
51242784711
51242788373
51242792341
51242795759
51242799970
51242803632
51242806806
51242810956
51242816327
51242819257
51242823346
51242825483
51242831098
51242833844
51242839948
51242844159
51242848004
51242852643
51242856366
51242860150
51242862470
51242867780
51242872418
51242876325
51242880719
51242884748
51242888654
51242891461
51242895368
51242901471
51242906110
51242909772
51242914960
51242919538
51242923810
51242928327
51242932843
51242937055
51242940534
51242945966
51242949506
51242953839
51242958844
51242962811
51242967267
51242970624
51242975385
51242980267
51242984174
51242988568
51242992108
51242997113
51243001324
51243006207
51243009930
51243013715
51243017865
51243021100
51243025860
51243029828
51243034833
51243038922
51243042645
51243045880
51243049908
51243053326
51243058575
51243062848
51243066754
51243071393
51243074933
51243077496
51243082501
51243087933
51243091290
51243097271
51243101056
51243104718
51243109112
51243112774
51243116681
51243121624
51243126873
51243132733
51243137493
51243142071
51243146527
51243152447
51243157757
51243162396
51243165692
51243172039
51243177960
51243181866
51243186993
51243192303
51243198651
51243205120
51243209088
51243214703
51243217510
51243223370
51243226544
51243231670
51243236858
51243242474
51243246685
51243251263
51243256451
51243260174
51243265118
51243269268
51243275433
51243280987
51243287090
51243292278
51243296184
51243300762
51243305889
51243309368
51243313946
51243319317
51243325054
51243328228
51243334148
51243338299
51243342876
51243347454
51243352520
51243357281
51243364177
51243369426
51243375408
51243382122
51243387371
51243393169
51243399028
51243404827
51243412761
51243418743
51243424053
51243434185
51243439556
51243449810
51243457988
51243465374
51243472148
51243482891
51243490276
51243497173
51243504192
51243509197
51243520000
51243525554
51243533977
51243541667
51243549052
51243556316
51243562785
51243569255
51243574504
51243583415
51243590129
51243597026
51243603862
51243608989
51243619121
51243623820
51243632487
51243639079
51243645122
51243652995
51243657268
51243666545
51243674479
51243677592
51243689738
51243695659
51243702189
51243708842
51243717326
51243723796
51243729045
51243737468
51243742350
51243751872
51243759379
51243764323
51243773417
51243777995
51243786906
51243793803
51243798808
51243807841
51243819254
51243825114
51243832621
51243840006
51243846537
51243855204
51243862162
51243869608
51243872782
51243881266
51243891154
51243900065
51243904276
51243912211
51243919047
51243927164
51243933695
51243941263
51243947123
51243954203
51243960856
51243968241
51243976175
51243983194
51243989786
51243997904
51244004923
51244010050
51244017862
51244026773
51244034586
51244041178
51244047342
51244054911
51244061746
51244064798
51244075296
51244080118
51244088907
51244096842
51244104288
51244111002
51244117105
51244122720
51244127176
51244134256
51244139993
51244147134
51244151346
51244160867
51244168863
51244176431
51244183633
51244190652
51244193277
51244202371
51244209024
51244215494
51244221841
51244228799
51244235208
51244240274
51244248758
51244252908
51244261026
51244266580
51244271036
51244279825
51244289102
51244295266
51244301858
51244308877
51244315835
51244321206
51244330972
51244335916
51244345315
51244351052
51244360818
51244367471
51244370462
51244380532
51244388894
51244394631
51244400979
51244403909
51244415200
51244420327
51244431924
51244438027
51244445413
51244452004
51244458291
51244466836
51244471902
51244479470
51244486672
51244495278
51244501870
51244508218
51244515664
51244522378
51244530190
51244536904
51244541848
51244550026
51244558144
51244565041
51244573464
51244580300
51244586892
51244591286
51244599709
51244606240
51244611245
51244621437
51244627602
51244637429
51244644265
51244647255
51244658974
51244664162
51244672096
51244678810
51244685158
51244691872
51244699867
51244707070
51244714882
51244722450
51244729347
51244735329
51244742958
51244747719
51244755959
51244763283
51244770424
51244780556
51244785561
51244792946
51244799843
51244804848
51244815163
51244820778
51244829140
51244837318
51244846107
51244853004
51244858314
51244865638
51244872291
51244880775
51244887428
51244892799
51244900489
51244909217
51244915504
51244921852
51244927284
51244937049
51244944557
51244951149
51244957679
51244964088
51244971046
51244980873
51244988502
51244994850
51244997779
51245010414
51245015663
51245024574
51245028846
51245035011
51245044471
51245052833
51245059791
51245064246
51245072608
51245079078
51245084205
51245093177
51245100257
51245107886
51245115821
51245124244
51245131141
51245136512
51245144141
51245151038
51245157203
51245165076
51245172706
51245179175
51245186255
51245194373
51245201331
51245207068
51245216590
51245221167
51245228736
51245235511
51245243872
51245251136
51245256507
51245264624
51245273474
51245277136
51245286414
51245293677
51245300635
51245307166
51245313269
51245319434
51245326941
51245334692
51245341284
51245347632
51245353613
51245358191
51245365271
51245371069
51245379675
51245385840
51245392371
51245401770
51245408545
51245413916
51245419531
51245424048
51245432593
51245439184
51245444372
51245450720
51245455237
51245466345
51245472326
51245477392
51245483557
51245489904
51245497473
51245503271
51245509069
51245519567
51245527258
51245533850
51245540502
51245546362
51245551245
51245558081
51245564001
51245570410
51245577062
51245582739
51245591467
51245598486
51245604894
51245610632
51245616186
51245623510
51245629797
51245635107
51245641699
51245648840
51245659155
51245664037
51245672094
51245676366
51245684057
51245689916
51245694433
51245705114
51245713537
51245723363
51245727514
51245734960
51245740636
51245748388
51245754369
51245761022
51245767064
51245773412
51245776403
51245787694
51245793004
51245800451
51245804357
51245812474
51245818212
51245822728
51245829930
51245838781
51245849156
51245855687
51245862279
51245870214
51245877721
51245887059
51245894505
51245901525
51245908055
51245917577
51245920628
51245929295
51245935765
51245942662
51245948949
51245956273
51245963231
51245970006
51245978856
51245981969
51245991490
51245998509
51246005772
51246012974
51246020482
51246024998
51246034886
51246042393
51246048497
51246055089
51246062352
51246069859
51246076451
51246081883
51246089695
51246097813
51246106114
51246112706
51246115757
51246127415
51246132786
51246141331
51246147862
51246150852
51246160435
51246170201
51246178135
51246182469
51246190281
51246196690
51246201817
51246211338
51246218479
51246221775
51246231419
51246239719
51246246799
51246254185
51246261204
51246267551
51246273899
51246280857
51246287998
51246295261
51246303196
51246311008
51246318027
51246323154
51246330417
51246336826
51246343906
51246350742
51246358494
51246365085
51246372287
51246381504
51246389011
51246394931
51246401096
51246408176
51246416477
51246423252
51246429416
51246436862
51246447116
51246454746
51246461215
51246469699
51246476596
51246481601
51246489047
51246495883
51246504794
51246509128
51246517856
51246525852
51246532382
51246540622
51246547519
51246552890
51246561496
51246565890
51246574741
51246581821
51246587924
51246598239
51246604220
51246611362
51246618075
51246623446
51246632541
51246639865
51246646090
51246654452
51246662997
51246670077
51246675143
51246684848
51246689120
51246697665
51246704623
51246709628
51246719088
51246727267
51246733676
51246742282
51246749423
51246755831
51246760165
51246769808
51246776217
51246782260
51246789523
51246798251
51246805514
51246811923
51246820895
51246827670
51246832735
51246840304
51246847262
51246854403
51246861605
51246867220
51246876986
51246884188
51246887484
51246897311
51246902315
51246912508
51246919222
51246928072
51246935274
51246942904
51246949801
51246957308
51246962618
51246969332
51246978243
51246984896
51246990206
51246997530
51247004732
51247014132
51247021090
51247026461
51247033419
51247040193
51247047274
51247056063
51247061617
51247069856
51247077852
51247085726
51247092256
51247095491
51247105501
51247112947
51247119722
51247126375
51247132723
51247140352
51247149080
51247156038
51247162447
51247170808
51247177461
51247182771
51247190279
51247196748
51247204133
51247211336
51247220247
51247226900
51247233430
51247241853
51247248811
51247254915
51247262666
51247269868
51247274934
51247285737
51247294770
51247301728
51247307038
51247315217
51247322541
51247329316
51247335725
51247340913
51247348786
51247355866
51247365876
51247372529
51247375520
51247387605
51247392732
51247399751
51247406831
51247411836
51247422334
51247429292
51247438020
51247444428
51247452424
51247459382
51247464448
51247472993
51247479768
51247487214
51247494538
51247500092
51247508454
51247515107
51247522858
51247529633
51247535004
51247544709
51247549164
51247558381
51247565888
51247572785
51247581574
51247588654
51247596283
51247602631
51247610932
51247617646
51247622834
51247630341
51247638459
51247647248
51247654022
51247657074
51247666901
51247674530
51247679840
51247688568
51247691925
51247702423
51247708405
51247716705
51247723419
51247731354
51247737946
51247743500
51247751251
51247758270
51247765167
51247774750
51247780182
51247790069
51247794586
51247803131
51247809845
51247815399
51247823822
51247831268
51247839203
51247844146
51247849640
51247860504
51247867950
51247875091
51247881805
51247888885
51247895355
51247902862
51247909271
51247916595
51247925628
51247932952
51247938262
51247946807
51247953460
51247959747
51247966705
51247974883
51247982147
51247990630
51247997161
51248003509
51248009124
51248021758
51248028167
51248037322
51248046416
51248053374
51248058562
51248067535
51248074676
51248079681
51248089141
51248096160
51248099334
51248110320
51248116424
51248123504
51248128509
51248137237
51248144744
51248150969
51248159636
51248164641
51248173491
51248179717
51248187590
51248194670
51248201812
51248210173
51248218413
51248221587
51248231353
51248236418
51248247405
51248251616
51248260466
51248268523
51248271575
51248284392
51248289946
51248298003
51248304350
51248307219
51248317717
51248324980
51248333525
51248338469
51248348235
51248357451
51248365385
51248372465
51248382109
51248389311
51248396513
51248404631
51248412016
51248420927
51248427824
51248432951
51248442473
51248446501
51248452360
51248461210
51248465971
51248473539
51248480436
51248489164
51248496366
51248504545
51248510771
51248516020
51248526579
51248532011
51248539579
51248547209
51248550260
51248563139
51248568571
51248576383
51248582792
51248590421
51248596769
51248601835
51248610380
51248617033
51248625150
51248632230
51248641019
51248647367
51248652494
51248659574
51248668546
51248671293
51248680570
51248688322
51248696683
51248704313
51248710721
51248717374
51248722623
51248731351
51248738492
51248746061
51248753263
51248760648
51248767240
51248776700
51248783536
51248787992
51248796415
51248802884
51248808133
51248817838
51248825345
51248832547
51248839749
51248846097
51248854886
51248860013
51248867581
51248874173
51248880582
51248889493
51248895413
51248904813
51248909940
51248920010
51248926602
51248933072
51248940762
51248945096
51248952420
51248961819
51248964810
51248976590
51248982022
51248989529
51248995999
51249001187
51249011136
51249019131
51249026089
51249034451
51249037625
51249050625
51249056363
51249063565
51249070157
51249076748
51249085476
51249090542
51249097256
51249104763
51249113797
51249121365
51249127713
51249136135
51249140591
51249149502
51249156338
51249159207
51249169522
51249179409
51249185757
51249193020
51249200222
51249207302
51249214504
51249221401
51249227993
51249235806
51249245937
51249248867
51249261562
51249267666
51249274502
51249281155
51249289211
51249295742
51249300930
51249310756
51249316616
51249325954
51249333462
51249339443
51249348232
51249353359
51249361110
51249368496
51249374477
51249382961
51249390102
51249399135
51249406154
51249414455
51249421474
51249426845
51249434535
51249441188
51249449611
51249456569
51249463527
51249473781
51249478969
51249487087
51249494472
51249501674
51249509670
51249515651
51249523708
51249532253
51249539455
51249546535
51249553554
51249564235
51249569667
51249579005
51249587550
51249595241
51249602992
51249612025
51249619777
51249625392
51249635463
51249642970
51249649806
51249657130
51249665004
51249675380
51249682521
51249689418
51249697108
51249703151
51249711695
51249714686
51249723963
51249731959
51249739405
51249746241
51249754725
51249761744
51249766993
51249774622
51249781153
51249788966
51249795558
51249800807
51249808680
51249820338
51249826380
51249832789
51249838221
51249848048
51249856837
51249865687
51249871241
51249881373
51249886866
51249896021
51249903834
51249909327
51249918787
51249926905
51249934168
51249941309
51249948328
51249956690
51249965784
51249971888
51249978418
51249984766
51249992456
51249999781
51250007227
51250013636
51250016565
51250026209
51250035364
51250043604
51250050684
51250053675
51250063318
51250070642
51250078027
51250084436
51250092981
51250097620
51250105615
51250113855
51250121118
51250128503
51250135339
51250140344
51250148950
51250156580
51250162073
51250169214
51250176172
51250186792
51250194055
51250200220
51250207300
51250213342
51250222009
51250227136
51250236657
51250241906
51250251916
51250259057
51250265161
51250271997
51250279504
51250282800
51250291528
51250300256
51250306237
51250315087
51250321557
51250330224
51250333276
51250343530
51250349023
51250356530
51250363183
51250369775
51250377282
51250385461
51250393701
51250398156
51250404443
51250412194
51250419762
51250428429
51250432763
51250439172
51250448327
51250453942
51250463402
51250469872
51250478661
51250485253
51250490380
51250499352
51250503564
51250513085
51250520531
51250528283
51250535485
51250540551
51250550011
51250556908
51250559777
51250569542
51250576806
51250584557
51250589928
51250596154
51250605675
51250613732
51250620873
51250628014
51250633080
51250642113
51250648033
51250653649
51250661583
51250669945
51250678673
51250681664
51250690941
51250698509
51250705467
51250712059
51250718529
51250727196
51250732811
51250742271
51250746727
51250754906
51250763084
51250771629
51250778160
51250782554
51250789024
51250797630
51250807762
51250813988
51250821739
51250829368
51250836021
51250842491
51250849937
51250854332
51250864097
51250871849
51250878318
51250886802
51250891929
51250901512
51250908165
51250915794
51250922325
51250927391
51250935691
51250943687
51250951805
51250959007
51250964317
51250974326
51250978782
51250986289
51250995506
51251001548
51251008201
51251017722
51251024741
51251031638
51251038108
51251046958
51251052024
51251059836
51251066733
51251072715
51251079429
51251088218
51251095847
51251102378
51251108787
51251117454
51251125815
51251131370
51251138144
51251146933
51251154746
51251161460
51251171225
51251175925
51251183738
51251190451
51251195700
51251204428
51251211936
51251218222
51251228049
51251231528
51251242087
51251250388
51251256674
51251263693
51251271018
51251277976
51251283713
51251292441
51251297568
51251309103
51251317404
51251323630
51251331503
51251335959
51251343771
51251350424
51251359091
51251366171
51251374533
51251381979
51251388754
51251397238
51251404074
51251409323
51251416342
51251423300
51251432150
51251439657
51251445028
51251453390
51251460897
51251468344
51251474936
51251480185
51251488790
51251495993
51251503134
51251510824
51251516745
51251525350
51251533224
51251542990
51251551229
51251560018
51251566854
51251575338
51251582418
51251589132
51251595846
51251603841
51251610555
51251616842
51251621908
51251631368
51251638692
51251645589
51251652975
51251660238
51251667257
51251676656
51251682149
51251688924
51251697164
51251703756
51251709005
51251716634
51251723958
51251733724
51251740438
51251746724
51251753682
51251760885
51251768392
51251775106
51251781453
51251790425
51251797444
51251806417
51251812764
51251820211
51251826741
51251831868
51251839803
51251846150
51251852193
51251862569
51251869222
51251877828
51251885457
51251892842
51251899800
51251905782
51251911946
51251918904
51251926656
51251934041
51251940022
51251951863
51251957295
51251964314
51251970662
51251977864
51251984578
51251993123
51252000508
51252005269
51252012776
51252021504
51252028035
51252035176
51252042744
51252049275
51252055928
51252061421
51252070027
51252078450
51252084614
51252091267
51252097615
51252105610
51252113056
51252119587
51252126240
51252133381
51252139729
51252147480
51252153462
51252160359
51252166523
51252174763
51252182087
51252189350
51252196247
51252203327
51252210529
51252215900
51252224323
51252232136
51252235432
51252245014
51252253559
51252261005
51252265461
51252273884
51252281330
51252286396
51252295612
51252303852
51252311054
51252317585
51252320820
51252330768
51252338337
51252346027
51252353351
51252359943
51252366535
51252374469
51252381427
51252388385
51252396625
51252403278
51252408832
51252416584
51252424640
51252433063
51252440509
51252447101
51252453449
51252460895
51252468463
51252475177
51252481708
51252488605
51252496722
51252504718
51252511188
51252514240
51252524310
51252532062
51252538592
51252545123
51252553912
51252560992
51252567462
51252577228
51252581622
51252589679
51252598346
51252601336
51252610919
51252618182
51252624835
51252634539
51252642596
51252650409
51252655658
51252664386
51252671832
51252677813
51252684466
51252689654
51252699237
51252710284
51252716265
51252724993
51252727984
51252737567
51252745013
51252751605
51252758502
51252761431
51252775164
51252781756
51252790789
51252798357
51252803912
51252810931
51252816119
51252825335
51252832903
51252839434
51252846514
51252854510
51252862322
51252867388
51252875750
51252883440
51252890520
51252896929
51252904497
51252912127
51252920977
51252929094
51252935930
51252941790
51252951860
51252959551
51252967913
51252976397
51252985491
51252993059
51252996294
51253006853
51253015825
51253022417
51253029253
51253037737
51253045305
51253051531
51253059709
51253067949
51253076860
51253084490
51253087480
51253097734
51253105180
51253110918
51253117448
51253124101
51253132707
51253138505
51253147783
51253154375
51253162004
51253168596
51253174150
51253181474
51253187883
51253195817
51253203142
51253208330
51253218339
51253222795
51253231096
51253237626
51253245927
51253252763
51253257035
51253264970
51253272477
51253277482
51253288163
51253295976
51253302873
51253309220
51253316239
51253322831
51253330461
51253335649
51253342851
51253349626
51253359269
51253364884
51253372636
51253379472
51253386063
51253392716
51253401505
51253407609
51253412919
51253419511
51253428361
51253434281
51253443742
51253451432
51253456803
51253463334
51253468522
51253478593
51253486161
51253494645
51253499589
51253506058
51253515336
51253520707
51253528397
51253534989
51253542984
51253549698
51253556290
51253565995
51253573502
51253580094
51253586930
51253592423
51253599686
51253606156
51253613175
51253622818
51253630875
51253637650
51253643143
51253651016
51253657669
51253664017
51253672989
51253678177
51253685623
51253693497
51253701492
51253708328
51253715713
51253722366
51253729263
51253737625
51253744644
51253749832
51253758926
51253765274
51253772110
51253779861
51253787308
51253794815
51253801346
51253807754
51253814895
51253822220
51253828994
51253836624
51253845535
51253852920
51253858963
51253868240
51253876541
51253887222
51253895034
51253903457
51253911148
51253919692
51253927322
51253933364
51253940200
51253946609
51253954788
51253961318
51253966506
51253975295
51253985000
51253992812
51254000015
51254006423
51254014724
51254022231
51254027602
51254034194
51254039382
51254049148
51254057693
51254065749
51254072158
51254080215
51254086684
51254092055
51254101394
51254105666
51254114455
51254121718
51254126723
51254135207
51254143081
51254148513
51254157363
51254160231
51254170485
51254177565
51254184279
51254191664
51254198317
51254206923
51254213027
51254220351
51254227126
51254233351
51254242079
51254247634
51254255690
51254262709
51254265761
51254277724
51254283644
51254294753
51254300307
51254309767
51254318190
51254326125
51254333754
51254341261
51254349135
51254357374
51254364210
51254371168
51254376784
51254386488
51254394423
51254400892
51254408583
51254414198
51254424574
51254429579
51254437452
51254443983
51254450270
51254458021
51254465345
51254472853
51254480665
51254487928
51254495680
51254505201
51254512953
51254522596
51254529493
51254537733
51254546156
51254553907
51254561964
51254568739
51254574842
51254583509
51254590955
51254598158
51254604627
51254611219
51254617200
51254625623
51254633680
51254640455
51254648572
51254655836
51254664442
51254671644
51254678174
51254686170
51254693372
51254701307
51254710706
51254716138
51254725782
51254732496
51254739209
51254746045
51254753858
51254759107
51254766126
51254771497
51254783033
51254788587
51254796094
51254802747
51254810010
51254816602
51254822034
51254831067
51254840283
51254849378
51254856458
51254862927
51254868665
51254876050
51254883557
51254890271
51254895581
51254904919
51254912732
51254919995
51254926831
51254929822
51254941968
51254947034
51254955334
51254961987
51254969617
51254976880
51254982373
51254992199
51255000012
51255007214
51255013806
51255020215
51255028332
51255032788
51255041882
51255048779
51255054821
51255064465
51255070874
51255078930
51255085583
51255092724
51255099621
51255106823
51255115185
51255120251
51255128063
51255137707
51255146740
51255153576
51255159496
51255170788
51255178539
51255185131
51255192394
51255195690
51255207531
51255215893
51255224316
51255231640
51255234753
51255245861
51255251842
51255259716
51255267040
51255273327
51255282665
51255287548
51255296276
51255303234
51255311168
51255317943
51255323009
51255331066
51255340892
51255349132
51255355846
51255363720
51255370433
51255375804
51255383312
51255390148
51255396739
51255405101
51255414379
51255421459
51255425914
51255434093
51255440746
51255446178
51255455577
51255459972
51255466502
51255474681
51255485118
51255491771
51255499339
51255506236
51255512828
51255518321
51255528392
51255532664
51255541576
51255550120
51255557689
51255564952
51255570140
51255577525
51255584117
51255590281
51255598338
51255605601
51255612254
51255620067
51255627147
51255634532
51255642833
51255649180
51255655589
51255664012
51255670603
51255676036
51255683116
51255695262
51255702586
51255709117
51255716929
51255723826
51255728831
51255737315
51255744090
51255746958
51255757029
51255765086
51255774180
51255778391
51255786875
51255793650
51255798655
51255807566
51255814341
51255822092
51255829356
51255835703
51255846323
51255854075
51255858958
51255868113
51255871103
51255880564
51255888193
51255895762
51255902781
51255911142
51255918650
51255923594
51255931406
51255938303
51255941172
51255951364
51255959787
51255966684
51255975046
51255982798
51255989389
51255992685
51256002512
51256010019
51256016184
51256022959
51256029428
51256036081
51256044138
51256052377
51256058847
51256067209
51256073984
51256079355
51256086984
51256093698
51256102609
51256107370
51256115488
51256124704
51256131906
51256137033
51256145944
51256152536
51256159982
51256167184
51256172006
51256179513
51256188424
51256195932
51256203439
51256209420
51256216073
51256222116
51256231576
51256236581
51256245492
51256252755
51256261300
51256269357
51256275582
51256282296
51256290048
51256296517
51256303231
51256308541
51256316415
51256325387
51256333932
51256340707
51256345834
51256356027
51256360421
51256369088
51256376107
51256382333
51256390816
51256400216
51256406075
51256412911
51256420846
51256427804
51256436532
51256443490
51256447945
51256456978
51256465157
51256472542
51256480294
51256487618
51256495186
51256501839
51256509408
51256516304
51256521492
51256530892
51256539864
51256546700
51256553353
51256558846
51256568367
51256575997
51256579293
51256588692
51256594857
51256602791
51256610298
51256620369
51256627022
51256633858
51256640694
51256645332
51256655037
51256661690
