51099148299
51099154464
51099159774
51099165511
51099171676
51099178634
51099183699
51099189315
51099196639
51099202315
51099209334
51099214827
51099222518
51099230452
51099239119
51099243941
51099252303
51099259200
51099267195
51099273726
51099281600
51099288130
51099295821
51099299544
51099307906
51099315596
51099321516
51099328597
51099335188
51099341719
51099349226
51099356123
51099362166
51099370589
51099376265
51099384016
51099390547
51099397444
51099404219
51099410322
51099417402
51099424055
51099430403
51099438765
51099444685
51099450972
51099458052
51099463667
51099471968
51099479902
51099487226
51099490950
51099500044
51099507124
51099512129
51099521711
51099527754
51099535688
51099542097
51099548384
51099555036
51099562666
51099571821
51099577986
51099585188
51099590742
51099598005
51099603254
51099611128
51099620466
51099628095
51099634809
51099641645
51099647810
51099653120
51099660749
51099670270
51099676862
51099683698
51099690473
51099697004
51099702375
51099709516
51099715925
51099723920
51099731122
51099737897
51099744123
51099750226
51099757001
51099762677
51099771589
51099778974
51099785627
51099791364
51099798444
51099805829
51099812909
51099819623
51099827375
51099832868
51099840009
51099845380
51099855145
51099861493
51099868573
51099876325
51099881879
51099889264
51099898114
51099905499
51099911298
51099919720
51099926129
51099932782
51099940594
51099949506
51099956097
51099965314
51099972333
51099979352
51099987347
51099995648
51100001324
51100009442
51100019208
51100026898
51100035016
51100041363
51100051739
51100060528
51100067425
51100077801
51100085614
51100096234
51100105877
51100114544
51100122845
51100133099
51100141705
51100147686
51100158611
51100164105
51100174114
51100182598
51100191753
51100199993
51100206890
51100215679
51100223492
51100230389
51100240643
51100247478
51100258221
51100265850
51100275188
51100281475
51100289776
51100297832
51100306804
51100317302
51100324566
51100332317
51100340862
51100350383
51100358135
51100367168
51100376506
51100383342
51100394146
51100402263
51100410747
51100418376
51100428203
51100438396
51100444927
51100453533
51100462749
51100470867
51100478008
51100486858
51100494182
51100505412
51100514262
51100522685
51100531779
51100538005
51100548015
51100555156
51100565349
51100572246
51100581462
51100590556
51100599162
51100608623
51100615764
51100624675
51100633769
51100642497
51100649272
51100657328
51100664286
51100673930
51100682658
51100690715
51100699931
51100706217
51100714823
51100723490
51100731181
51100741191
51100749125
51100756388
51100764689
51100772807
51100779154
51100790019
51100797404
51100807108
51100815714
51100822245
51100831705
51100840067
51100848795
51100858866
51100865946
51100873392
51100882914
51100888346
51100898722
51100908854
51100915995
51100925638
51100934061
51100943766
51100952738
51100962076
51100969645
51100978983
51100987833
51100996500
51101006937
51101011881
51101022257
51101031168
51101040140
51101050211
51101057047
51101064981
51101072366
51101080606
51101088358
51101098367
51101106607
51101113992
51101121011
51101127603
51101135110
51101142618
51101151285
51101157999
51101167032
51101175882
51101184061
51101192422
51101203164
51101214578
51101226846
51101234659
51101242410
51101248330
51101256387
51101265359
51101274759
51101283609
51101291604
51101300637
51101307717
51101315957
51101324441
51101332315
51101340310
51101347085
51101354897
51101363748
51101371743
51101381204
51101387490
51101396462
51101403603
51101412209
51101419778
51101426125
51101435952
51101442239
51101451943
51101458718
51101464638
51101469765
51101477395
51101483132
51101489419
51101495522
51101500771
51101504860
51101510048
51101515481
51101520974
51101527993
51101532570
51101538125
51101543374
51101549599
51101555764
51101560769
51101565529
51101572792
51101578286
51101584450
51101589577
51101596108
51101601418
51101605629
51101612282
51101618263
51101623574
51101629311
51101633644
51101639382
51101645180
51101650063
51101656899
51101661293
51101667702
51101671730
51101678017
51101682533
51101689430
51101696571
51101702492
51101707863
51101713112
51101718239
51101723000
51101728310
51101733742
51101739540
51101743996
51101749733
51101754372
51101759498
51101764259
51101769325
51101776649
51101782204
51101786110
51101790993
51101797157
51101801307
51101806495
51101811989
51101817909
51101823890
51101829017
51101834266
51101840919
51101845680
51101851967
51101857521
51101861915
51101867653
51101873512
51101878395
51101883705
51101889320
51101894752
51101898902
51101906166
51101910133
51101916053
51101921302
51101926307
51101933082
51101936927
51101943641
51101947852
51101955299
51101960975
51101965064
51101971778
51101976539
51101983375
51101988502
51101994239
51101999427
51102004737
51102011146
51102014198
51102021217
51102024757
51102031715
51102035987
51102041053
51102047034
51102051429
51102057227
51102061805
51102067664
51102072730
51102077674
51102083167
51102088416
51102093543
51102097571
51102103431
51102108680
51102114173
51102120582
51102125220
51102131690
51102136817
51102141211
51102147742
51102152991
51102158850
51102163733
51102169226
51102174414
51102178504
51102184485
51102190589
51102195838
51102201514
51102205420
51102211768
51102215186
51102221961
51102228369
51102233618
51102239173
51102244727
51102249671
51102255164
51102260291
51102266150
51102271704
51102276465
51102282996
51102286963
51102292578
51102298804
51102303626
51102309668
51102313818
51102319983
51102325110
51102330603
51102335974
51102341223
51102346289
51102351172
51102356055
51102362219
51102368628
51102374182
51102379248
51102385229
51102390356
51102394324
51102400854
51102406592
51102411535
51102418005
51102421728
51102428015
51102433386
51102439489
51102444799
51102449560
51102455847
51102458776
51102466162
51102472204
51102478674
51102484106
51102489721
51102493322
51102499304
51102504675
51102508886
51102514990
51102520239
51102525488
51102530004
51102534948
51102539587
51102544775
51102549291
51102555822
51102560705
51102565283
51102571874
51102576391
51102581518
51102587621
51102593176
51102598425
51102604223
51102608923
51102615514
51102620458
51102625402
51102631139
51102636449
51102641149
51102647192
51102652807
51102657690
51102663183
51102668310
51102672399
51102678564
51102683446
51102688329
51102694860
51102700109
51102705907
51102710668
51102715551
51102721410
51102725683
51102731481
51102736547
51102741735
51102747838
51102753942
51102758336
51102763768
51102770543
51102775853
51102780797
51102786595
51102791356
51102796910
51102803136
51102808751
51102813573
51102819432
51102824071
51102830541
51102836034
51102841405
51102845372
51102851537
51102856420
51102860997
51102866490
51102873082
51102878453
51102883519
51102888890
51102893956
51102898839
51102905125
51102912144
51102917393
51102923253
51102927098
51102933324
51102937962
51102943883
51102950169
51102955540
51102960423
51102964451
51102970006
51102975865
51102980748
51102987584
51102991856
51102998204
51103002842
51103007908
51103013829
51103017735
51103024693
51103029026
51103034398
51103039952
51103045384
51103050206
51103054722
51103060826
51103066319
51103071263
51103077610
51103081639
51103088414
51103093540
51103098545
51103104954
51103109288
51103114964
51103120091
51103125157
51103131321
51103135655
51103142552
51103147373
51103151890
51103158421
51103162693
51103169102
51103174534
51103179173
51103184666
51103191135
51103196140
51103202061
51103206944
51103212681
51103216709
51103222080
51103226536
51103233372
51103238499
51103243809
51103248997
51103254307
51103259128
51103264316
51103269565
51103276645
51103280491
51103287082
51103292270
51103297580
51103303379
51103307956
51103313328
51103320713
51103326023
51103330356
51103336826
51103341831
51103348240
51103353183
51103358005
51103363620
51103368869
51103373691
51103378818
51103385288
51103389499
51103395420
51103400363
51103405002
51103410678
51103416538
51103421543
51103425937
51103431491
51103435581
51103441440
51103446994
51103451022
51103458530
51103462863
51103468173
51103473178
51103478915
51103483310
51103488864
51103494052
51103500339
51103505161
51103509494
51103515170
51103520847
51103526767
51103531833
51103535800
51103542575
51103547824
51103553439
51103558322
51103565219
51103570102
51103574618
51103579867
51103584933
51103589999
51103595797
51103602206
51103607150
51103612033
51103616977
51103621920
51103626742
51103631503
51103637790
51103642978
51103647860
51103652438
51103657992
51103663363
51103667941
51103674838
51103679599
51103684054
51103689181
51103695224
51103699008
51103704684
51103709811
51103715792
51103721713
51103726351
51103731234
51103736971
51103741305
51103745516
51103753390
51103757723
51103762362
51103767306
51103773165
51103778109
51103783053
51103789950
51103795748
51103800692
51103806368
51103810824
51103816622
51103822237
51103827669
51103832186
51103838167
51103843416
51103848421
51103854403
51103859774
51103865328
51103870760
51103876314
51103880892
51103887057
51103891817
51103897555
51103903170
51103907686
51103913973
51103919100
51103925020
51103931673
51103936556
51103942415
51103947359
51103952913
51103957613
51103963716
51103970003
51103975008
51103981600
51103986055
51103992342
51103996553
51104003694
51104008943
51104014009
51104019747
51104024507
51104029573
51104034456
51104040132
51104045748
51104050508
51104054170
51104060640
51104065767
51104071382
51104076570
51104081758
51104087434
51104091829
51104096468
51104102510
51104108003
51104112764
51104118867
51104123262
51104127779
51104133760
51104139375
51104143526
51104149385
51104154268
51104161226
51104164155
51104171663
51104176484
51104183015
51104188264
51104193330
51104198335
51104204500
51104209626
51104214265
51104221040
51104226167
51104231050
51104236299
51104241914
51104245759
51104252412
51104256562
51104263276
51104269075
51104274446
51104279756
51104283662
51104289765
51104295259
51104300386
51104305635
51104310273
51104315034
51104320588
51104325471
51104329988
51104335786
51104340852
51104345490
51104349946
51104355622
51104360810
51104367951
51104372529
51104377229
51104382478
51104388520
51104392243
51104397370
51104403779
51104408784
51104414033
51104420136
51104426301
51104429475
51104436127
51104442780
51104447724
51104452912
51104457490
51104463654
51104469208
51104474946
51104479767
51104484101
51104490815
51104496247
51104501496
51104507111
51104512055
51104517487
51104524140
51104528717
51104534211
51104539154
51104545014
51104550446
51104555512
51104560700
51104565888
51104570526
51104576203
51104580841
51104587311
51104592194
51104597199
51104602753
51104606903
51104611725
51104618073
51104623444
51104628998
51104633820
51104638947
51104644074
51104649078
51104653961
51104660736
51104665558
51104670258
51104675201
51104681305
51104685028
51104690949
51104696381
51104701141
51104707611
51104712067
51104718414
51104723541
51104728546
51104735260
51104739227
51104744964
51104750824
51104755524
51104760956
51104765838
51104770965
51104776886
51104782257
51104788238
51104793487
51104798675
51104804901
51104809845
51104816314
51104820343
51104826324
51104831878
51104837371
51104843963
51104847931
51104855560
51104860687
51104865875
51104871673
51104877288
51104882782
51104888946
51104895111
51104899932
51104905181
51104911041
51104915985
51104920196
51104926910
51104931976
51104936981
51104942291
51104947173
51104953338
51104958770
51104963714
51104969207
51104973480
51104979766
51104985503
51104990752
51104996795
51105001006
51105006560
51105011504
51105016692
51105023894
51105028533
51105034820
51105039886
51105044646
51105049773
51105055022
51105060149
51105064361
51105070037
51105075286
51105079680
51105085418
51105090606
51105096343
51105100554
51105107329
51105112151
51105117461
51105123015
51105127593
51105134856
51105139800
51105145293
51105150359
51105154204
51105160613
51105166106
51105171111
51105176726
51105180999
51105186919
51105193083
51105198149
51105203581
51105208830
51105213347
51105219573
51105224211
51105229704
51105235259
51105240935
51105247405
51105251799
51105256682
51105261199
51105267729
51105274443
51105280669
51105285002
51105290007
51105295256
51105299223
51105304716
51105311552
51105316923
51105322172
51105326567
51105332487
51105335478
51105341643
51105349089
51105353361
51105359526
51105363005
51105369169
51105373137
51105379301
51105385344
51105390471
51105395903
51105400602
51105406157
51105410063
51105415556
51105422087
51105426909
51105431425
51105436308
51105442228
51105445829
51105451384
51105456694
51105463530
51105468412
51105473112
51105478117
51105483122
51105487882
51105493925
51105498747
51105504362
51105508329
51105514311
51105518217
51105524626
51105531645
51105536405
51105541593
51105545439
51105550749
51105555448
51105561613
51105566740
51105572111
51105576872
51105582487
51105587125
51105592802
51105598112
51105604703
51105609769
51105614469
51105619413
51105624784
51105629179
51105634183
51105640348
51105644926
51105650602
51105655485
51105660551
51105666959
51105672025
51105677701
51105681547
51105687406
51105691312
51105697660
51105700773
51105706571
51105712552
51105718351
51105723172
51105727018
51105733365
51105738126
51105744046
51105748868
51105754544
51105759244
51105763211
51105770230
51105775174
51105780118
51105786466
51105790738
51105797025
51105802640
51105806180
51105812894
51105817777
51105822904
51105828702
51105833524
51105837491
51105843533
51105849698
51105853787
51105860684
51105864774
51105870389
51105876370
51105881436
51105884305
51105891995
51105897733
51105902005
51105907437
51105911587
51105917630
51105922818
51105928616
51105935269
51105939786
51105945523
51105949978
51105955533
51105961148
51105966275
51105972684
51105977261
51105982754
51105987942
51105993985
51106000515
51106004666
51106011441
51106016568
51106021817
51106027798
51106032437
51106037869
51106044155
51106049466
51106054226
51106058743
51106064602
51106068692
51106075405
51106080654
51106086148
51106091763
51106096951
51106101406
51106106899
51106110989
51106115383
51106121609
51106126919
51106131558
51106136501
51106141201
51106146145
51106152737
51106157803
51106162258
51106167324
51106172085
51106177151
51106181911
51106186855
51106192348
51106197475
51106201931
51106206875
51106211941
51106217495
51106222134
51106228115
51106233486
51106238369
51106244045
51106248745
51106255092
51106261501
51106266750
51106272793
51106277370
51106282314
51106287563
51106292568
51106298427
51106303798
51106309108
51106314174
51106318935
51106325222
51106329006
51106335842
51106339748
51106346767
51106351650
51106356472
51106361537
51106368251
51106372890
51106378505
51106383205
51106389919
51106393825
51106399379
51106405422
51106410182
51106416530
51106421596
51106427028
51106432582
51106437465
51106443141
51106448695
51106454921
51106459987
51106464626
51106470363
51106474452
51106480495
51106484462
51106490627
51106495876
51106500453
51106506984
51106513148
51106518825
51106523646
51106529201
51106535121
51106540004
51106545253
51106550563
51106556117
51106560756
51106565883
51106571193
51106573817
51106581691
51106587062
51106592250
51106597255
51106602015
51106607631
51106612880
51106618617
51106624537
51106628932
51106635463
51106639125
51106644252
51106648341
51106655055
51106661158
51106665675
51106671656
51106676783
51106681117
51106684779
51106690638
51106695521
51106701625
51106706324
51106711146
51106717066
51106720606
51106727076
51106733302
51106737147
51106743067
51106747096
51106752894
51106756617
51106762537
51106769007
51106774012
51106779017
51106783900
51106788721
51106793665
51106799036
51106804224
51106809168
51106815943
51106819910
51106825831
51106831690
51106837366
51106843531
51106848231
51106853541
51106859095
51106863978
51106869288
51106875086
51106880091
51106885523
51106890040
51106896814
51106901819
51106907557
51106911280
51106917749
51106922022
51106928308
51106933069
51106937647
51106943872
51106949121
51106955835
51106960718
51106965540
51106971643
51106975611
51106982386
51106988123
51106993128
51106999597
51107002588
51107009485
51107015528
51107021631
51107027857
51107032617
51107037866
51107043359
51107048120
51107053186
51107059229
51107064417
51107069482
51107074854
51107080530
51107085962
51107091028
51107097498
51107102441
51107107446
51107114160
51107118860
51107124963
51107130212
51107136316
51107140710
51107146326
51107151941
51107156885
51107161828
51107168298
51107172937
51107178735
51107184289
51107190027
51107196679
51107201074
51107207361
51107212243
51107218713
51107223108
51107227807
51107233667
51107238794
51107244409
51107250146
51107254724
51107260766
51107266748
51107272241
51107277307
51107282495
51107288171
51107292810
51107297387
51107303185
51107308923
51107314172
51107318932
51107324670
51107330163
51107334741
51107340661
51107345483
51107352929
51107356957
51107363671
51107367944
51107373071
51107378259
51107384606
51107389855
51107395470
51107399255
51107405175
51107410363
51107414941
51107422631
51107427514
51107433068
51107438561
51107443261
51107446984
51107453393
51107459862
51107464623
51107470116
51107474999
51107479882
51107484704
51107490258
51107494957
51107501366
51107507164
51107512108
51107517418
51107523644
51107529137
51107534447
51107540429
51107544396
51107550743
51107555321
51107561364
51107566429
51107571923
51107576012
51107582237
51107587120
51107592186
51107598534
51107603295
51107608788
51107613732
51107618797
51107624291
51107630394
51107635033
51107641197
51107645958
51107650841
51107655724
51107660667
51107665550
51107671715
51107676842
51107681602
51107686913
51107692345
51107696983
51107701988
51107707115
51107713890
51107719322
51107723595
51107728233
51107733848
51107737755
51107742699
51107750328
51107755577
51107761375
51107766746
51107771629
51107777366
51107782921
51107788353
51107794029
51107798423
51107803001
51107809410
51107815391
51107820884
51107827720
51107831871
51107837669
51107842308
51107847557
51107852317
51107857872
51107863853
51107869590
51107874473
51107878379
51107884300
51107890891
51107895835
51107901756
51107907188
51107913169
51107917930
51107924278
51107929099
51107934165
51107941062
51107945945
51107951988
51107955894
51107961143
51107965354
51107973106
51107979270
51107983909
51107989036
51107993613
51107999778
51108006309
51108011863
51108016990
51108022849
51108027549
51108033286
51108038413
51108044578
51108049888
51108055564
51108061057
51108066184
51108071494
51108075522
51108082175
51108088157
51108093772
51108099570
51108104026
51108110312
51108114890
51108120383
51108126365
51108130454
51108136496
51108142295
51108147300
51108152487
51108156821
51108163047
51108167685
51108174338
51108179404
51108184104
51108190634
51108195029
51108201438
51108206809
51108211447
51108217856
51108223288
51108227500
51108233847
51108238486
51108244894
51108248801
51108255698
51108260703
51108266501
51108271994
51108276022
51108283102
51108287802
51108293845
51108298483
51108302450
51108308554
51108314780
51108319479
51108325094
51108331076
51108334006
51108341269
51108348288
51108353171
51108358786
51108363241
51108369406
51108372275
51108378988
51108385153
51108390524
51108395895
51108400778
51108406881
51108412252
51108417135
51108423117
51108428793
51108434469
51108439047
51108444601
51108450277
51108456747
51108461996
51108467855
51108471823
51108477499
51108483236
51108488485
51108494772
51108500204
51108506674
51108512594
51108517233
51108523336
51108527242
51108533834
51108539694
51108544576
51108550863
51108555807
51108561727
51108567709
51108572652
51108576925
51108581564
51108587423
51108591939
51108597494
51108602315
51108608602
51108613363
51108618062
51108623800
51108629049
51108633810
51108639120
51108645040
51108649923
51108654928
51108660726
51108666463
51108670492
51108676351
51108682454
51108687459
51108692098
51108698201
51108701558
51108709371
51108714986
51108719320
51108726278
51108731038
51108736226
51108742696
51108747335
51108753682
51108758443
51108763509
51108769307
51108774434
51108781087
51108786153
51108792256
51108797627
51108802876
51108807515
51108812703
51108818440
51108823872
51108829976
51108835652
51108842610
51108847371
51108852559
51108856770
51108863606
51108870564
51108874471
51108880391
51108885640
51108891560
51108896199
51108900410
51108907613
51108912495
51108918172
51108924275
51108930684
51108936116
51108941304
51108946980
51108952778
51108957661
51108962910
51108968525
51108973774
51108978657
51108982747
51108990681
51108995137
51109000935
51109006916
51109011311
51109017537
51109022663
51109027607
51109033406
51109038227
51109044514
51109050495
51109055439
51109061299
51109065754
51109071003
51109076618
51109081257
51109087666
51109091938
51109097737
51109102863
51109108967
51109114826
51109119709
51109125568
51109130756
51109135456
51109141132
51109146381
51109151936
51109155048
51109161579
51109167072
51109171406
51109178242
51109183063
51109189472
51109195270
51109199116
51109205524
51109209492
51109215900
51109221027
51109226215
51109231403
51109236530
51109242878
51109246601
51109251728
51109256061
51109262897
51109267719
51109272358
51109278766
51109283893
51109289081
51109295551
51109300617
51109306110
51109310932
51109316059
51109320819
51109326191
51109329425
51109336261
51109340229
51109346759
51109351520
51109356586
51109361286
51109367267
51109372699
51109376605
51109382953
51109388507
51109392963
51109398700
51109402606
51109408649
51109413898
51109418659
51109423175
51109429767
51109434467
51109439838
51109446307
51109450641
51109456195
51109460773
51109467487
51109471942
51109477252
51109484149
51109488300
51109493976
51109498309
51109504657
51109509357
51109514606
51109520709
51109525165
51109530414
51109534442
51109540606
51109545794
51109551349
51109557818
51109563373
51109567889
51109571795
51109578753
51109585040
51109590045
51109595111
51109601031
51109606646
51109612140
51109616900
51109622943
51109629290
51109635150
51109640582
51109645159
51109651629
51109656573
51109661700
51109665911
51109672564
51109678179
51109682940
51109688738
51109693743
51109699114
51109705279
51109710162
51109716509
51109720049
51109725787
51109730242
51109736102
51109740801
51109745440
51109751543
51109756915
51109761736
51109765582
51109772112
51109779253
51109783282
51109789507
51109794634
51109798846
51109802996
51109809710
51109814287
51109819231
51109824541
51109829912
51109834673
51109840105
51109845293
51109851763
51109857012
51109862200
51109867144
51109872881
51109876543
51109882341
51109888933
51109893023
51109898027
51109903032
51109908525
51109915117
51109920000
51109926836
51109931353
51109936968
51109941545
51109948320
51109952898
51109958330
51109964739
51109968645
51109975054
51109980425
51109985308
51109990618
51109997209
51110002397
51110007524
51110013567
51110019243
51110023088
51110029863
51110036455
51110041399
51110046892
51110050920
51110057756
51110062639
51110067827
51110073381
51110078935
51110084306
51110089555
51110094255
51110100542
51110105791
51110111528
51110115922
51110122026
51110126970
51110131853
51110137895
51110142473
51110147844
51110153764
51110158830
51110164567
51110168535
51110175248
51110179948
51110185258
51110191301
51110195329
51110201310
51110206437
51110211442
51110217668
51110221879
51110228410
51110233659
51110238298
51110243547
51110248796
51110255143
51110260270
51110265031
51110269914
51110274552
51110280595
51110284989
51110291276
51110296342
51110301469
51110307511
51110311662
51110317155
51110322038
51110327653
51110333329
51110337235
51110344132
51110347245
51110355302
51110360917
51110366654
51110372147
51110375993
51110383500
51110388444
51110394608
51110399247
51110403825
51110410477
51110415482
51110420243
51110425065
51110432206
51110436722
51110443131
51110447037
51110453568
51110458573
51110464371
51110470292
51110475602
51110481705
51110486100
51110492325
51110497208
51110500931
51110507523
51110511673
51110517838
51110522110
51110526322
51110532425
51110537125
51110543473
51110548233
51110555069
51110559464
51110565140
51110571366
51110576493
51110583328
51110588944
51110593643
51110599625
51110603531
51110609451
51110615128
51110620560
51110625931
51110630570
51110637100
51110640762
51110646133
51110651932
51110656570
51110662613
51110667923
51110673355
51110679092
51110684097
51110690323
51110695084
51110701248
51110706070
51110712234
51110717178
51110723343
51110728226
51110732742
51110738479
51110743362
51110749588
51110754349
51110760147
51110765823
51110771255
51110775894
51110780410
51110785537
51110791946
51110796096
51110803177
51110807510
51110813797
51110818863
51110824478
51110829971
51110835159
51110840957
51110846755
51110851333
51110856765
51110861892
51110866653
51110873855
51110878799
51110884170
51110888992
51110893813
51110899124
51110904556
51110910110
51110915359
51110920852
51110926223
51110931411
51110935439
51110941177
51110948928
51110952956
51110958694
51110963821
51110968825
51110974136
51110979568
51110985610
51110990676
51110995681
51111000869
51111005691
51111009658
51111016128
51111022841
51111028518
51111033523
51111038527
51111043044
51111048110
51111053908
51111060195
51111065871
51111072097
51111075515
51111081679
51111087661
51111092604
51111098830
51111103835
51111109145
51111113234
51111119887
51111125258
51111130507
51111135817
51111140395
51111147170
51111152419
51111157424
51111162673
51111167494
51111172438
51111177443
51111184096
51111189040
51111192946
51111198988
51111204787
51111210951
51111216567
51111220473
51111226210
51111232558
51111237563
51111243849
51111247939
51111254286
51111257094
51111265028
51111269545
51111275160
51111280409
51111284926
51111291090
51111296400
51111301893
51111307387
51111312514
51111317946
51111323073
51111327894
51111333937
51111340223
51111345167
51111350966
51111355971
51111362135
51111366591
51111371412
51111377882
51111381971
51111389479
51111393629
51111400160
51111404921
51111410170
51111414930
51111420484
51111426771
51111431654
51111437879
51111440626
51111446791
51111453565
51111459364
51111464857
51111469068
51111475172
51111480238
51111484937
51111490309
51111496107
51111501600
51111506666
51111512098
51111517042
51111522413
51111527723
51111533765
51111538404
51111543775
51111549268
51111554639
51111560499
51111566419
51111572279
51111577161
51111582716
51111587965
51111593336
51111599683
51111604749
51111609937
51111614881
51111621351
51111626478
51111631299
51111637098
51111641187
51111647474
51111651746
51111658033
51111661451
51111668165
51111674329
51111679273
51111684278
51111690320
51111694898
51111700696
51111704663
51111710523
51111717237
51111722974
51111728101
51111732617
51111739392
51111745313
51111750745
51111757031
51111762158
51111766797
51111773328
51111777173
51111784253
51111790051
51111795239
51111801221
51111805737
51111812329
51111817639
51111821973
51111827954
51111832898
51111839246
51111845166
51111849805
51111856030
51111861096
51111867017
51111871838
51111876721
51111883008
51111887585
51111893079
51111899548
51111904248
51111910229
51111914807
51111921399
51111927014
51111931531
51111938061
51111943310
51111948193
51111954052
51111959301
51111964184
51111970166
51111977551
51111981457
51111988720
51111993847
51111998486
51112005139
51112009899
51112015759
51112021435
51112027050
51112032238
51112037304
51112042980
51112048840
51112054211
51112059582
51112065380
51112069958
51112076611
51112082104
51112087963
51112093151
51112098950
51112104748
51112109875
51112115978
51112121960
51112126598
51112132580
51112137524
51112142651
51112148693
51112153881
51112159618
51112165111
51112169872
51112174206
51112179943
51112185375
51112191540
51112197460
51112201671
51112207104
51112211498
51112217480
51112222545
51112228100
51112233166
51112239391
51112245373
51112249645
51112255016
51112260570
51112265758
51112271251
51112276928
51112281627
51112285595
51112291393
51112295482
51112303173
51112308544
51112314220
51112319530
51112323497
51112329479
51112335521
51112340465
51112346752
51112352184
51112358104
51112363719
51112368724
51112373790
51112380443
51112385082
51112389781
51112396983
51112401988
51112407420
51112412364
51112418834
51112424083
51112429942
51112435313
51112440379
51112446605
51112451854
51112457530
51112463145
51112468578
51112473338
51112479503
51112484386
51112490550
51112496104
51112501536
51112507396
51112512095
51112516856
51112522838
51112527476
51112534251
51112539134
51112545115
51112549815
51112554149
51112561290
51112567698
51112573314
51112579417
51112584666
51112588878
51112594981
51112599681
51112605662
51112611338
51112615977
51112622020
51112628367
51112633433
51112640391
51112645274
51112650889
51112656748
51112662425
51112668894
51112675181
51112680308
51112685679
51112691355
51112696726
51112702586
51112707835
51112713938
51112717844
51112723582
51112728037
51112733775
51112737620
51112744456
51112748789
51112753550
51112759714
51112764719
51112769785
51112773753
51112778879
51112785654
51112790110
51112795481
51112801584
51112806467
51112811289
51112816538
51112822031
51112827341
51112832041
51112837961
51112842844
51112846262
51112853037
51112859629
51112863901
51112870310
51112875132
51112880198
51112885141
51112891062
51112897837
51112901865
51112908945
51112911936
51112920359
51112925241
51112929880
51112936350
51112941233
51112946604
51112952463
51112957346
51112961984
51112969309
51112974619
51112978830
51112984262
51112989511
51112994272
51112999643
51113006052
51113011362
51113015573
51113020151
51113026682
51113030832
51113036203
51113041879
51113047128
51113052011
51113057199
51113062387
51113068246
51113073740
51113078622
51113084543
51113090585
51113095712
51113101022
51113107492
51113112497
51113118295
51113124399
51113128915
51113134042
51113139840
51113144784
51113148629
51113155893
51113160043
51113165841
51113170785
51113175668
51113180673
51113185739
51113192208
51113196969
51113202829
51113206796
51113212533
51113217233
51113222726
51113229623
51113235055
51113240792
51113244699
51113250802
51113256661
51113262643
51113268441
51113272958
51113278573
51113284310
51113289193
51113293710
51113298043
51113304818
51113309884
51113315255
51113319772
51113326119
51113331063
51113336312
51113341805
51113346322
51113350655
51113356759
51113363106
51113367928
51113373788
51113377938
51113383980
51113389474
51113394662
51113400155
51113406014
51113410348
51113416329
51113421944
51113426705
51113432198
51113437752
51113442879
51113449410
51113455086
51113460030
51113465401
51113469246
51113474495
51113481820
51113487496
51113492806
51113497383
51113502388
51113508248
51113513497
51113518318
51113523873
51113529549
51113534066
51113539620
51113545296
51113550484
51113555977
51113561226
51113567146
51113572334
51113576668
51113582466
51113587288
51113595345
51113599434
51113605232
51113610542
51113615974
51113620003
51113626473
51113632759
51113638252
51113643074
51113648262
51113652840
51113659248
51113663155
51113670357
51113675423
51113681953
51113685921
51113692268
51113697944
51113703193
51113707954
51113713814
51113718941
51113723579
51113728218
51113734810
51113741646
51113747017
51113752510
51113757209
51113763130
51113766853
51113772346
51113778755
51113783332
51113789375
51113793342
51113799202
51113804695
51113810249
51113817451
51113822883
51113828132
51113833808
51113838874
51113844490
51113848884
51113854988
51113861274
51113865913
51113871833
51113875373
51113880927
51113887031
51113892402
51113897956
51113904121
51113909309
51113914008
51113920356
51113926398
51113932563
51113937141
51113941779
51113947700
51113953254
51113958503
51113964606
51113969001
51113974738
51113981147
51113986213
51113990912
51113996223
51114003547
51114008735
51114014899
51114020392
51114026130
51114031318
51114037543
51114041449
51114048835
51114053595
51114058661
51114064093
51114070807
51114076117
51114080756
51114086249
51114092292
51114097419
51114103400
51114108588
51114114264
51114119025
51114124457
51114129645
51114136176
51114141974
51114148261
51114152716
51114158209
51114164313
51114168097
51114174323
51114178778
51114185370
51114191168
51114196661
51114202826
51114207282
51114213568
51114219122
51114224127
51114229498
51114233466
51114239996
51114246344
51114250189
51114257330
51114261786
51114267523
51114273199
51114277899
51114284430
51114288214
51114295416
51114301031
51114305670
51114312323
51114316168
51114322027
51114328497
51114334173
51114339239
51114343084
51114349249
51114354620
51114359564
51114365912
51114370672
51114375250
51114380438
51114385809
51114391302
51114395941
51114402288
51114407354
51114412847
51114417791
51114422674
51114427252
51114432684
51114438299
51114443243
51114448248
51114453558
51114458929
51114462652
51114468817
51114474981
51114479986
51114486273
51114490911
51114497198
51114502630
51114508306
51114514288
51114518011
51114523931
51114529913
51114534856
51114539983
51114546575
51114551641
51114557867
51114563116
51114567449
51114570928
51114576421
51114583562
51114588750
51114593450
51114598516
51114603826
51114607732
51114613408
51114619634
51114624700
51114629888
51114634649
51114641240
51114645147
51114651128
51114657537
51114663457
51114669011
51114672368
51114678655
51114682744
51114688298
51114693547
51114698613
51114704595
51114709600
51114714299
51114719426
51114725530
51114731633
51114737432
51114742497
51114747319
51114753606
51114758367
51114763677
51114769353
51114775029
51114779912
51114784062
51114789678
51114795415
51114801274
51114806706
51114812016
51114817204
51114821111
51114827336
51114832890
51114838322
51114844060
51114849370
51114855412
51114860417
51114865666
51114870427
51114875981
51114880498
51114886723
51114890690
51114897099
51114901677
51114906865
51114911809
51114916874
51114923161
51114927983
51114932683
51114938420
51114943791
51114948307
51114954472
51114958989
51114964848
51114968388
51114974186
51114981205
51114986393
51114992192
51114997502
51115002873
51115007511
51115012638
51115018803
51115022831
51115029179
51115034611
51115039860
51115045719
51115050663
51115056217
51115061649
51115067509
51115072392
51115077519
51115082462
51115089176
51115094914
51115099857
51115104862
51115111393
51115115421
51115121037
51115127201
51115132328
51115138248
51115142460
51115149479
51115156803
51115162479
51115167301
51115171390
51115177555
51115183781
51115188785
51115194401
51115199283
51115205326
51115210087
51115215275
51115220951
51115226383
51115231144
51115235599
51115243046
51115247806
51115253238
51115259037
51115263248
51115269413
51115274967
51115279667
51115285343
51115290531
51115296268
51115300113
51115306766
51115311954
51115317203
51115322269
51115328311
51115332645
51115338382
51115343692
51115348575
51115353702
51115359989
51115364749
51115369815
51115375186
51115380557
51115385867
51115389896
51115397342
51115401859
51115407657
51115413638
51115418765
51115424869
51115429507
51115435184
51115441714
51115447330
51115452335
51115457400
51115462344
51115468570
51115473270
51115478519
51115484744
51115489627
51115496768
51115501285
51115505984
51115512881
51115516849
51115523135
51115529117
51115534732
51115539431
51115543826
51115550784
51115555728
51115561282
51115567263
51115571719
51115578311
51115583499
51115588382
51115593875
51115599978
51115604922
51115609927
51115616091
51115620608
51115625735
51115631838
51115636721
51115643130
51115649478
51115654421
51115659792
51115664675
51115670840
51115677126
51115682436
51115688601
51115692507
51115698122
51115703005
51115709658
51115715273
51115720583
51115726382
51115730349
51115737734
51115742861
51115748232
51115755129
51115759096
51115765993
51115771181
51115776552
51115781313
51115785708
51115792666
51115798159
51115803408
51115808840
51115813418
51115820803
51115826479
51115831484
51115836794
51115840944
51115846987
51115849855
51115856813
51115863283
51115867311
51115873659
51115878359
51115883181
51115889467
51115895388
51115900881
51115905397
51115911562
51115916872
51115921572
51115926821
51115932070
51115937990
51115942751
51115948183
51115954653
51115958620
51115965883
51115971742
51115976381
51115982362
51115986574
51115992433
51115996462
51116004579
51116009523
51116015199
51116020387
51116026613
51116031252
51116036317
51116041139
51116046327
51116050966
51116057558
51116063722
51116068666
51116074403
51116079347
51116085267
51116091249
51116096254
51116102113
51116106080
51116112977
51116118409
51116123353
51116129213
51116134828
51116139222
51116143129
51116149415
51116156739
51116160890
51116166749
51116172303
51116177613
51116181520
51116185426
51116190614
51116194581
51116197572
51116202455
51116205995
51116211061
51116214723
51116219239
51116221925
51116226136
51116231080
51116236024
51116239259
51116244081
51116246827
51116253663
51116257691
51116261170
51116266480
51116271302
51116274415
51116279664
51116284791
51116289246
51116294129
51116297425
51116302186
51116306275
51116309327
51116313844
51116318543
51116322877
51116327027
51116330079
51116334779
51116338990
51116343873
51116348206
51116353516
51116357728
51116361146
51116364136
51116368958
51116372925
51116377015
51116381898
51116386780
51116390442
51116395569
51116399170
51116405335
51116409730
51116414673
51116419007
51116422791
51116427369
51116431275
51116436219
51116441590
51116446900
51116451233
51116455201
51116459900
51116464112
51116468567
51116473694
51116477600
51116482117
51116485901
51116490967
51116494629
51116500061
51116505005
51116509522
51116513428
51116518738
51116522766
51116528137
51116532776
51116536499
51116540039
51116546021
51116550171
51116555298
51116560852
51116564758
51116569031
51116573059
51116578430
51116582886
51116587097
51116590576
51116594055
51116598206
51116605591
51116609314
51116613220
51116617493
51116621277
51116625732
51116630005
51116633423
51116638733
51116642883
51116647461
51116651245
51116656006
51116660705
51116664734
51116668701
51116673889
51116676941
51116681579
51116686096
51116690368
51116694092
51116698608
51116702453
51116706238
51116709594
51116713623
51116718384
51116722656
51116727051
51116731262
51116736145
51116739990
51116744934
51116748779
51116752685
51116756225
51116760681
51116765442
51116770263
51116775268
51116778015
51116782959
51116788024
51116793884
51116798156
51116801635
51116805358
51116809692
51116814514
51116818847
51116822204
51116827209
51116831542
51116836425
51116841308
51116844909
51116851257
51116855102
51116860046
51116862304
51116869140
51116873229
51116877258
51116881530
51116886108
51116889526
51116893859
51116896484
51116901000
51116908263
51116911071
51116916442
51116920592
51116924560
51116928710
51116932983
51116938232
51116942260
51116946593
51116951720
51116955688
51116958861
51116963988
51116968200
51116971984
51116976928
51116980285
51116986632
51116992370
51116996093
51117000609
51117004333
51117008117
51117013061
51117018065
51117022521
51117027221
51117031676
51117035766
51117040343
51117044494
51117048095
51117053222
51117057189
51117062560
51117065978
51117070311
51117075682
51117079406
51117083251
51117087584
51117091857
51117096251
51117101989
51117106505
51117111327
51117116454
51117120360
51117125609
51117129210
51117133910
51117137938
51117142333
51117146727
51117149962
51117155943
51117160399
51117164000
51117168517
51117172423
51117176146
51117179686
51117184020
51117188658
51117193724
51117197874
51117201903
51117206725
51117210143
51117214049
51117218565
51117222472
51117227599
51117230833
51117235228
51117240721
51117244871
51117249815
51117254942
51117258787
51117263670
51117268614
51117272581
51117276671
51117282713
51117286253
51117291136
51117294859
51117299803
51117303465
51117308775
51117313231
51117316343
51117322386
51117327147
51117332029
51117336607
51117340147
51117344114
51117349180
51117355406
51117359983
51117365171
51117369749
51117373289
51117377500
51117382383
51117386717
51117391355
51117395689
51117400816
51117405393
51117408506
51117413572
51117418516
51117422361
51117426390
51117429930
51117434385
51117438474
51117443174
51117447691
51117450437
51117455259
51117458433
51117462949
51117466978
51117471128
51117476194
51117479612
51117484251
51117488157
51117492918
51117497373
51117501829
51117505613
51117511106
51117514829
51117519895
51117523313
51117528440
51117532774
51117537168
51117540525
51117545164
51117548826
51117552305
51117556821
51117560605
51117565183
51117569761
51117573545
51117577817
51117583433
51117587644
51117591184
51117595273
51117599180
51117602903
51117608823
51117613218
51117617063
51117621091
51117625181
51117630857
51117635068
51117637632
51117643308
51117647458
51117651853
51117655698
51117660459
51117664060
51117666501
51117670346
51117675046
51117678708
51117682737
51117684934
51117688779
51117691648
51117694516
51117697751
51117700070
51117703427
51117706845
51117710202
51117713132
51117715329
51117717771
51117720273
51117722653
51117724973
51117727536
51117729978
51117732236
51117734372
51117736325
51117738461
51117740476
51117742673
51117744748
51117746518
51117748349
51117750607
51117752561
51117754331
51117756467
51117758298
51117760190
51117762021
51117763913
51117765866
51117767880
51117769772
51117771787
51117773618
51117775632
51117777585
51117779599
51117781796
51117783627
51117785947
51117787778
51117789975
51117792050
51117794064
51117795956
51117797910
51117799985
51117801877
51117804013
51117805783
51117807797
51117810056
51117812070
51117814084
51117815793
51117817624
51117820065
51117821957
51117823605
51117825558
51117827512
51117829221
51117831174
51117833188
51117835019
51117837033
51117838925
51117840756
51117843014
51117844784
51117846554
51117848386
51117850339
51117852475
51117854367
51117856320
51117858273
51117860165
51117862424
51117864255
51117866574
51117868527
51117870419
51117872250
51117874264
51117876217
51117878110
51117880063
51117882321
51117884335
51117886288
51117888241
51117890256
51117892270
51117894223
51117896054
51117898129
51117900143
51117901852
51117903744
51117905819
51117907528
51117909665
51117911496
51117913388
51117915219
51117916928
51117921383
51117926877
51117928891
51117930783
51117932492
51117934445
51117936215
51117938351
51117940182
51117942074
51117944882
51117946591
51117948788
51117950924
51117952877
51117954770
51117956784
51117958981
51117961056
51117962826
51117964901
51117966915
51117968869
51117970761
51117972470
51117974301
51117976437
51117978451
51117980282
51117982113
51117984127
51117985958
51117987789
51117989926
51117991818
51117993771
51117995724
51117997677
51118000119
51118002011
51118003842
51118005734
51118007748
51118009823
51118011410
51118014157
51118015988
51118017819
51118020016
51118021969
51118024288
51118026180
51118028134
51118029782
51118031735
51118033871
51118035702
51118037533
51118039303
51118041195
51118043087
51118044918
51118046932
51118048702
51118050594
51118052609
51118054623
51118056820
51118058529
51118060360
51118062130
51118064022
51118066342
51118068295
51118070187
51118072201
51118074215
51118076229
51118078060
51118080502
51118082455
51118084225
51118086544
51118088375
51118090511
51118092342
51118094479
51118096432
51118098263
51118100338
51118102230
51118104244
51118106014
51118107906
51118110104
51118111874
51118113827
51118115841
51118117733
51118119625
51118121273
51118123470
51118125362
51118127743
51118129635
51118131649
51118133541
51118135372
51118137936
51118139706
51118141720
51118143856
51118145687
51118147579
51118149410
51118151302
51118153683
51118155514
51118157406
51118159298
51118161373
51118163448
51118165462
51118167110
51118169063
51118170955
51118172970
51118174801
51118176571
51118178280
51118180416
51118182125
51118184139
51118185848
51118187740
51118189693
51118191524
51118194027
51118195797
51118197750
51118199886
51118201717
51118203975
51118205562
51118207760
51118209835
51118211605
51118213802
51118215511
51118217830
51118219845
51118221676
51118223751
51118225460
51118227901
51118229610
51118231380
51118233211
51118234981
51118237056
51118239010
51118240780
51118242794
51118244564
51118246700
51118248592
51118250423
51118252254
51118254207
51118255916
51118257625
51118259700
51118261409
51118263485
51118265255
51118267147
51118269405
51118271358
51118273433
51118275325
51118277278
51118279293
51118281124
51118283626
51118285579
51118287349
51118289119
51118291072
51118293758
51118295345
51118297298
51118299190
51118301082
51118303096
51118304805
51118306819
51118308589
51118310420
51118312313
51118314327
51118316097
51118317928
51118319759
51118321529
51118323421
51118325374
51118327205
51118329158
51118331172
51118332820
51118335323
51118337215
51118339229
51118341121
51118343074
51118345210
51118347103
51118349300
51118351253
51118353145
51118355037
51118357173
51118359248
51118361446
51118363277
51118365047
51118367122
51118369075
51118371089
51118372676
51118374446
51118376399
51118378413
51118380428
51118382259
51118384334
51118386531
51118388362
51118390315
51118392452
51118394405
51118396602
51118398494
51118400508
51118402766
51118404475
51118406367
51118408565
51118410884
51118412776
51118414790
51118416438
51118418452
51118420772
51118422542
51118424556
51118426143
51118428218
51118430293
51118432063
51118434016
51118435725
51118437678
51118439571
51118441463
51118443233
51118445064
51118447078
51118448909
51118450618
51118452693
51118454646
51118456599
51118458308
51118460261
51118462520
51118464412
51118466609
51118468562
51118470515
51118472652
51118474483
51118476802
51118478511
51118480586
51118482722
51118484614
51118486873
51118488826
51118490474
51118492427
51118494319
51118496272
51118498347
51118500056
51118501643
51118503535
51118505549
51118507075
51118509089
51118510859
51118513301
51118515132
51118516902
51118519160
51118521052
51118522883
51118524958
51118526851
51118529048
51118530879
51118532954
51118534907
51118536555
51118538936
51118540644
51118542842
51118544734
51118546931
51118548701
51118550532
51118552607
51118554316
51118556269
51118558223
51118560237
51118562373
51118564204
51118566096
51118567927
51118569758
51118571711
51118573725
51118575679
51118577693
51118579524
51118581416
51118583186
51118585200
51118587092
51118588862
51118590754
51118593013
51118594905
51118596858
51118598689
51118600581
51118603205
51118604853
51118606929
51118609065
51118611018
51118613093
51118614985
51118616877
51118618647
51118620539
51118622248
51118624201
51118626399
51118628352
51118630366
51118632075
51118633845
51118636103
51118637812
51118639887
51118641902
51118643977
51118645930
51118648066
51118649897
51118651606
51118653437
51118655573
51118657465
51118659602
51118661372
51118663447
51118665522
51118667353
51118669795
51118671626
51118673640
51118675532
51118677546
51118679560
51118681574
51118683344
51118685297
51118687312
51118689143
51118690852
51118692866
51118694636
51118696589
51118698725
51118700495
51118702509
51118704218
51118706049
51118707758
51118709711
51118711909
51118713801
51118715815
51118717646
51118719782
51118721613
51118723322
51118725520
51118727290
51118729487
51118731440
51118733576
51118735712
51118737665
51118739435
51118741328
51118743525
51118745356
51118747431
51118749140
51118751032
51118753107
51118754999
51118757075
51118758845
51118760676
51118762385
51118764399
51118766352
51118768244
51118770136
51118771967
51118774042
51118775995
51118777827
51118779535
51118781489
51118783625
51118785761
51118787714
51118789789
51118791742
51118793757
51118795893
51118797724
51118799982
51118801691
51118803583
51118805719
51118807551
51118809992
51118812006
51118814386
51118816156
51118818049
51118819880
51118822016
51118823725
51118825495
51118827387
51118829218
51118831049
51118832819
51118834528
51118836481
51118838251
51118840265
51118842402
51118844355
51118846003
51118848017
51118849970
51118852167
51118854059
51118856073
51118858088
51118859919
51118862238
51118864191
51118866266
51118868097
51118870417
51118872187
51118874140
51118876398
51118878412
51118880426
51118882502
51118884088
51118886042
51118887873
51118889765
51118891657
51118893488
51118895441
51118897272
51118899042
51118901117
51118903314
51118905146
51118907038
51118908930
51118910822
51118913019
51118914972
51118917108
51118918939
51118920770
51118922785
51118924982
51118927362
51118929132
51118930902
51118933039
51118934992
51118937128
51118938776
51118940546
51118942621
51118944330
51118946222
51118948175
51118949884
51118951959
51118953668
51118955988
51118957697
51118960077
51118961725
51118963922
51118965692
51118967401
51118969537
51118971613
51118973200
51118975092
51118976923
51118978876
51118980829
51118982782
51118984491
51118986444
51118988886
51118990595
51118992731
51118994684
51118996820
51118998773
51119000543
51119002618
51119004449
51119006708
51119008661
51119010492
51119012628
51119014398
51119016595
51119018365
51119020319
51119022333
51119024103
51119025873
51119027765
51119029596
51119031610
51119033441
51119035272
51119037225
51119038934
51119040643
51119042718
51119044977
51119046808
51119048517
51119050348
51119052789
51119054925
51119056756
51119058710
51119060541
51119062860
51119064752
51119066766
51119068719
51119070611
51119072626
51119074396
51119076898
51119078973
51119080987
51119082513
51119084222
51119086542
51119088495
51119090326
51119092035
51119093927
51119095697
51119097467
51119099481
51119101556
51119103387
51119105218
51119106805
51119109124
51119111139
51119113092
51119114801
51119116754
51119118951
51119120782
51119122796
51119124994
51119126947
51119128900
51119130609
51119132806
51119135308
51119137140
51119139154
51119140863
51119143365
51119145257
51119147577
51119149163
51119150933
51119153497
51119155328
51119157037
51119159234
51119161065
51119163385
51119165216
51119167047
51119168817
51119170648
51119173028
51119174859
51119177056
51119179254
51119181146
51119183099
51119185113
51119187432
51119189263
51119190972
51119193231
51119195001
51119197259
51119198968
51119200982
51119202935
51119204949
51119207147
51119208734
51119210687
51119212518
51119214349
51119216302
51119218377
51119220025
51119222039
51119223687
51119225518
51119227349
51119229180
51119231011
51119233087
51119234979
51119236688
51119238885
51119240716
51119242791
51119244683
51119246392
51119248650
51119250298
51119252496
51119254571
51119256463
51119258233
51119260064
51119262200
51119264092
51119266045
51119268182
51119270013
51119272393
51119274285
51119275994
51119278008
51119280022
51119282159
51119283990
51119285882
51119287896
51119289727
51119291558
51119293511
51119295281
51119297295
51119298943
51119300835
51119302850
51119304864
51119306573
51119308648
51119310418
51119312676
51119314629
51119316399
51119318536
51119320306
51119322686
51119324578
51119326409
51119328484
51119330743
51119333062
51119334893
51119336724
51119338982
51119340874
51119342766
51119344475
51119346123
51119348443
51119350640
51119352532
51119354485
51119356988
51119359124
51119361138
51119362908
51119364922
51119366753
51119368889
51119370843
51119372552
51119374749
51119376885
51119378899
51119380547
51119382622
51119384881
51119386712
51119388665
51119390496
51119392327
51119394463
51119396294
51119398369
51119400261
51119402031
51119404290
51119406304
51119408623
51119410637
51119412835
51119414666
51119416375
51119418511
51119420403
51119422112
51119424004
51119425835
51119427910
51119429863
51119431633
51119433526
51119435601
51119437432
51119439324
51119441277
51119443230
51119445122
51119446831
51119448845
51119450859
51119452752
51119454644
51119456780
51119459099
51119461235
51119463127
51119464959
51119466973
51119469231
51119471001
51119473076
51119474663
51119476677
51119478752
51119480645
51119482537
51119484185
51119485955
51119487664
51119489678
51119491570
51119493645
51119495598
51119497307
51119499138
51119501457
51119503166
51119505059
51119506951
51119508904
51119511101
51119512993
51119514885
51119516899
51119518852
51119521111
51119523064
51119525078
51119526970
51119529411
51119531243
51119533196
51119535454
51119537285
51119539177
51119540886
51119542778
51119544853
51119546684
51119548393
51119550041
51119551933
51119554253
51119556084
51119557976
51119559807
51119561882
51119563652
51119565544
51119567314
51119569389
51119571098
51119572868
51119575066
51119577019
51119578850
51119580620
51119582512
51119585075
51119586967
51119588799
51119590874
51119592827
51119595329
51119597221
51119599236
51119601433
51119603325
51119605400
51119607353
51119609489
51119611626
51119613518
51119615471
51119617241
51119619438
51119621330
51119623222
51119625053
51119626945
51119628654
51119630546
51119632439
51119634087
51119635918
51119637566
51119639519
51119641472
51119643425
51119645073
51119646721
51119648674
51119651115
51119653068
51119654960
51119656853
51119658806
51119660698
51119662651
51119664726
51119666679
51119668815
51119671135
51119673027
51119675163
51119677055
51119679313
51119681083
51119682792
51119685234
51119687004
51119688652
51119690544
51119692924
51119694816
51119696586
51119698356
51119700371
51119702202
51119704094
51119705986
51119708122
51119709953
51119711662
51119713432
51119715446
51119717399
51119719352
51119721122
51119722953
51119725395
51119727531
51119729484
51119731498
51119733574
51119735832
51119737785
51119739860
51119741996
51119743888
51119745964
51119747856
51119750419
51119752555
51119754448
51119756401
51119758232
51119760551
51119762443
51119764396
51119766166
51119767936
51119769889
51119771720
51119773674
51119775383
51119777275
51119779228
51119781059
51119783073
51119785148
51119786735
51119788688
51119790580
51119792778
51119794548
51119796379
51119798210
51119800102
51119802421
51119804252
51119806327
51119808097
51119809867
51119812126
51119814018
51119816032
51119817924
51119819633
51119821525
51119823234
51119825126
51119826957
51119828910
51119830802
51119832755
51119835014
51119836784
51119838859
51119840751
51119842460
51119844718
51119846488
51119848380
51119850150
51119851859
51119854179
51119856132
51119858268
51119860160
51119862052
51119863822
51119865775
51119867851
51119869560
51119871391
51119873588
51119875419
51119877738
51119879691
51119881461
51119883537
51119885307
51119887382
51119889091
51119891105
51119892692
51119894645
51119896354
51119898185
51119900138
51119901847
51119903739
51119905753
51119907462
51119909293
51119911430
51119913200
51119915092
51119916923
51119918876
51119920707
51119922477
51119924369
51119926322
51119928580
51119930350
51119932731
51119934562
51119936454
51119938773
51119940787
51119943046
51119945060
51119947257
51119949088
51119951163
51119953055
51119954825
51119956779
51119958549
51119960685
51119963065
51119964835
51119966910
51119968741
51119970817
51119972526
51119974418
51119976188
51119978202
51119980094
51119981803
51119983939
51119986197
51119987845
51119989860
51119992118
51119994559
51119996390
51119998343
51120000358
51120002311
51120004691
51120006461
51120008231
51120010611
51120012442
51120014457
51120016288
51120018973
51120020682
51120022513
51120024161
51120025992
51120028128
51120029898
51120031852
51120033561
51120035514
51120037528
51120039298
51120041190
51120043204
51120044852
51120046683
51120048453
51120050589
51120052237
51120054190
51120056021
51120058219
51120060355
51120062186
51120064322
51120066275
51120067984
51120070365
51120072135
51120073844
51120076102
51120077872
51120080130
51120082267
51120084647
51120086539
51120088431
51120090384
51120092276
51120094412
51120096366
51120098258
51120099967
51120101798
51120103934
51120105643
51120107596
51120109366
51120111136
51120113455
51120115225
51120117118
51120118888
51120120841
51120122916
51120124808
51120126883
51120128836
51120130606
51120132498
51120134451
51120136588
51120138480
51120140555
51120142569
51120144278
51120146536
51120148306
51120150137
51120151846
51120153861
51120155509
51120157523
51120159110
51120161002
51120162955
51120164908
51120166739
51120168753
51120170279
51120172293
51120174246
51120176077
51120178153
51120180167
51120181937
51120183951
51120185782
51120187796
51120189566
51120191397
51120193167
51120195059
51120197256
51120198904
51120201224
51120202994
51120204886
51120207205
51120209097
51120211356
51120213126
51120215018
51120217032
51120218924
51120220816
51120222647
51120224661
51120226553
51120228506
51120230460
51120232230
51120234000
51120235770
51120237845
51120239676
51120241263
51120243460
51120245291
51120247122
51120249197
51120251150
51120253226
51120255057
51120257071
51120258963
51120261038
51120263235
51120265005
51120267081
51120268667
51120270559
51120273306
51120275259
51120277273
51120278860
51120281424
51120283560
51120285513
51120287527
51120289358
51120291250
51120293081
51120295157
51120297354
51120299063
51120300955
51120302786
51120304556
51120306448
51120308462
51120310354
51120312185
51120314138
51120316336
51120318167
51120320181
51120321890
51120323843
51120325552
51120328116
51120329947
51120331778
51120333914
51120335684
51120338064
51120339834
51120341726
51120343801
51120345816
51120347891
51120349722
51120351919
51120353872
51120355886
51120357656
51120359487
51120361380
51120363577
51120365347
51120367056
51120369070
51120371389
51120373159
51120375235
51120377127
51120378958
51120380972
51120382742
51120385000
51120386709
51120388601
51120390798
51120392752
51120394827
51120396597
51120398367
51120400381
51120402517
51120404714
51120406240
51120408254
51120410147
51120411794
51120414114
51120416006
51120417654
51120419485
51120421438
51120423269
51120425222
51120426931
51120428762
51120430776
51120432546
51120434255
51120436208
51120438284
51120440054
51120441763
51120447500
51120449697
51120451833
51120453726
51120455679
51120457632
51120459463
51120461843
51120463613
51120465566
51120467642
51120469412
51120471731
51120473684
51120475637
51120477651
51120479299
51120481557
51120483450
51120485281
51120487295
51120489126
51120490957
51120492666
51120494436
51120496572
51120498403
51120500356
51120502187
51120504263
51120506094
51120507803
51120509573
51120511465
51120513662
51120515432
51120517385
51120519033
51120520742
51120523061
51120524770
51120526662
51120528799
51120530508
51120532583
51120534414
51120536855
51120538625
51120540639
51120542715
51120544546
51120546804
51120548635
51120550527
51120552419
51120554494
51120556264
51120558156
51120559987
51120561757
51120563527
51120565298
51120567312
51120569082
51120570791
51120572683
51120574453
51120576467
51120578725
51120580556
51120582326
51120584157
51120585927
51120588186
51120590139
51120591909
51120593679
51120595571
51120597463
51120599355
51120601735
51120603627
51120605520
51120607717
51120609609
51120611806
51120613698
51120615773
51120617666
51120619558
51120621694
51120623525
51120625600
51120627309
51120629506
51120631398
51120633413
51120635061
51120636831
51120638662
51120640859
51120642812
51120644521
51120646474
51120648366
51120650258
51120652089
51120654103
51120656057
51120657827
51120659658
51120661794
51120663930
51120665822
51120667653
51120669423
51120671865
51120673635
51120675466
51120677297
51120679311
51120681569
51120683583
51120685536
51120687368
51120689504
51120691396
51120693227
51120695302
51120697072
51120699086
51120701772
51120704885
51120706838
51120708791
51120710622
51120712331
51120714223
51120716359
51120718190
51120720265
51120722035
51120723683
51120726064
51120728017
51120730214
51120732045
51120733937
51120735707
51120737782
51120739980
51120741750
51120743642
51120745534
51120747365
51120749379
51120751332
51120753224
51120755055
51120757131
51120758839
51120761037
51120762624
51120764577
51120766347
51120768117
51120770253
51120772328
51120774220
51120775746
51120777699
51120779652
51120781728
51120783498
51120785451
51120787404
51120789418
51120791554
51120793385
51120795644
51120797414
51120799855
51120801625
51120803517
51120805653
51120807667
51120809621
51120811391
51120813283
51120815419
51120817128
51120818898
51120820851
51120822621
51120824879
51120826710
51120828725
51120830678
51120832570
51120834340
51120836293
51120838307
51120840199
51120842030
51120844044
51120846059
51120848134
51120850087
51120852040
51120853871
51120856129
51120857960
51120859791
51120861683
51120863515
51120865834
51120867665
51120869557
