51318642915
51318654390
51318659212
51318662752
51318669038
51318674898
51318680574
51318686189
51318692415
51318698518
51318704744
51318712129
51318719453
51318725313
51318732698
51318739534
51318745210
51318753145
51318758394
51318767000
51318775117
51318781648
51318788301
51318794832
51318801606
51318809053
51318815828
51318822053
51318829072
51318835237
51318841279
51318846467
51318855500
51318862336
51318869111
51318875276
51318880158
51318888581
51318897370
51318903596
51318910371
51318915254
51318923615
51318929597
51318936250
51318944611
51318948457
51318957673
51318964570
51318970673
51318976655
51318984223
51318992280
51318998749
51319007722
51319014985
51319022187
51319029328
51319036957
51319045014
51319052277
51319059601
51319065766
51319074006
51319080353
51319089509
51319096955
51319103669
51319108979
51319117524
51319121308
51319129303
51319138825
51319144501
51319151703
51319158539
51319165192
51319170441
51319179047
51319186310
51319192658
51319199860
51319206268
51319215119
51319220734
51319228424
51319237091
51319244232
51319251007
51319256561
51319264618
51319272430
51319278656
51319285614
51319292023
51319297943
51319304840
51319313385
51319319794
51319326080
51319335052
51319340973
51319348114
51319354767
51319361725
51319368500
51319376678
51319381073
51319389312
51319396393
51319403412
51319411712
51319417511
51319426666
51319434661
51319441070
51319450042
51319456024
51319463287
51319469390
51319477996
51319486480
51319493804
51319501068
51319508575
51319516265
51319523712
51319531402
51319539947
51319547027
51319554473
51319562286
51319570770
51319577361
51319586578
51319596404
51319605437
51319611968
51319620696
51319629180
51319637664
51319644073
51319652923
51319661223
51319668914
51319676360
51319682769
51319691680
51319699126
51319706817
51319716460
51319723113
51319731597
51319739165
51319746794
51319755217
51319762847
51319772002
51319780181
51319786650
51319796172
51319804595
51319812651
51319820159
51319828459
51319837615
51319844695
51319853056
51319859465
51319867827
51319874419
51319882658
51319889555
51319899321
51319904143
51319915739
51319923674
51319929533
51319938933
51319946501
51319956083
51319962980
51319972624
51319980009
51319988798
51319996000
51320003630
51320011015
51320020414
51320025419
51320036161
51320044645
51320052885
51320058927
51320069425
51320079008
51320086515
51320095060
51320103483
51320110563
51320118803
51320127592
51320136808
51320146452
51320153959
51320162260
51320170805
51320177702
51320185270
51320195341
51320200651
51320210599
51320218778
51320228361
51320233793
51320244474
51320249540
51320259916
51320266080
51320277738
51320284025
51320291959
51320300382
51320308194
51320317289
51320326993
51320336576
51320345121
51320352933
51320360379
51320368680
51320377591
51320387662
51320395291
51320403836
51320411954
51320419705
51320428677
51320434415
51320445218
51320455655
51320461758
51320472928
51320479214
51320488614
51320495572
51320505521
51320512295
51320522122
51320529446
51320539090
51320544278
51320554226
51320560513
51320569241
51320579068
51320585782
51320594143
51320600857
51320608487
51320615322
51320622769
51320627774
51320636746
51320644192
51320651577
51320659512
51320666348
51320675625
51320683315
51320692593
51320700833
51320709194
51320717007
51320724575
51320733669
51320740566
51320750515
51320758144
51320767971
51320775417
51320782375
51320790127
51320797939
51320806057
51320814052
51320823452
51320832363
51320840481
51320849331
51320857998
51320867153
51320876430
51320884487
51320892849
51320901210
51320911037
51320919277
51320926662
51320935939
51320944179
51320952724
51320959072
51320968532
51320977504
51320986049
51320994106
51321001003
51321008083
51321011562
51321019557
51321025783
51321031703
51321037563
51321043361
51321048366
51321053493
51321058864
51321065944
51321071620
51321077785
51321082423
51321088527
51321093837
51321098842
51321105617
51321111903
51321116664
51321122157
51321126857
51321132106
51321138087
51321145961
51321151027
51321156398
51321160914
51321169032
51321174647
51321180812
51321185939
51321192347
51321198817
51321204249
51321209193
51321213832
51321219081
51321225978
51321228968
51321235682
51321241603
51321246546
51321251857
51321254847
51321262293
51321267298
51321271632
51321277247
51321281092
51321288111
51321293055
51321298365
51321303980
51321308924
51321313929
51321319544
51321325343
51321330348
51321334559
51321341212
51321345362
51321351466
51321356165
51321361536
51321366358
51321370509
51321376612
51321381983
51321387110
51321392420
51321396021
51321403345
51321408594
51321413843
51321419092
51321423609
51321429468
51321435084
51321440088
51321444422
51321449610
51321453760
51321461512
51321466700
51321470972
51321477137
51321482081
51321486841
51321490625
51321496729
51321500147
51321506922
51321513330
51321518396
51321523157
51321528162
51321533289
51321537195
51321542566
51321548487
51321553308
51321559412
51321563989
51321571497
51321577173
51321581629
51321587183
51321593591
51321599390
51321605493
51321612085
51321617517
51321623132
51321626489
51321635156
51321640344
51321646692
51321652368
51321658777
51321664026
51321670557
51321675317
51321680933
51321686609
51321693201
51321698083
51321704492
51321709436
51321714197
51321721704
51321727563
51321732690
51321737512
51321743005
51321748803
51321755090
51321759179
51321765588
51321771020
51321778283
51321783105
51321789148
51321793054
51321799524
51321803125
51321810510
51321815087
51321820581
51321825891
51321832299
51321838586
51321842675
51321846643
51321854516
51321859460
51321864709
51321870385
51321874475
51321880395
51321885217
51321889794
51321896264
51321902368
51321908288
51321913354
51321918420
51321922936
51321927453
51321933434
51321939477
51321944848
51321951135
51321955651
51321961083
51321966210
51321970788
51321976037
51321982262
51321988244
51321993554
51322000268
51322004601
51322010216
51322016625
51322020836
51322028832
51322034142
51322039696
51322044701
51322050927
51322055748
51322061791
51322066002
51322073571
51322079186
51322085412
51322091149
51322096581
51322102440
51322109032
51322114586
51322119652
51322126854
51322130761
51322137474
51322144371
51322148278
51322153527
51322160485
51322165856
51322172081
51322177696
51322182457
51322188194
51322194176
51322200157
51322205589
51322210716
51322215782
51322221642
51322226891
51322233666
51322237877
51322244164
51322249840
51322254601
51322261436
51322266502
51322274437
51322278770
51322284996
51322290123
51322294823
51322300499
51322307274
51322313499
51322318504
51322324425
51322328331
51322335289
51322340599
51322345848
51322352257
51322357689
51322362877
51322368004
51322373680
51322378807
51322384727
51322390037
51322394920
51322400718
51322405479
51322411216
51322415916
51322422325
51322428306
51322433494
51322439353
51322446678
51322451560
51322457542
51322463096
51322468040
51322474998
51322481346
51322486411
51322492820
51322497398
51322502586
51322507163
51322511924
51322517356
51322523093
51322526267
51322533958
51322538718
51322542747
51322549216
51322553428
51322560447
51322566062
51322570762
51322575400
51322580833
51322586082
51322590232
51322596335
51322601768
51322606834
51322612449
51322617881
51322622886
51322627219
51322634238
51322639548
51322645591
51322652976
51322658225
51322663779
51322669822
51322674521
51322680442
51322687156
51322691123
51322696494
51322701804
51322707785
51322713401
51322718711
51322723960
51322729636
51322735251
51322740622
51322745688
51322751181
51322757407
51322761435
51322768271
51322774436
51322779807
51322784567
51322789084
51322795126
51322801413
51322806723
51322813559
51322819418
51322824973
51322830405
51322833640
51322839865
51322846762
51322852011
51322858786
51322863730
51322869467
51322874716
51322878622
51322886679
51322892477
51322897909
51322902731
51322909262
51322914572
51322920431
51322926779
51322931418
51322938254
51322941977
51322947775
51322954123
51322959494
51322964621
51322968527
51322975912
51322982870
51322987570
51322994406
51322998861
51323004110
51323010214
51323016073
51323021261
51323027914
51323032858
51323039389
51323044638
51323050375
51323056417
51323062887
51323068868
51323075704
51323081381
51323086386
51323092245
51323098470
51323103048
51323108968
51323114278
51323120382
51323126730
51323132040
51323136617
51323141134
51323148153
51323153585
51323159261
51323165670
51323170553
51323175375
51323180624
51323186117
51323191610
51323196737
51323201375
51323208028
51323214071
51323219015
51323225423
51323229024
51323235128
51323241842
51323247091
51323253011
51323257772
51323262655
51323269124
51323275655
51323281453
51323286519
51323291585
51323297689
51323301717
51323307882
51323313924
51323318990
51323325338
51323330098
51323334981
51323339864
51323345723
51323351583
51323356771
51323361531
51323367330
51323372457
51323378194
51323385091
51323388997
51323394856
51323400777
51323405721
51323410664
51323416097
51323422078
51323427998
51323433369
51323438680
51323443318
51323450215
51323455708
51323461140
51323466267
51323472676
51323478108
51323483296
51323489033
51323495137
51323500508
51323505696
51323511128
51323514851
51323520772
51323526570
51323531941
51323538655
51323544331
51323549153
51323555562
51323561360
51323567036
51323572773
51323577351
51323583699
51323588765
51323594502
51323600605
51323605671
51323611042
51323616536
51323620625
51323626301
51323633259
51323639424
51323644490
51323650532
51323654927
51323661518
51323667500
51323673420
51323678608
51323684895
51323689594
51323696003
51323701130
51323707234
51323712360
51323717365
51323723713
51323727802
51323734882
51323739399
51323744038
51323750080
51323756367
51323761005
51323766743
51323773518
51323779133
51323785358
51323789265
51323795246
51323801044
51323805134
51323811786
51323817219
51323822651
51323827289
51323833088
51323838215
51323843403
51323848530
51323853962
51323859089
51323863666
51323870502
51323875568
51323881000
51323887470
51323892475
51323897297
51323903278
51323908527
51323914081
51323920368
51323925312
51323930866
51323934772
51323940387
51323944232
51323950397
51323957416
51323961811
51323968097
51323973041
51323978107
51323983112
51323988056
51323993915
51323998065
51324004352
51324009052
51324014484
51324019183
51324022968
51324029559
51324033893
51324040790
51324046039
51324050677
51324055255
51324060443
51324066180
51324070575
51324076617
51324081927
51324086505
51324091510
51324097369
51324103900
51324106341
51324113116
51324119586
51324125751
51324131122
51324137530
51324143268
51324148700
51324153949
51324158404
51324163531
51324168658
51324174762
51324179828
51324184954
51324189410
51324193072
51324200396
51324205584
51324209552
51324216998
51324222308
51324228411
51324233172
51324240496
51324244342
51324250506
51324255328
51324260821
51324265215
51324272479
51324277484
51324282244
51324287371
51324292925
51324298968
51324304034
51324308611
51324313555
51324320147
51324326067
51324331988
51324336260
51324342730
51324348040
51324353777
51324358965
51324363482
51324368365
51324373797
51324379534
51324385515
51324389971
51324394793
51324399676
51324405657
51324408831
51324416887
51324422381
51324426531
51324432757
51324439287
51324443194
51324449541
51324454180
51324459185
51324466021
51324470171
51324474810
51324481157
51324488115
51324492632
51324497393
51324502153
51324507219
51324514360
51324519487
51324524675
51324531328
51324536333
51324542864
51324547014
51324554704
51324559709
51324563982
51324570757
51324575640
51324581804
51324589006
51324594621
51324599443
51324604875
51324611345
51324616106
51324623308
51324628984
51324633012
51324639177
51324645097
51324649614
51324656755
51324662920
51324667680
51324673479
51324678545
51324684160
51324689836
51324696001
51324701860
51324706438
51324710771
51324716813
51324720781
51324727678
51324733415
51324738054
51324743608
51324748308
51324754411
51324760331
51324765031
51324770952
51324776750
51324781388
51324786576
51324791825
51324797624
51324803056
51324807939
51324813920
51324818437
51324822770
51324829484
51324834977
51324840165
51324844377
51324849870
51324854692
51324860490
51324867082
51324871110
51324876603
51324881791
51324887834
51324892533
51324897294
51324904130
51324909501
51324915421
51324920792
51324925736
51324931290
51324936295
51324940934
51324947709
51324954118
51324958146
51324965043
51324971268
51324976334
51324980973
51324986710
51324991105
51324998490
51325004593
51325010270
51325016312
51325019974
51325025590
51325030839
51325036698
51325041581
51325047379
51325051957
51325057694
51325062638
51325069901
51325076249
51325082718
51325088395
51325093216
51325100479
51325105179
51325111344
51325115799
51325121964
51325126908
51325132401
51325138748
51325144425
51325148758
51325154556
51325158280
51325165177
51325170914
51325177017
51325182083
51325185501
51325192520
51325197403
51325202713
51325208633
51325215225
51325219803
51325224197
51325228958
51325235001
51325241226
51325245865
51325251846
51325256912
51325262039
51325267471
51325272964
51325277603
51325283401
51325288711
51325293167
51325299881
51325305069
51325311661
51325316849
51325321426
51325327102
51325331863
51325337356
51325342788
51325347549
51325353653
51325359024
51325363662
51325369156
51325374099
51325381424
51325387466
51325391616
51325398941
51325405105
51325408889
51325415298
51325420974
51325425552
51325431777
51325437698
51325442275
51325449294
51325455093
51325461501
51325466262
51325471023
51325476455
51325480850
51325488113
51325493423
51325498122
51325503921
51325507461
51325513503
51325519973
51325524368
51325530837
51325536636
51325541152
51325546584
51325551284
51325558486
51325564773
51325568679
51325576980
51325582290
51325586562
51325592483
51325597426
51325602614
51325607863
51325614394
51325619216
51325626723
51325631240
51325637526
51325642653
51325647536
51325652663
51325658400
51325664260
51325669143
51325674453
51325680129
51325684523
51325689040
51325694960
51325700087
51325706252
51325711440
51325715956
51325721877
51325726454
51325732802
51325737807
51325742018
51325748549
51325754164
51325758437
51325765700
51325771193
51325776137
51325781813
51325786452
51325790907
51325797072
51325803114
51325807936
51325812148
51325818129
51325823805
51325828871
51325833144
51325838942
51325844130
51325849196
51325854140
51325858290
51325865614
51325871474
51325875990
51325881850
51325886793
51325891981
51325897963
51325903700
51325908461
51325914320
51325919081
51325925062
51325932264
51325937025
51325943312
51325948011
51325952833
51325958693
51325963331
51325968458
51325974195
51325980055
51325984449
51325989271
51325995436
51326000807
51326005506
51326011854
51326018324
51326022901
51326028639
51326033522
51326040174
51326045606
51326050916
51326056654
51326061903
51326066969
51326072096
51326077039
51326082533
51326088331
51326092786
51326099561
51326104688
51326109632
51326115064
51326120496
51326126417
51326131239
51326137281
51326142225
51326147657
51326153211
51326157850
51326163221
51326167799
51326172681
51326179029
51326182996
51326190198
51326195142
51326198316
51326204664
51326210523
51326215833
51326221876
51326227002
51326231763
51326237317
51326244642
51326249158
51326255079
51326261731
51326266004
51326271131
51326276136
51326281873
51326286451
51326292737
51326298963
51326302869
51326309095
51326316541
51326321241
51326325879
51326332532
51326336926
51326342725
51326348523
51326354688
51326360669
51326364331
51326372144
51326378797
51326383191
51326389111
51326395581
51326401013
51326406445
51326410779
51326417126
51326423474
51326428418
51326434827
51326439893
51326444104
51326450085
51326453992
51326459973
51326466626
51326471387
51326477368
51326484082
51326487805
51326493970
51326497815
51326505078
51326510022
51326514844
51326520398
51326525219
51326531079
51326535779
51326542065
51326546399
51326552197
51326556042
51326561902
51326568493
51326572338
51326578442
51326583874
51326588574
51326594677
51326599987
51326605236
51326611706
51326615246
51326621533
51326627270
51326632946
51326638317
51326643261
51326648632
51326653088
51326658703
51326664135
51326669140
51326673962
51326679821
51326683605
51326690502
51326695751
51326700329
51326707226
51326711987
51326717114
51326722057
51326729565
51326734814
51326740429
51326746715
51326751171
51326756481
51326761852
51326767773
51326773205
51326778026
51326783459
51326787060
51326793957
51326799816
51326804577
51326810863
51326816662
51326820995
51326826732
51326834362
51326839672
51326844677
51326849437
51326855846
51326862255
51326866710
51326872753
51326878002
51326883129
51326889720
51326893810
51326898998
51326904918
51326911510
51326916332
51326921337
51326927074
51326931163
51326937450
51326942333
51326948680
51326953990
51326958629
51326963573
51326968150
51326974193
51326980113
51326986217
51326992198
51326997447
51327002940
51327008861
51327014232
51327019847
51327026622
51327033519
51327039256
51327043590
51327048289
51327055553
51327061656
51327065074
51327071483
51327077403
51327083140
51327088328
51327094493
51327098155
51327103831
51327110606
51327116282
51327121348
51327125987
51327130748
51327136729
51327143565
51327148814
51327154734
51327158946
51327165110
51327171275
51327176280
51327182261
51327187327
51327193309
51327199168
51327202830
51327208811
51327214793
51327219432
51327225535
51327231333
51327235484
51327240977
51327245066
51327251353
51327255808
51327262461
51327267832
51327271311
51327276133
51327283457
51327287791
51327293955
51327297862
51327303233
51327308421
51327312937
51327318674
51327324656
51327331065
51327334910
51327340586
51327345957
51327351816
51327358225
51327363901
51327368479
51327374033
51327378245
51327383005
51327387888
51327393686
51327398569
51327403879
51327409495
51327414255
51327420054
51327424326
51327431772
51327436838
51327441477
51327446055
51327449900
51327456614
51327462900
51327467966
51327473459
51327478281
51327482737
51327489145
51327495737
51327500437
51327504770
51327510507
51327514780
51327522226
51327527841
51327533212
51327538095
51327542856
51327547434
51327553659
51327558664
51327565317
51327568735
51327575205
51327580209
51327586313
51327592172
51327597788
51327602487
51327607736
51327611398
51327618112
51327623911
51327628854
51327634897
51327639963
51327644601
51327649911
51327654794
51327662363
51327667612
51327672616
51327678049
51327683908
51327689828
51327695138
51327700509
51327704721
51327710885
51327716317
51327721322
51327727853
51327731515
51327738229
51327743966
51327748727
51327754159
51327760812
51327765329
51327771249
51327775888
51327782785
51327788644
51327793893
51327798226
51327803659
51327809274
51327814462
51327818307
51327825326
51327831246
51327835885
51327841317
51327847238
51327851327
51327856454
51327861215
51327866891
51327872445
51327877755
51327883248
51327885812
51327893685
51327897836
51327902535
51327909737
51327914620
51327919137
51327924691
51327928353
51327934579
51327940255
51327943856
51327950448
51327955208
51327959847
51327965218
51327971688
51327976449
51327982064
51327985909
51327992074
51327997384
51328004098
51328009774
51328013985
51328019600
51328025155
51328029671
51328037484
51328043221
51328047310
51328053292
51328058358
51328064339
51328071175
51328077889
51328082222
51328088204
51328091683
51328098763
51328104622
51328109932
51328115731
51328121468
51328126045
51328130928
51328137459
51328144417
51328148995
51328152596
51328159493
51328164559
51328169624
51328175179
51328180672
51328187203
51328193428
51328199165
51328204659
51328209297
51328213814
51328220711
51328225899
51328230904
51328236092
51328241890
51328245979
51328252083
51328257576
51328261970
51328268257
51328272285
51328279487
51328284126
51328290352
51328295723
51328300606
51328305366
51328312202
51328316536
51328322639
51328327217
51328331855
51328337654
51328343330
51328349311
51328354438
51328359626
51328364204
51328371162
51328377693
51328382026
51328388618
51328393867
51328400398
51328404487
51328409309
51328415595
51328421333
51328426155
51328432319
51328435859
51328442146
51328448066
51328452400
51328458869
51328464973
51328470039
51328474922
51328481635
51328487739
51328492500
51328497565
51328503974
51328508613
51328514533
51328520332
51328524238
51328531562
51328537055
51328541022
51328546638
51328553413
51328559577
51328564826
51328570746
51328576728
51328581672
51328585578
51328591804
51328597541
51328602363
51328607612
51328613044
51328619574
51328625861
51328630744
51328635199
51328640937
51328644782
51328651679
51328657294
51328662482
51328668891
51328674628
51328678717
51328683661
51328687873
51328693915
51328700202
51328705756
51328710822
51328714850
51328721198
51328726020
51328731635
51328736762
51328740424
51328746588
51328751959
51328755866
51328761664
51328766974
51328772711
51328778571
51328781134
51328788336
51328793585
51328798895
51328805487
51328810431
51328815619
51328820502
51328824957
51328833075
51328837714
51328842535
51328848700
51328854315
51328860052
51328864813
51328870856
51328877203
51328881781
51328885138
51328891424
51328896063
51328902289
51328908392
51328913397
51328917791
51328923102
51328928351
51328933661
51328939947
51328944586
51328950262
51328955755
51328960455
51328965704
51328970892
51328977667
51328982367
51328986883
51328992132
51328996954
51329003485
51329009283
51329015386
51329020696
51329025274
51329030523
51329037481
51329042181
51329048101
51329052740
51329056524
51329063665
51329068426
51329074651
51329080633
51329085149
51329089727
51329095037
51329101019
51329106023
51329111944
51329116888
51329122503
51329126287
51329132696
51329137456
51329143926
51329149786
51329154546
51329159124
51329164678
51329168706
51329173650
51329180181
51329185369
51329190618
51329194280
51329199651
51329205205
51329210882
51329217534
51329221807
51329226384
51329231633
51329236699
51329241948
51329246526
51329252385
51329256414
51329260930
51329266545
51329271672
51329276250
51329282781
51329286809
51329291265
51329296697
51329302373
51329307866
51329313970
51329318608
51329323552
51329326909
51329333562
51329338689
51329343511
51329349797
51329354680
51329359197
51329364201
51329369389
51329374944
51329380681
51329386540
51329390691
51329396184
51329400883
51329408696
51329412358
51329419560
51329424565
51329429875
51329436772
51329441411
51329447148
51329451909
51329455876
51329462834
51329467351
51329472722
51329478520
51329485356
51329490727
51329495366
51329501164
51329505314
51329510563
51329515629
51329521672
51329527104
51329531743
51329538212
51329542668
51329549076
51329554264
51329559636
51329563847
51329569584
51329574650
51329579167
51329585575
51329589909
51329595158
51329599919
51329605351
51329610844
51329617069
51329621952
51329627506
51329631596
51329636845
51329643315
51329648625
51329654667
51329659489
51329666508
51329670597
51329676212
51329681156
51329687443
51329692631
51329697880
51329701542
51329707890
51329714176
51329719120
51329725346
51329730411
51329735538
51329741032
51329746708
51329752567
51329757572
51329762699
51329768741
51329774235
51329780094
51329785160
51329790775
51329795475
51329800968
51329805668
51329811954
51329817936
51329822635
51329828495
51329834293
51329839176
51329845157
51329851078
51329855472
51329861209
51329867008
51329872074
51329877262
51329880985
51329887943
51329891666
51329898624
51329904239
51329908084
51329914493
51329920535
51329924991
51329931278
51329936344
51329940616
51329946536
51329952701
51329958438
51329963626
51329968814
51329974735
51329980533
51329985599
51329990665
51329995975
51330002017
51330007022
51330011356
51330017093
51330021609
51330027713
51330033633
51330038882
51330045169
51330049869
51330054935
51330060489
51330065188
51330071963
51330076785
51330080935
51330085818
51330090640
51330096744
51330101870
51330106570
51330111514
51330114932
51330122134
51330127200
51330132327
51330139102
51330143740
51330148135
51330154116
51330157656
51330164614
51330169863
51330175112
51330180545
51330185794
51330190066
51330196719
51330202395
51330207949
51330212893
51330217349
51330222720
51330227725
51330234072
51330240176
51330244448
51330250491
51330256472
51330261355
51330268435
51330274661
51330278750
51330284426
51330290224
51330295290
51330300845
51330306887
51330310976
51330317324
51330321169
51330327639
51330332827
51330337588
51330344057
51330349489
51330354189
51330360476
51330366518
51330371645
51330377199
51330382631
51330390017
51330396547
51330400576
51330407351
51330413027
51330418276
51330423708
51330429079
51330434389
51330440798
51330447329
51330451845
51330457399
51330462160
51330468019
51330474367
51330480532
51330485475
51330491701
51330496767
51330502504
51330506899
51330513491
51330520693
51330526674
51330533815
51330540041
51330544313
51330551759
51330557008
51330562441
51330568910
51330574648
51330578676
51330586916
51330593080
51330598940
51330603456
51330609010
51330613893
51330619691
51330624147
51330630189
51330636781
51330640565
51330646608
51330651430
51330657594
51330664674
51330670778
51330676088
51330682374
51330687074
51330694459
51330699037
51330705507
51330709535
51330715455
51330720399
51330726869
51330732850
51330738099
51330743409
51330748170
51330753541
51330758546
51330765443
51330772218
51330776734
51330781495
51330785585
51330792665
51330798402
51330803468
51330809205
51330813233
51330818849
51330822999
51330828980
51330835389
51330840638
51330845948
51330850953
51330856202
51330861512
51330866944
51330871217
51330876954
51330881409
51330887330
51330892457
51330898560
51330902711
51330907777
51330913697
51330919495
51330924622
51330929993
51330934571
51330938538
51330944337
51330948792
51330955262
51330961121
51330965882
51330971253
51330976075
51330981690
51330987305
51330992005
51330996399
51331002930
51331005799
51331013367
51331018555
51331022522
51331029114
51331034974
51331039978
51331044129
51331050171
51331054322
51331059815
51331066346
51331071778
51331076783
51331081665
51331086853
51331091797
51331096619
51331102295
51331108093
51331112488
51331118347
51331122315
51331128235
51331132813
51331139099
51331143860
51331148987
51331155640
51331161560
51331166382
51331170410
51331176880
51331180786
51331187988
51331193909
51331198730
51331203918
51331208862
51331213684
51331219055
51331224670
51331229980
51331235351
51331239380
51331245117
51331249328
51331255371
51331260315
51331266540
51331273132
51331278381
51331284240
51331289856
51331296692
51331300232
51331307434
51331313049
51331318420
51331323913
51331329528
51331334716
51331340149
51331346557
51331349792
51331355957
51331361755
51331366577
51331371398
51331376403
51331382568
51331388244
51331392883
51331398071
51331403076
51331407104
51331412963
51331417358
51331424011
51331430297
51331435546
51331442687
51331447082
51331453918
51331457153
51331465331
51331470275
51331475402
51331481323
51331486633
51331492980
51331498840
51331504577
51331509948
51331515136
51331520873
51331526366
51331532714
51331538940
51331543456
51331549865
51331554931
51331560119
51331565063
51331570983
51331574889
51331581542
51331586181
51331592101
51331596190
51331602172
51331604979
51331611632
51331619140
51331624144
51331629454
51331633178
51331639037
51331643798
51331648803
51331654967
51331661132
51331665282
51331671263
51331676390
51331681334
51331686705
51331691710
51331698546
51331703063
51331708617
51331712706
51331718627
51331722655
51331729003
51331735289
51331741393
51331746581
51331751769
51331758055
51331761168
51331769774
51331774657
51331779478
51331785765
51331789915
51331796080
51331800169
51331805846
51331812743
51331817931
51331822630
51331827452
51331832396
51331837279
51331842650
51331848387
51331854429
51331857786
51331864317
51331869932
51331874937
51331878050
51331885801
51331890623
51331896483
51331901915
51331906065
51331911619
51331916868
51331921263
51331925718
51331933043
51331936216
51331942503
51331947752
51331952574
51331957579
51331962645
51331969053
51331973448
51331979490
51331983518
51331989439
51331993406
51331999021
51332004453
51332009275
51332015196
51332019956
51332025083
51332029905
51332035215
51332040342
51332045347
51332050840
51332057188
51332061582
51332067747
51332070738
51332077390
51332083433
51332088377
51332093137
51332097959
51332102781
51332107725
51332113401
51332118894
51332123777
51332129087
51332134336
51332138486
51332143857
51332147947
51332154478
51332160276
51332165220
51332170713
51332175718
51332179868
51332185911
51332190732
51332196164
51332201658
51332206907
51332211362
51332216672
51332221555
51332226926
51332231809
51332236325
51332243467
51332246946
51332253843
51332259702
51332264402
51332268735
51332274106
51332281003
51332285886
51332292600
51332296628
51332302426
51332308103
51332313413
51332317990
51332324094
51332328732
51332333554
51332338376
51332343564
51332348508
51332354245
51332360165
51332366757
51332372250
51332377744
51332382932
51332390500
51332394772
51332400693
51332406613
51332411679
51332416989
51332421811
51332427487
51332433102
51332438779
51332442013
51332450863
51332456174
51332461362
51332468686
51332473019
51332479245
51332482541
51332489132
51332494320
51332499020
51332504269
51332509335
51332515622
51332521298
51332526364
51332530392
51332535763
51332539791
51332546078
51332552426
51332557736
51332563290
51332568173
51332572933
51332577755
51332583432
51332588864
51332595150
51332598629
51332605404
51332608273
51332614742
51332617550
51332624691
51332631405
51332637203
51332641903
51332647335
51332651730
51332656979
51332661861
51332666378
51332673580
51332676876
51332684566
51332690853
51332696529
51332702389
51332707027
51332712948
51332719662
51332725155
51332732235
51332736568
51332742489
51332746944
51332753963
51332758846
51332763668
51332768917
51332773800
51332779110
51332784237
51332789486
51332794918
51332800045
51332805294
51332811031
51332815059
51332820369
51332824825
51332831417
51332836971
51332842037
51332847408
51332852230
51332857051
51332862178
51332868587
51332872859
51332878231
51332882442
51332888301
51332892574
51332899166
51332902278
51332909603
51332914424
51332919307
51332924617
51332929622
51332935664
51332940059
51332947200
51332950435
51332957820
51332963069
51332968074
51332973689
51332979121
51332985347
51332990047
51332995967
51332999934
51333005916
51333010066
51333016170
51333022151
51333027583
51333032710
51333037715
51333043025
51333047908
51333052913
51333059077
51333065486
51333070003
51333076045
51333081294
51333086360
51333089351
51333095698
51333102595
51333107966
51333112422
51333117305
51333122676
51333127497
51333133357
51333137934
51333145015
51333149409
51333155513
51333160823
51333165705
51333170527
51333175410
51333182795
51333186762
51333192256
51333197383
51333202265
51333206416
51333212336
51333216914
51333224787
51333229914
51333235224
51333242243
51333246882
51333254267
51333257807
51333265376
51333270930
51333276301
51333280939
51333286311
51333291010
51333295344
51333302668
51333305842
51333312800
51333315546
51333322687
51333327143
51333332148
51333338618
51333344111
51333349421
51333353388
51333358393
51333363764
51333369196
51333374933
51333379694
51333385370
51333390192
51333396174
51333401362
51333407709
51333413080
51333417841
51333424372
51333428339
51333434931
51333439020
51333445124
51333450922
51333456293
51333461115
51333466242
51333471308
51333476068
51333482233
51333486688
51333492792
51333496271
51333502558
51333506647
51333513483
51333516229
51333523248
51333529352
51333535028
51333539362
51333544611
51333551202
51333555475
51333562677
51333567438
51333573846
51333578424
51333583673
51333590204
51333595331
51333600275
51333606866
51333612482
51333617242
51333622491
51333627191
51333631402
51333637445
51333642206
51333648797
51333655389
51333661249
51333666620
51333671075
51333678277
51333683709
51333690423
51333695855
51333701471
51333706659
51333711236
51333718499
51333721673
51333728753
51333734002
51333738824
51333743768
51333748651
51333754632
51333758721
51333765740
51333770379
51333776605
51333780755
51333786981
51333792291
51333797235
51333803155
51333808221
51333813165
51333816949
51333823174
51333828973
51333833306
51333838921
51333844903
51333850213
51333855218
51333860101
51333864983
51333870110
51333874932
51333881646
51333885552
51333891656
51333896966
51333902093
51333906243
51333911309
51333915642
51333922539
51333927849
51333932610
51333937493
51333942315
51333948174
51333953545
51333959344
51333964898
51333969658
51333975030
51333979607
51333984795
51333989495
51333993828
51334001214
51334006585
51334011651
51334017266
51334023308
51334030205
51334033745
51334041680
51334047600
51334053154
51334058586
51334064141
51334069145
51334074456
51334081230
51334087273
51334092522
51334098259
51334102410
51334108513
51334115288
51334120964
51334125725
51334130547
51334136772
51334140923
51334146050
51334152458
51334157646
51334162346
51334169365
51334174126
51334179070
51334184013
51334189140
51334195915
51334200310
51334206657
51334210869
51334216118
51334222893
51334226921
51334233085
51334238579
51334244987
51334249016
51334255241
51334259331
51334265312
51334272636
51334276664
51334282463
51334287895
51334292778
51334298027
51334303520
51334308220
51334314079
51334319938
51334324821
51334329826
51334334709
51334339897
51334344963
51334351188
51334355644
51334361381
51334365470
51334372245
51334377250
51334382011
51334388114
51334393302
51334397758
51334402519
51334407829
51334413444
51334418510
51334423026
51334430106
51334433585
51334440849
51334445060
51334449882
51334455802
51334461051
51334466850
51334471122
51334477409
51334481681
51334486625
51334491996
51334497489
51334502189
51334508781
51334512015
51334519034
51334524222
51334529044
51334533561
51334538749
51334544730
51334550406
51334555716
51334559745
51334565238
51334569266
51334575309
51334582816
51334586661
51334592582
51334597525
51334602225
51334607230
51334612662
51334618766
51334624076
51334628897
51334635550
51334642203
51334647940
51334653800
51334658744
51334665579
51334671195
51334676139
51334681082
51334686453
51334691702
51334697013
51334704215
51334707572
51334713614
51334719962
51334724906
51334729727
51334734915
51334741080
51334745108
51334750479
51334756216
51334761038
51334766287
51334771231
51334778677
51334783743
51334789542
51334794424
51334799612
51334803213
51334809195
51334814871
51334819876
51334825125
51334830862
51334836722
51334841788
51334847647
51334853384
51334859366
51334864676
51334869681
51334875296
51334880179
51334885428
51334889273
51334896353
51334900869
51334905996
51334910086
51334916006
51334920279
51334927481
51334933523
51334938650
51334944082
51334947683
51334954336
51334958181
51334963797
51334969290
51334975881
51334979360
51334985708
51334990713
51334995535
51335000723
51335005850
51335012808
51335018667
51335023306
51335028677
51335033743
51335037771
51335043508
51335049368
51335054678
51335060537
51335065298
51335069997
51335075002
51335079824
51335085073
51335092092
51335096914
51335102346
51335106374
51335112600
51335117666
51335122610
51335129201
51335134450
51335139211
51335144155
51335149953
51335155263
51335160207
51335165700
51335171377
51335174672
51335181264
51335185537
51335191884
51335197438
51335202565
51335209035
51335214650
51335219045
51335224294
51335228688
51335233998
51335239553
51335246022
51335251027
51335256398
51335261708
51335266469
51335271779
51335276967
51335281545
51335288869
51335293935
51335299916
51335306142
51335310780
51335318410
51335323720
51335328908
51335333791
51335338551
51335343922
51335349233
51335354665
51335358876
51335365346
51335370778
51335375661
51335378468
51335385304
51335388905
51335393971
51335398732
51335402821
51335407277
51335409352
51335414723
51335417836
51335421559
51335426198
51335429066
51335434010
51335438038
51335441762
51335445241
51335449696
51335454091
51335457326
51335462208
51335466054
51335469533
51335473195
51335476857
51335481312
51335485585
51335489125
51335493458
51335497120
51335499257
51335503895
51335510182
51335514454
51335516957
51335522816
51335526234
51335530934
51335532338
51335537953
51335543873
51335548634
51335552967
51335556202
51335560414
51335563648
51335568348
51335573719
51335577625
51335582081
51335586354
51335590382
51335593617
51335599781
51335605274
51335609852
51335614185
51335618458
51335621510
51335625538
51335629627
51335633595
51335638660
51335642323
51335647144
51335650929
51335654652
51335659229
51335663319
51335667774
51335673634
51335676685
51335679859
51335684376
51335687488
51335692188
51335696522
51335700855
51335705555
51335708362
51335713062
51335715870
51335720936
51335724659
51335730457
51335734363
51335739795
51335743702
51335748401
51335751941
51335757374
51335760181
51335765430
51335771412
51335776050
51335780872
51335786182
51335792286
51335796436
51335802723
51335807850
51335813770
51335819751
51335824451
51335830188
51335834705
51335839160
51335845874
51335850635
51335855152
51335860584
51335864368
51335869556
51335873889
51335878284
51335886096
51335891773
51335897083
51335901050
51335906665
51335910266
51335915149
51335920154
51335925830
51335931628
51335936633
51335942127
51335946338
51335950977
51335954028
51335959644
51335965930
51335971362
51335974414
51335979907
51335983997
51335989551
51335993945
51335999316
51336006457
51336013049
51336020923
51336027392
51336032336
51336034595
51336043139
51336047412
51336055407
51336062793
51336071399
51336078540
51336085864
51336091784
51336096728
51336104113
51336109973
51336116809
51336122790
51336131274
51336142749
51336147753
51336154956
51336160693
51336167773
51336173876
51336178332
51336187060
51336191210
51336199145
51336207507
51336210558
51336219775
51336224413
51336231982
51336237780
51336240344
51336251757
51336257067
51336265368
51336272692
51336277575
51336285509
51336288195
51336296252
51336303088
51336309618
51336316027
51336323290
51336330126
51336335436
51336344286
51336349413
51336357103
51336363268
51336369372
51336375597
51336384203
51336390673
51336397997
51336403856
51336409838
51336412218
51336423998
51336426561
51336434923
51336442491
51336450975
51336458788
51336466661
51336472826
51336475878
51336487352
51336490709
51336500353
51336505846
51336515978
51336523363
51336530748
51336536852
51336539659
51336550157
51336557359
51336565111
51336571825
51336576097
51336585069
51336591722
51336598863
51336604784
51336607286
51336617235
51336622240
51336630479
51336637987
51336645006
51336651475
51336654527
51336663621
51336670152
51336677110
51336683152
51336690355
51336696031
51336704881
51336713304
51336717515
51336725145
51336731980
51336737046
51336746324
51336752976
51336757676
51336763597
51336773728
51336780198
51336784898
51336791001
51336796861
51336804978
51336810716
51336815537
51336823350
51336831712
51336838670
51336844346
51336848985
51336856431
51336862351
51336870469
51336876206
51336880784
51336889329
51336895249
51336903245
51336909897
51336918809
51336924851
51336929612
51336937302
51336941636
51336950425
51336956223
51336964219
51336970078
51336973984
51336982651
51336989121
51336993943
51337003098
51337007737
51337015305
51337022263
51337030258
51337036667
51337043076
51337047959
51337054428
51337062302
51337068344
51337073044
51337080795
51337087509
51337094589
51337100937
51337106247
51337113693
51337120163
51337127548
51337133591
51337138229
51337144333
51337150925
51337158371
51337164230
51337168930
51337177292
51337183090
51337189316
51337195419
51337200058
51337208176
51337214645
51337220627
51337226974
51337231491
51337240890
51337247299
51337254196
51337260544
51337267441
51337273605
51337278305
51337287277
51337294479
51337297348
51337306808
51337311264
51337319931
51337325851
51337333419
51337339706
51337343490
51337353927
51337357711
51337366134
51337372421
51337374984
51337384506
51337391097
51337396774
51337403060
51337408737
51337417831
51337422775
51337432845
51337439376
51337445541
51337451766
51337456222
51337463241
51337471664
51337478133
51337484481
51337489120
51337497115
51337504134
51337510116
51337516158
51337523726
51337529647
51337534591
51337544906
51337551497
51337559737
51337566634
51337569198
51337577620
51337583968
51337591292
51337597335
51337605208
51337614424
51337620894
51337626937
51337633223
51337639571
51337648421
51337651717
51337661666
51337667159
51337675826
51337683638
51337691145
51337696761
51337704512
51337711226
51337716597
51337725874
51337730940
51337740279
51337746931
51337753096
51337759138
51337765486
51337770735
51337778914
51337781416
51337790388
51337796004
51337805891
51337812727
51337819319
51337824995
51337832014
51337838301
51337842817
51337850020
51337856184
51337864546
51337870955
51337876509
51337884932
51337891584
51337895979
51337904036
51337910688
51337916487
51337921675
51337931318
51337935652
51337943891
51337951094
51337959150
51337967390
51337970686
51337980390
51337986006
51337994856
51338000532
51338007917
51338014082
51338016645
51338025800
51338032575
51338038374
51338045026
51338052778
51338059980
51338065107
51338073774
51338080671
51338087018
51338093122
51338095746
51338104780
51338112104
51338120527
51338124311
51338130903
51338139142
51338141706
51338150800
51338157331
51338162397
51338168683
51338176313
51338186750
51338191938
51338201032
51338204877
51338212629
51338218854
51338223310
51338232099
51338237104
51338246076
51338252545
51338255475
51338264630
51338271222
51338277509
51338283246
51338290692
51338296979
51338303754
51338314069
51338321881
51338328778
51338335187
51338343304
51338351666
51338355145
51338364545
51338372296
51338380658
51338387921
51338395734
51338400494
51338408917
51338415509
51338420636
51338429120
51338436871
51338444012
51338451336
51338460248
51338465985
51338470562
51338478558
51338485394
51338491131
51338495037
51338501324
51338511822
51338518597
51338526226
51338530011
51338538311
51338544110
51338548626
51338557598
51338562786
51338570538
51338579205
51338582256
51338591046
51338596050
51338604046
51338610149
51338616802
51338622601
51338628887
51338637981
51338645306
51338650494
51338658672
51338664654
51338670574
51338674725
51338682171
51338688457
51338695660
51338704998
51338708050
51338717327
51338725261
51338730816
51338736614
51338741131
51338750103
51338755779
51338764324
51338771526
51338777935
51338786419
51338789470
51338801189
51338804607
51338813823
51338821758
51338829204
51338837688
51338844402
51338853374
51338856487
51338865764
51338872661
51338878826
51338885661
51338893352
51338899944
51338907878
51338913921
51338918437
51338926311
51338930400
51338937785
51338943645
51338949809
51338959636
51338966533
51338972270
51338980083
51338982768
51338992656
51338997294
51339003398
51339009257
51339017192
51339025981
51339029155
51339038798
51339043986
51339051982
51339058146
51339065043
51339070842
51339078898
51339087016
51339094035
51339100444
51339106669
51339113505
51339119426
51339125895
51339131449
51339137919
51339146525
51339153178
51339158122
51339166483
51339170634
51339179118
51339185343
51339190775
51339196757
51339207011
51339215250
51339221598
51339229777
51339235880
51339240824
51339248087
51339254557
51339261393
51339267680
51339275187
51339281657
51339287089
51339295878
51339299906
51339307596
51339313334
51339317972
51339326517
51339330729
51339341410
51339348063
51339355143
51339361185
51339367899
51339374308
51339380411
51339386881
51339392923
51339398355
51339407938
51339414713
51339421305
51339427347
51339433084
51339439249
51339445658
51339452310
51339459024
51339465860
51339472818
51339478128
51339486307
51339492899
51339498636
51339506387
51339509073
51339519083
51339524759
51339532938
51339539896
51339547342
51339553323
51339558023
51339564981
51339571085
51339578104
51339586465
51339592630
51339601785
51339606851
51339615274
51339619180
51339626809
51339633218
51339637613
51339645730
51339654214
51339661172
51339667764
51339675821
51339682168
51339686807
51339694253
51339700540
51339708047
51339714212
51339719522
51339729653
51339734658
51339741311
51339747354
51339752236
51339761880
51339766580
51339772866
51339778848
51339791604
51339798989
51339803994
51339812844
51339819619
51339824746
51339830849
51339835732
51339844460
51339850320
51339859841
51339867837
51339874062
51339880349
51339886391
51339892556
51339899148
51339906106
51339912881
51339921242
51339927895
51339933205
51339942910
51339946877
51339954995
51339961342
51339965859
51339973977
51339984536
51339990761
51339997292
51340006142
51340012429
51340017372
51340025551
51340032204
51340038185
51340044411
51340051918
51340061135
51340066445
51340074501
51340078530
51340086647
51340092690
51340097328
51340106545
51340114479
51340121559
51340127907
51340134071
51340140236
51340146706
51340154091
51340159889
51340162514
51340171913
51340180763
51340187477
51340194313
51340199684
51340205665
51340214027
51340220314
51340224891
51340232338
51340238868
51340247780
51340254066
51340258949
51340267189
51340271217
51340280006
51340285804
51340290504
51340298866
51340303443
51340311683
51340318031
51340325904
51340331947
51340336647
51340344764
51340351844
51340354530
51340363990
51340372596
51340379005
51340385841
51340391090
51340398902
51340401527
51340410011
51340416724
51340422828
51340431190
51340437476
51340446387
51340452613
51340458900
51340465369
51340470435
51340476844
51340481361
51340490577
51340495887
51340504432
51340511268
51340517798
51340523841
51340528785
51340536963
51340543189
51340549231
51340557532
51340562415
51340573218
51340578040
51340586280
51340592017
51340598670
51340605078
51340609595
51340616736
51340623511
51340632178
51340639075
51340643653
51340650061
51340656287
51340662451
51340670813
51340673560
51340681677
51340694617
51340702063
51340706458
51340713416
51340721167
51340726050
51340734778
51340738867
51340747839
51340753638
51340761450
51340768713
51340775183
51340781348
51340787512
51340790076
51340801489
51340806006
51340812964
51340819433
51340828039
51340834509
51340840246
51340848486
51340855383
51340860632
51340868506
51340871130
51340879553
51340886877
51340894262
51340900854
51340908789
51340914709
51340919470
51340927099
51340933264
51340939611
51340947607
51340954748
51340961279
51340968176
51340973730
51340979772
51340984716
51340993261
51341000707
51341007116
51341011144
51341016760
51341027074
51341031896
51341038976
51341045324
51341051977
51341057836
51341062536
51341070775
51341077367
51341085485
51341092504
51341099706
51341105749
51341110814
51341118566
51341124608
51341130651
51341136571
51341145910
51341152807
51341156835
51341166906
51341172826
51341177770
51341184728
51341190709
51341197606
51341203466
51341212194
51341218480
51341225194
51341232030
51341238256
51341244481
51341250463
51341255467
51341262364
51341273229
51341280065
51341286412
51341294225
51341300450
51341305333
51341314122
51341320531
51341326390
51341332188
51341337804
51341345738
51341352330
51341359654
51341365575
51341372227
51341378148
51341384862
51341390843
51341397435
51341408238
51341415135
51341419591
51341427403
51341433995
51341441624
51341447667
51341453770
51341459691
51341467564
51341474339
51341481663
51341489903
51341499180
51341502476
51341513829
51341516880
51341527012
51341535496
51341543370
51341550083
51341553074
51341562718
51341570225
51341577854
51341584263
51341587254
51341597019
51341605808
51341614475
51341620335
51341627537
51341636997
51341643467
51341649570
51341655857
51341662266
51341667942
51341676182
51341682224
51341689609
51341696018
51341698948
51341711033
51341715915
51341723240
51341732456
51341739475
51341746799
51341755100
51341761631
51341770115
51341776096
51341781345
51341790256
51341797763
51341805210
51341810398
51341819126
51341825534
51341835910
51341843357
51341850192
51341856662
51341865390
51341872104
51341879855
51341885410
51341890476
51341899143
51341905734
51341912753
51341920016
51341926974
51341933566
51341941562
51341947360
51341954135
51341960422
51341967502
51341973788
51341981479
51341987887
51341994967
51342003512
51342009738
51342016635
51342022921
51342027804
51342037936
51342043795
51342052951
51342060580
51342068576
51342075717
51342083102
51342089633
51342094638
51342104830
51342110629
51342117648
51342125033
51342133151
51342137667
51342144381
51342151034
51342156954
51342159518
51342170626
51342175204
51342187167
51342192111
51342198763
51342204623
51342207186
51342218172
51342222201
51342229159
51342234957
51342240511
51342251925
51342256869
51342264254
51342271090
51342276888
51342282809
51342287813
51342294466
51342303194
51342310763
51342320101
51342323153
51342332796
51342337252
51342344637
51342350557
51342353121
51342363680
51342370638
51342380526
51342384737
51342392672
51342398470
51342405245
51342411104
51342415621
51342423311
51342429964
51342439363
51342446016
51342453584
51342459749
51342465669
51342472688
51342479036
51342485506
51342491487
51342503267
51342509676
51342516634
51342523042
51342530183
51342539217
51342546419
51342555025
51342560029
51342569551
51342576997
51342584443
51342590547
51342593477
51342604524
51342608857
51342616243
51342624299
51342631318
51342639131
51342647737
51342653962
51342660676
51342666414
51342671479
51342681794
51342689912
51342698152
51342705781
51342712983
51342719514
51342726289
51342733125
51342740693
51342747346
51342754182
51342762788
51342770234
51342775300
51342782441
51342789399
51342798432
51342805329
51342810395
51342819733
51342824982
51342832612
51342842133
51342845551
51342854829
51342861298
51342870576
51342877045
51342880036
51342890046
51342899140
51342906769
51342914155
51342923066
51342930329
51342936493
51342946930
51342952485
51342962677
51342971161
51342977021
51342987213
51342992218
51343001190
51343003937
51343015229
51343019440
51343027252
51343034027
51343041962
51343051788
51343059967
51343066803
51343073639
51343081879
51343088532
51343094086
51343101837
51343109650
51343118683
51343125580
51343128815
51343139740
51343147674
51343155304
51343162445
51343167084
51343173431
51343180755
51343191986
51343199127
51343205841
51343212433
51343219635
51343228668
51343234283
51343241668
51343249481
51343258148
51343265838
51343271820
51343281890
51343287017
51343295501
51343302032
51343304962
51343315093
51343323089
51343332977
51343337188
51343344879
51343351592
51343356963
51343366790
51343374236
51343380096
51343386993
51343394134
51343404144
51343408782
51343417998
51343425018
51343432586
51343439239
51343447112
51343453216
51343460357
51343467681
51343474700
51343480559
51343487761
51343494414
51343502288
51343508819
51343516265
51343524199
51343532195
51343538237
51343547637
51343550933
51343560576
51343567961
51343576201
51343582976
51343585845
51343595549
51343601531
51343612456
51343617278
51343625762
51343632781
51343638213
51343646269
51343653655
51343661040
51343667815
51343675688
51343682890
51343690520
51343697173
51343703886
51343709258
51343719145
51343724394
51343733488
51343737883
51343743925
51343755217
51343761259
51343768461
51343775053
51343782133
51343791289
51343796415
51343803740
51343811247
51343817595
51343827238
51343830595
51343840910
51343848112
51343856047
51343863615
51343866484
51343877775
51343883207
51343894804
51343902067
51343910185
51343916777
51343921964
51343929960
51343936979
51343944425
51343951261
51343957304
51343967802
51343972501
51343980253
51343987394
51343996305
51344003141
51344007780
51344015714
51344022794
51344029264
51344038785
51344046842
51344054655
51344061735
51344068571
51344075468
51344083097
51344090238
51344097867
51344108365
51344115934
51344119291
51344128019
51344134855
51344142728
51344151944
51344170133
51344178311
51344186063
51344193387
51344196622
51344209683
51344216031
51344223416
51344227750
51344237515
51344244534
51344249539
51344261807
51344267362
51344274747
51344281827
51344286954
51344296658
51344304105
51344310818
51344318326
51344326871
51344333646
51344339688
51344349454
51344357266
51344363858
51344370633
51344373562
51344384183
51344393094
51344401639
51344409268
51344417508
51344423794
51344428738
51344436123
51344442471
51344450833
51344457180
51344462735
51344472256
51344479336
51344484585
51344492947
51344495816
51344505337
51344512417
51344519070
51344525540
51344531338
51344541226
51344546230
51344555081
51344558865
51344566677
51344573208
51344577541
51344584377
51344591152
51344597378
51344606533
51344609646
51344618984
51344625759
51344631069
51344638760
51344641323
51344649807
51344656521
51344662929
51344669826
51344678432
51344686367
51344689968
51344699550
51344704738
51344714199
51344722744
51344729824
51344737148
51344744838
51344751125
51344758388
51344764553
51344769069
51344775966
51344783657
51344793239
51344799831
51344807033
51344812953
51344817836
51344824916
51344830776
51344837612
51344843471
51344851528
51344860927
51344865260
51344872829
51344878871
51344883327
51344891994
51344896693
51344903102
51344909084
51344915980
51344927821
51344932765
51344940394
51344946559
51344952479
51344960231
51344965968
51344972072
51344981654
51344989711
51344996913
51345003566
51345009913
51345019130
51345025660
51345033656
51345040675
51345046473
51345056117
51345061366
51345069178
51345076014
51345084437
51345091212
51345098231
51345104762
51345114100
51345119288
51345126673
51345137354
51345143702
51345148768
51345157069
51345164027
51345169520
51345176234
51345181666
51345192652
51345197657
51345205958
51345214686
51345220728
51345226588
51345233301
51345238367
51345244776
51345253260
51345260218
51345265894
51345274256
51345280787
51345286646
51345292505
51345297205
51345306116
51345311548
51345318934
51345326380
51345333460
51345339502
51345344324
51345352076
51345357996
51345365198
51345370935
51345376612
51345387903
51345392908
51345400904
51345404810
51345411646
51345419824
51345422388
51345431360
51345439295
51345445459
51345452173
51345459802
51345465784
51345470483
51345480249
51345484033
51345491480
51345497705
51345502771
51345512170
51345517786
51345526086
51345532068
51345534692
51345543848
51345550867
51345558069
51345562707
51345573999
51345580896
51345587427
51345593530
51345600122
51345605371
51345611230
51345615869
51345624597
51345632348
51345639672
51345646020
51345648828
51345658105
51345664941
51345672082
51345678125
51345685021
51345690881
51345698449
51345705895
51345712182
51345718591
51345724511
51345729333
51345737878
51345743676
51345752038
51345759240
51345767846
51345774377
51345779260
51345786584
51345792565
51345799462
51345805383
51345810082
51345819421
51345824120
51345833337
51345839806
51345846947
51345852929
51345856896
51345864648
51345870385
51345874901
51345883324
51345893578
51345901391
51345905785
51345914086
51345919945
51345924584
51345933312
51345939171
51345946251
51345952416
51345960045
51345966332
51345970299
51345977806
51345983788
51345988610
51345997765
51346004540
51346011070
51346018028
51346025353
51346031761
51346036522
51346044335
51346050316
51346058495
51346064354
51346068932
51346077843
51346082359
51346090660
51346096947
51346104393
51346110374
51346117027
51346123497
51346129723
51346132286
51346141075
51346148521
51346156029
51346165062
51346170494
51346180015
51346186058
51346194175
51346197593
51346207542
51346213646
51346223472
51346230369
51346235679
51346241966
51346246360
51346255882
51346259849
51346267601
51346273704
51346282249
51346288841
51346293907
51346302024
51346307884
51346310508
51346321739
51346324241
51346332176
51346339073
51346346702
51346353416
51346360374
51346366477
51346373008
51346378867
51346384727
51346393150
51346399009
51346404136
51346413474
51346420432
51346425742
51346431602
51346436301
51346445823
51346450522
51346458152
51346464622
51346474753
51346481162
51346486289
51346494285
51346501059
51346506369
51346512290
51346517295
51346524375
51346532004
51346539878
51346546592
51346554587
51346562827
51346565451
51346574790
51346581687
51346587485
51346593589
51346604636
51346611167
51346616355
51346625022
51346631857
51346636557
51346644553
51346647238
51346657248
51346662802
51346669577
51346676108
51346684348
51346693625
51346696738
51346705832
51346712363
51346719809
51346724142
51346734640
51346743307
51346746298
51346755697
51346760214
51346768393
51346774679
51346777243
51346785544
51346793295
51346802267
51346809408
51346815085
51346821371
51346825827
51346833639
51346840292
51346846823
51346854086
51346861776
51346868490
51346873129
51346881185
51346887777
51346893270
51346899618
51346904135
51346913351
51346917867
51346926657
51346933004
51346940267
51346946615
51346953146
51346959615
51346965780
51346972494
51346978902
51346984213
51346992879
51347000631
51347006918
51347013326
51347021139
51347027181
51347034017
51347039998
51347046712
51347055196
51347062398
51347067525
51347077108
51347081746
51347089681
51347095968
51347098592
51347108846
51347114095
51347123067
51347130452
51347138448
51347143331
51347150960
51347157125
51347164632
51347170674
51347175435
51347185567
51347194234
51347197225
51347206502
51347211080
51347218648
51347224874
51347231343
51347237325
51347243611
51347254048
51347260945
51347266560
51347272420
51347277058
51347286336
51347293050
51347298238
51347304402
51347314900
51347324055
51347327107
51347336568
51347344319
51347350850
51347356831
51347363179
51347369099
51347377339
51347387593
51347394673
51347402119
51347407979
51347414631
51347420979
51347427510
51347433918
51347440388
51347447041
51347455708
51347462361
51347468281
51347475056
51347481098
51347487446
51347494831
51347501301
51347508564
51347520405
51347525410
51347533344
51347540608
51347549458
51347558125
51347561359
51347572529
51347577900
51347585346
51347592426
51347601093
51347607807
51347610676
51347620380
51347627827
51347635944
51347643879
51347650532
51347658100
51347665729
51347672870
51347680500
51347688556
51347695087
51347698078
51347709919
51347713825
51347726032
51347731647
51347739276
51347746051
51347754901
51347761615
51347766986
51347775104
51347782855
51347789386
51347796710
51347800006
51347812580
51347817951
51347825885
51347832843
51347839557
51347846759
51347855853
51347863239
51347866596
51347877460
51347884540
51347893085
51347897540
51347904864
51347911883
51347920550
51347927325
51347934588
51347940814
51347948260
51347954181
51347961017
51347969501
51347976764
51347984149
51347993609
51348002093
51348009662
51348016742
51348023333
51348032611
51348039447
51348046405
51348054522
51348060931
51348067889
51348076434
51348083087
51348088763
51348097308
51348104205
51348113116
51348120562
51348128008
51348137469
51348144854
51348153216
51348159686
51348167559
51348174090
51348179278
51348188250
51348193194
51348202776
51348212664
51348215960
51348226214
51348230364
51348239397
51348246050
51348248797
51348260393
51348266558
51348274859
51348282305
51348285540
51348297564
51348303301
51348312883
51348318316
51348327593
51348335222
51348344072
51348351397
51348359148
51348366228
51348373735
51348379839
51348386919
51348389849
51348400591
51348408769
51348417070
51348426347
51348443926
51348461443
51348469621
51348476396
51348483598
51348492754
51348500444
51348507951
51348515214
51348521013
51348529802
51348532793
51348543168
51348548234
51348557695
51348565935
51348574174
51348582231
51348590410
51348597734
51348603654
51348613481
51348622026
51348629777
51348637407
51348647660
51348654374
51348662065
51348669328
51348674455
51348683488
51348690080
51348698014
51348704423
51348710099
51348720414
51348727799
51348733170
51348739884
51348745194
51348753861
51348761369
51348769303
51348776627
51348782182
51348793717
51348799271
51348806657
51348813065
51348820939
51348827897
51348833024
51348843278
51348848405
51348858292
51348865738
51348874161
51348880570
51348887955
51348894852
51348901566
51348909440
51348916031
51348922989
51348932511
51348940445
51348947037
51348953568
51348958695
51348967911
51348975235
51348982437
51348989029
51348995743
51349005814
51349011978
51349021439
51349028092
51349034744
51349041336
51349048660
51349055191
51349062210
51349072464
51349079361
51349085525
51349094681
51349099197
51349108597
51349115188
51349118179
51349129227
51349138565
51349144424
51349154190
51349157852
51349169876
51349176529
51349182998
51349190384
