51349808119
51349813734
51349819410
51349824781
51349829908
51349835829
51349842482
51349847731
51349854139
51349860365
51349866346
51349874464
51349880873
51349887220
51349893385
51349899000
51349906996
51349914076
51349920667
51349925611
51349935072
51349941663
51349948499
51349955701
51349960462
51349968946
51349975172
51349982069
51349988294
51349994947
51350000928
51350008375
51350015028
51350021436
51350027418
51350034009
51350039747
51350047742
51350055738
51350062818
51350070630
51350079114
51350084119
51350091871
51350098951
51350106031
51350114576
51350122632
51350128492
51350138318
51350145337
51350153455
51350162366
51350169263
51350176404
51350182813
51350190625
51350198316
51350206738
51350213513
51350221387
51350227918
51350237866
51350243787
51350252148
51350259106
51350266492
51350273450
51350281811
51350289868
51350294812
51350304761
51350311047
51350318555
51350324658
51350331250
51350339429
51350346997
51350353467
51350361096
51350367749
51350374829
51350380566
51350389416
51350397900
51350403820
51350411023
51350417065
51350425610
51350432141
51350439404
51350447094
51350452893
51350459790
51350465466
51350472912
51350480969
51350489330
51350495739
51350502026
51350510143
51350515698
51350521618
51350529369
51350536755
51350541637
51350548840
51350555676
51350562206
51350568981
51350576366
51350583080
51350590527
51350597301
51350605236
51350611034
51350619152
51350626232
51350635448
51350641491
51350651500
51350658458
51350666027
51350672435
51350680919
51350688121
51350697399
51350705211
51350712780
51350719493
51350726146
51350735118
51350740673
51350750865
51350759227
51350768444
51350776256
51350784984
51350792674
51350801219
51350810680
51350817455
51350826183
51350836925
51350845226
51350852123
51350859203
51350870189
51350878673
51350888499
51350898082
51350904491
51350914317
51350920421
51350931712
51350939403
51350949901
51350957042
51350964305
51350972972
51350981761
51350989817
51350999156
51351009044
51351015391
51351022776
51351032054
51351041026
51351050364
51351058360
51351068492
51351076609
51351085581
51351095469
51351102671
51351111521
51351120677
51351131846
51351140025
51351148631
51351154856
51351163645
51351174509
51351181956
51351191843
51351200083
51351208689
51351216990
51351225535
51351234080
51351243479
51351251475
51351260080
51351270273
51351276743
51351286509
51351296763
51351305063
51351313547
51351321421
51351329050
51351336374
51351346384
51351354380
51351365793
51351373361
51351381479
51351390329
51351398386
51351406381
51351413645
51351425180
51351434213
51351440378
51351450937
51351457101
51351465585
51351471750
51351481882
51351490671
51351498910
51351505502
51351515024
51351522043
51351529367
51351537424
51351546823
51351554025
51351562204
51351571481
51351579721
51351587106
51351594796
51351601938
51351609811
51351617013
51351627877
51351635812
51351644845
51351651071
51351661019
51351670907
51351677499
51351688424
51351695260
51351702828
51351710519
51351717172
51351724008
51351732858
51351743050
51351750192
51351758370
51351767159
51351775216
51351781991
51351791573
51351798714
51351806344
51351813790
51351821786
51351831063
51351839547
51351847725
51351855721
51351865304
51351873421
51351883187
51351891365
51351899910
51351908211
51351915963
51351923897
51351930062
51351939400
51351948067
51351957466
51351964913
51351972298
51351979134
51351987557
51351994270
51352002510
51352009163
51352018013
51352025520
51352034737
51352043648
51352051277
51352059151
51352067329
51352076424
51352083870
51352090584
51352097664
51352106697
51352115547
51352122383
51352130562
51352135628
51352145271
51352152229
51352156990
51352163093
51352169319
51352175911
51352181282
51352186165
51352191475
51352197944
51352202339
51352209846
51352215705
51352221077
51352226631
51352232917
51352238899
51352244880
51352252021
51352256599
51352263130
51352269660
51352275154
51352281867
51352286262
51352291816
51352298896
51352304817
51352308784
51352315009
51352320442
51352326301
51352332221
51352338264
51352343635
51352349128
51352355781
51352360053
51352366706
51352371162
51352377814
51352383002
51352388618
51352395087
51352399299
51352405402
51352410041
51352415473
51352421271
51352426764
51352431464
51352437263
51352442084
51352448188
51352452521
51352458381
51352464423
51352470405
51352475837
51352481879
51352486701
51352492011
51352496833
51352503241
51352508857
51352513434
51352518561
51352524420
51352529486
51352535590
51352541205
51352544867
51352551276
51352554816
51352561713
51352566229
51352571356
51352576483
51352582526
51352587226
51352592475
51352596686
51352602118
51352606879
51352612555
51352618109
51352623297
51352627875
51352633856
51352638495
51352643073
51352648810
51352653937
51352660162
51352665350
51352669501
51352674506
51352679816
51352683966
51352690680
51352697272
51352701605
51352706366
51352711676
51352716253
51352721380
51352726385
51352731756
51352737860
51352742376
51352747687
51352752325
51352756720
51352761603
51352767279
51352773321
51352777105
51352783209
51352787359
51352791876
51352797003
51352801886
51352807196
51352813543
51352817633
51352823431
51352827703
51352833013
51352839056
51352844061
51352849249
51352854864
51352859503
51352864874
51352869390
51352874334
51352879278
51352885015
51352890692
51352895208
51352899542
51352905096
51352909246
51352915594
51352921270
51352926214
51352931463
51352936102
51352941351
51352946050
51352950994
51352955816
51352960638
51352966802
51352970769
51352976629
51352981145
51352986578
51352991033
51352998907
51353003728
51353007329
51353012945
51353018682
51353023382
51353027105
51353033147
51353039800
51353044134
51353048650
51353054387
51353059209
51353063482
51353068914
51353075444
51353081060
51353086370
51353091130
51353096318
51353100835
51353105962
51353111272
51353116826
51353121648
51353125859
51353131658
51353136724
51353140996
51353146916
51353152898
51353158574
51353164006
51353168767
51353174321
51353178899
51353182500
51353188542
51353194158
51353200383
51353204106
51353209783
51353214848
51353219060
51353223393
51353230718
51353236028
51353239812
51353246281
51353249821
51353255193
51353260686
51353265691
51353271123
51353276189
51353282109
51353286442
51353290837
51353296635
51353300664
51353307133
51353311833
51353317387
51353324284
51353329411
51353335393
51353342045
51353347539
51353352543
51353356144
51353363469
51353368351
51353373967
51353378361
51353383976
51353389347
51353395390
51353401310
51353406254
51353411991
51353416081
51353422062
51353428532
51353433598
51353438420
51353443424
51353449528
51353454533
51353460697
51353467167
51353471012
51353476689
51353482426
51353487248
51353491642
51353498112
51353504154
51353509220
51353514713
51353518620
51353524174
51353528141
51353535404
51353540958
51353546879
51353550602
51353556156
51353561527
51353566898
51353573307
51353578190
51353584354
51353589237
51353595157
51353600223
51353605228
51353610477
51353616825
51353622074
51353626835
51353632694
51353637394
51353643070
51353647220
51353653202
51353659000
51353662723
51353669925
51353674869
51353680484
51353685062
51353691227
51353697147
51353701847
51353707889
51353713443
51353719181
51353723270
51353728946
51353734073
51353739688
51353744327
51353748905
51353755008
51353759525
51353766788
51353770938
51353776554
51353781619
51353787845
51353792545
51353796817
51353802921
51353808963
51353814822
51353819583
51353823673
51353830386
51353836002
51353841129
51353845889
51353852237
51353856204
51353861758
51353867801
51353873599
51353878970
51353884402
51353889773
51353895206
51353900882
51353905337
51353911136
51353915347
51353922305
51353926578
51353932620
51353938907
51353942813
51353949405
51353954348
51353959720
51353965762
51353971743
51353976443
51353981509
51353986819
51353990603
51353997927
51354003421
51354009158
51354013369
51354019107
51354023501
51354030459
51354035525
51354040713
51354047000
51354051577
51354057253
51354061343
51354067385
51354075320
51354079775
51354086062
51354091555
51354095767
51354101870
51354106936
51354113406
51354119204
51354124331
51354128970
51354134829
51354140139
51354145693
51354151186
51354155703
51354162661
51354166994
51354173037
51354178713
51354182864
51354187136
51354194155
51354199038
51354205019
51354209841
51354215090
51354220034
51354225161
51354232485
51354237185
51354242190
51354247500
51354252993
51354257814
51354263125
51354269533
51354273684
51354279421
51354285952
51354289919
51354297731
51354302614
51354308901
51354314394
51354319033
51354323671
51354329164
51354333071
51354338381
51354343019
51354348940
51354355470
51354359865
51354364443
51354369875
51354374574
51354380068
51354384828
51354390444
51354396181
51354400942
51354405092
51354410158
51354415590
51354419496
51354425417
51354432008
51354436830
51354441469
51354446291
51354452028
51354456667
51354461916
51354468080
51354472719
51354478029
51354482362
51354487916
51354492311
51354497133
51354503847
51354508485
51354513795
51354519533
51354524843
51354529664
51354534547
51354539735
51354545045
51354551210
51354555055
51354560914
51354565858
51354571290
51354575502
51354581666
51354587709
51354591188
51354597474
51354601075
51354607667
51354611390
51354616822
51354622499
51354627565
51354632508
51354638368
51354642640
51354647340
51354653199
51354659303
51354664002
51354669618
51354675050
51354681275
51354687623
51354692323
51354698365
51354704713
51354708680
51354714356
51354719910
51354724793
51354730897
51354736634
51354742005
51354746094
51354751832
51354757508
51354762452
51354767335
51354773743
51354779114
51354785157
51354791016
51354796631
51354801819
51354806824
51354811890
51354817505
51354822449
51354827210
51354833008
51354837159
51354842896
51354846558
51354853333
51354858277
51354863648
51354869202
51354872864
51354878357
51354883301
51354888123
51354894349
51354899781
51354904297
51354910218
51354913880
51354919495
51354923401
51354930603
51354935486
51354940918
51354947022
51354953125
51354958618
51354962708
51354968933
51354974487
51354980774
51354985474
51354989746
51354996033
51355000977
51355007019
51355012390
51355018738
51355023682
51355029236
51355033997
51355038269
51355044312
51355049927
51355055481
51355060364
51355065430
51355071594
51355076172
51355081238
51355087158
51355093017
51355097046
51355103821
51355108459
51355113647
51355119018
51355124634
51355130859
51355135498
51355140991
51355145813
51355151489
51355156616
51355162292
51355168335
51355173401
51355177795
51355184082
51355188964
51355193908
51355200012
51355205139
51355211181
51355216064
51355221252
51355227417
51355231384
51355236999
51355243347
51355247131
51355253662
51355258361
51355263183
51355268554
51355274963
51355279846
51355286193
51355291564
51355297180
51355301879
51355307433
51355312804
51355319030
51355325011
51355329955
51355335143
51355340026
51355345458
51355350524
51355355224
51355361205
51355366027
51355371642
51355377379
51355381286
51355387206
51355394469
51355400023
51355405883
51355412230
51355416503
51355422912
51355430053
51355435241
51355441039
51355445250
51355451171
51355456176
51355461974
51355468078
51355473388
51355478270
51355483825
51355488829
51355494750
51355499938
51355503783
51355511046
51355516051
51355521056
51355525389
51355531127
51355536254
51355541747
51355545653
51355552245
51355557006
51355562438
51355568358
51355571959
51355577330
51355580931
51355588561
51355593199
51355599608
51355603880
51355608580
51355614439
51355618773
51355624266
51355630186
51355634276
51355640135
51355645018
51355650450
51355656065
51355659727
51355665343
51355671141
51355676329
51355679930
51355687193
51355691099
51355696898
51355700438
51355706480
51355712462
51355717039
51355721678
51355727110
51355731444
51355736937
51355742430
51355748839
51355754088
51355758665
51355763426
51355768370
51355774290
51355778257
51355784544
51355789610
51355795286
51355799803
51355805357
51355809141
51355814573
51355819578
51355826048
51355831663
51355835264
51355840696
51355846067
51355850706
51355854368
51355861936
51355867674
51355872312
51355876646
51355882688
51355887632
51355893125
51355896604
51355904600
51355909788
51355913450
51355918943
51355924070
51355929807
51355934568
51355940000
51355945005
51355951292
51355956235
51355960508
51355965269
51355970701
51355975034
51355981260
51355986753
51355991453
51355996763
51356001829
51356007688
51356011777
51356017087
51356023191
51356028379
51356033994
51356038389
51356044065
51356048398
51356052366
51356060422
51356065793
51356069516
51356075193
51356080381
51356085080
51356090146
51356095212
51356100827
51356107053
51356111325
51356117307
51356121884
51356127439
51356132077
51356137937
51356142209
51356147702
51356152341
51356157712
51356163754
51356167539
51356173276
51356177304
51356183835
51356188413
51356194211
51356198361
51356204221
51356207944
51356214230
51356219174
51356224606
51356229001
51356234433
51356239011
51356244443
51356249814
51356255246
51356260312
51356264096
51356270688
51356275693
51356280514
51356285702
51356290951
51356297238
51356301877
51356306271
51356311703
51356316098
51356321469
51356326291
51356332150
51356338131
51356341794
51356348202
51356352597
51356357235
51356362240
51356368039
51356372921
51356379330
51356383603
51356389584
51356394039
51356399350
51356404965
51356411251
51356416378
51356421322
51356426937
51356431881
51356436581
51356441708
51356446957
51356452633
51356459225
51356464779
51356469174
51356474178
51356480343
51356486935
51356491329
51356497982
51356503536
51356509152
51356514156
51356519894
51356524715
51356530697
51356536251
51356541134
51356546444
51356553585
51356558651
51356565121
51356570614
51356575619
51356581356
51356588680
51356593319
51356598079
51356603878
51356608516
51356615597
51356619747
51356625362
51356631588
51356637691
51356642452
51356648678
51356654720
51356659664
51356665767
51356672115
51356677974
51356681453
51356688411
51356692867
51356699153
51356705623
51356711299
51356716915
51356722225
51356727413
51356732479
51356737178
51356742061
51356747310
51356754878
51356758418
51356764095
51356769710
51356775508
51356782344
51356788814
51356793758
51356799190
51356803279
51356809261
51356813533
51356819881
51356827449
51356831905
51356838008
51356841914
51356849361
51356854671
51356859676
51356865291
51356871394
51356876216
51356881038
51356886104
51356892573
51356897639
51356903682
51356910029
51356916011
51356922114
51356927119
51356933101
51356938167
51356944209
51356950312
51356956172
51356960444
51356967646
51356973079
51356979548
51356985652
51356990168
51356994868
51357001033
51357007319
51357010432
51357017451
51357022822
51357029231
51357035395
51357040278
51357047846
51357052912
51357059321
51357063166
51357070735
51357075434
51357081416
51357088740
51357094172
51357099970
51357105402
51357110957
51357116938
51357122370
51357128046
51357133601
51357137324
51357144160
51357149836
51357155451
51357159846
51357164545
51357170893
51357175959
51357180842
51357187250
51357192072
51357195673
51357201716
51357205561
51357212214
51357217158
51357222529
51357227778
51357231318
51357238154
51357242365
51357248652
51357253229
51357258722
51357265863
51357271601
51357276972
51357282770
51357288202
51357294611
51357299860
51357304743
51357308405
51357314142
51357319574
51357325189
51357330622
51357336725
51357341120
51357346552
51357350702
51357356317
51357361139
51357367426
51357373102
51357378412
51357383051
51357386896
51357393793
51357397699
51357403131
51357409662
51357414301
51357419305
51357424615
51357429315
51357434625
51357438409
51357444391
51357450006
51357454889
51357460443
51357464044
51357469903
51357475030
51357480218
51357485589
51357490716
51357496454
51357500909
51357506585
51357510919
51357515985
51357521783
51357527276
51357531915
51357537286
51357541009
51357547052
51357552667
51357557550
51357562799
51357567865
51357572931
51357578790
51357582635
51357588555
51357593438
51357599237
51357605767
51357609613
51357615838
51357619439
51357624810
51357630059
51357636468
51357641534
51357646783
51357651605
51357657525
51357662591
51357666924
51357672418
51357678277
51357684136
51357687920
51357694268
51357699212
51357703912
51357709100
51357714349
51357719903
51357726006
51357730767
51357734856
51357739129
51357745049
51357750481
51357757317
51357762261
51357768548
51357773614
51357779168
51357785699
51357790276
51357796136
51357801140
51357806756
51357812981
51357817803
51357822381
51357825982
51357832634
51357839592
51357844048
51357848626
51357853936
51357858879
51357863213
51357867669
51357874260
51357879876
51357884880
51357890435
51357895623
51357900383
51357904106
51357910698
51357916863
51357921623
51357926018
51357931938
51357937371
51357941643
51357946526
51357952385
51357956780
51357962151
51357967339
51357972283
51357977348
51357982353
51357987419
51357993279
51357999382
51358002983
51358008842
51358014214
51358018547
51358023979
51358029961
51358034416
51358039787
51358044914
51358049919
51358054558
51358059441
51358065056
51358071525
51358076530
51358081169
51358085808
51358090446
51358096245
51358099785
51358107597
51358111503
51358117058
51358123588
51358129509
51358135673
51358140434
51358146721
51358151786
51358157097
51358162223
51358165825
51358172844
51358176506
51358182182
51358187919
51358194206
51358198295
51358204216
51358208427
51358214408
51358219596
51358225822
51358230766
51358235588
51358240837
51358245902
51358250602
51358254447
51358261772
51358267814
51358273063
51358277885
51358282829
51358287345
51358293266
51358297477
51358304740
51358309501
51358314872
51358318961
51358324332
51358330192
51358333793
51358339530
51358345389
51358350394
51358355887
51358360465
51358365958
51358370292
51358374747
51358381461
51358386283
51358392997
51358398124
51358402152
51358409232
51358415030
51358420829
51358424674
51358430289
51358434928
51358440360
51358445365
51358450370
51358455985
51358462821
51358467704
51358471976
51358476554
51358481559
51358487479
51358492545
51358498465
51358503348
51358507621
51358514701
51358519278
51358525015
51358528861
51358536795
51358542349
51358547721
51358554312
51358559928
51358565970
51358571036
51358577017
51358580557
51358585989
51358592032
51358597647
51358602286
51358607901
51358612601
51358618704
51358623526
51358627982
51358633963
51358638785
51358644278
51358648855
51358655081
51358660574
51358666006
51358670767
51358676016
51358680899
51358686575
51358692129
51358698416
51358703116
51358708975
51358713308
51358718619
51358723074
51358728811
51358735464
51358739065
51358744497
51358750113
51358753897
51358760611
51358764395
51358770925
51358775015
51358781362
51358786734
51358790945
51358795156
51358800894
51358805349
51358813528
51358818350
51358822073
51358827688
51358831411
51358838430
51358843557
51358848501
51358852834
51358859243
51358864431
51358868643
51358874502
51358879018
51358884206
51358890188
51358895132
51358901174
51358907095
51358911977
51358917593
51358921255
51358927175
51358933462
51358938650
51358944448
51358946767
51358953908
51358959402
51358964040
51358969472
51358975088
51358979238
51358984731
51358990285
51358995290
51358999441
51359005117
51359011403
51359016958
51359021657
51359026235
51359031972
51359035878
51359040578
51359046682
51359052480
51359056386
51359061879
51359066701
51359072194
51359076223
51359082875
51359088430
51359094228
51359098744
51359103078
51359109059
51359113332
51359118276
51359123830
51359130300
51359133901
51359139821
51359145253
51359149770
51359155446
51359161427
51359167409
51359171315
51359177724
51359181691
51359187428
51359191518
51359196828
51359202626
51359207692
51359213307
51359217519
51359223378
51359227589
51359233266
51359239979
51359245412
51359251332
51359256459
51359262440
51359268117
51359272938
51359279103
51359284230
51359289906
51359295704
51359300282
51359304982
51359309742
51359316090
51359322072
51359327931
51359333180
51359338734
51359344960
51359347889
51359356800
51359362049
51359367848
51359373463
51359378956
51359384205
51359390431
51359395436
51359400685
51359407215
51359411854
51359417286
51359421864
51359427357
51359431996
51359438038
51359443836
51359447560
51359453053
51359458424
51359463246
51359468495
51359474537
51359479725
51359484608
51359490101
51359495716
51359499928
51359505604
51359509876
51359517261
51359522144
51359525684
51359532154
51359535938
51359541431
51359546924
51359552051
51359557667
51359562610
51359567859
51359572071
51359577320
51359582813
51359587513
51359593250
51359598987
51359604175
51359608936
51359614429
51359619129
51359624012
51359629078
51359634754
51359639820
51359645435
51359649768
51359655079
51359660511
51359664539
51359670520
51359675281
51359680774
51359686084
51359690967
51359696155
51359701099
51359707874
51359712879
51359718128
51359723194
51359727893
51359732898
51359738696
51359742359
51359749194
51359754138
51359759448
51359764880
51359768543
51359774951
51359779895
51359784961
51359790332
51359795337
51359800830
51359805530
51359811206
51359815478
51359821216
51359827075
51359832080
51359836902
51359842273
51359847949
51359854114
51359857898
51359864429
51359870410
51359874011
51359879931
51359885180
51359890002
51359893664
51359901782
51359907580
51359912280
51359916430
51359922168
51359927234
51359932666
51359936084
51359943652
51359948657
51359952258
51359957995
51359961535
51359967395
51359970996
51359977710
51359983203
51359989306
51359994433
51359998767
51360003955
51360009387
51360014575
51360020495
51360025378
51360030383
51360035327
51360039172
51360045092
51360049975
51360055712
51360061633
51360066882
51360071276
51360077136
51360081835
51360086474
51360091052
51360097338
51360101916
51360107470
51360115160
51360119677
51360126147
51360130358
51360136767
51360141588
51360147387
51360152148
51360157458
51360162829
51360167711
51360173449
51360177355
51360184191
51360188708
51360194567
51360198900
51360204821
51360209765
51360215685
51360221361
51360228502
51360233751
51360238024
51360242846
51360247911
51360254992
51360259935
51360265673
51360270433
51360274767
51360280199
51360285692
51360289110
51360296617
51360301439
51360306322
51360311083
51360316332
51360320970
51360326219
51360331224
51360337450
51360342088
51360347154
51360352770
51360357530
51360361681
51360366258
51360373460
51360378465
51360383836
51360388414
51360393236
51360397997
51360403612
51360408617
51360414354
51360419115
51360424181
51360429613
51360434618
51360438890
51360444444
51360450181
51360455614
51360461168
51360465990
51360471055
51360475755
51360480455
51360485521
51360490709
51360496934
51360500657
51360506517
51360510545
51360516465
51360520738
51360528795
51360532335
51360537706
51360542100
51360547532
51360552842
51360557908
51360562669
51360569017
51360574083
51360578111
51360583970
51360588182
51360593858
51360597886
51360604783
51360609849
51360615342
51360619248
51360624803
51360630723
51360634385
51360638658
51360646104
51360651109
51360656358
51360661179
51360666184
51360670884
51360675340
51360682298
51360686936
51360692246
51360696275
51360701768
51360706284
51360711777
51360716111
51360721726
51360726243
51360731675
51360737046
51360741990
51360747971
51360751877
51360757432
51360762742
51360767380
51360772568
51360777146
51360782029
51360787827
51360791916
51360797959
51360803574
51360809800
51360815476
51360819626
51360826889
51360833176
51360838913
51360844284
51360849778
51360855332
51360861252
51360866379
51360872055
51360877304
51360882065
51360888047
51360892136
51360898056
51360902634
51360908432
51360913132
51360918869
51360924301
51360929306
51360934738
51360938461
51360944687
51360949936
51360955185
51360960861
51360966110
51360970627
51360975266
51360980270
51360986252
51360989792
51360996201
51361000961
51361006332
51361011276
51361016830
51361020798
51361026413
51361033066
51361039352
51361044418
51361049667
51361054367
51361058700
51361064560
51361068466
51361075241
51361079574
51361086532
51361092392
51361096298
51361103561
51361110092
51361114731
51361119552
51361125045
51361131149
51361134872
51361140365
51361146041
51361151901
51361157699
51361162765
51361168075
51361173446
51361177413
51361182785
51361187301
51361193527
51361199081
51361203903
51361208908
51361213668
51361218368
51361223251
51361229843
51361234115
51361240524
51361244613
51361250411
51361254440
51361260299
51361265731
51361271529
51361275069
51361281722
51361286544
51361290084
51361296859
51361301864
51361306869
51361311996
51361317306
51361322250
51361328231
51361333114
51361337508
51361343551
51361349898
51361355331
51361359176
51361365523
51361369124
51361375594
51361379317
51361384871
51361391097
51361396041
51361401229
51361406112
51361410628
51361416610
51361421737
51361427901
51361431990
51361438155
51361443770
51361447554
51361452925
51361457991
51361462874
51361469161
51361474227
51361479293
51361483992
51361489791
51361494002
51361499495
51361505904
51361510909
51361517439
51361522017
51361528121
51361533492
51361538558
51361544539
51361549361
51361554732
51361559493
51361565230
51361569930
51361574324
51361581282
51361587141
51361592574
51361596541
51361602095
51361607039
51361611800
51361617415
51361622664
51361627791
51361632918
51361638838
51361642683
51361648665
51361653059
51361659773
51361664717
51361670881
51361676314
51361682417
51361688948
51361694319
51361700605
51361705671
51361711775
51361716047
51361721968
51361727034
51361732832
51361738508
51361744795
51361749678
51361754683
51361764021
51361777632
51361783369
51361788557
51361793012
51361798872
51361803572
51361807722
51361813825
51361817915
51361824812
51361829572
51361835859
51361841474
51361846845
51361851850
51361855451
51361862104
51361867048
51361872785
51361877119
51361882856
51361887128
51361892194
51361897810
51361903303
51361909284
51361913190
51361918745
51361923139
51361929060
51361935041
51361941511
51361947736
51361951581
51361957319
51361962202
51361967512
51361971662
51361977826
51361983198
51361988386
51361994428
51361998090
51362003705
51362008588
51362015241
51362021466
51362025251
51362031903
51362037336
51362042035
51362046125
51362052594
51362059308
51362064252
51362070050
51362075421
51362081159
51362086713
51362092511
51362097638
51362103986
51362109967
51362115216
51362120282
51362126813
51362132855
51362138776
51362144574
51362149030
51362153851
51362160260
51362166180
51362172284
51362178143
51362184064
51362189984
51362195599
51362202130
51362206769
51362212506
51362217999
51362221722
51362229047
51362233746
51362239239
51362244855
51362250897
51362255353
51362260846
51362266217
51362272381
51362276898
51362283246
51362287701
51362293561
51362299176
51362304974
51362309857
51362315777
51362321270
51362326580
51362331585
51362337323
51362342694
51362346722
51362354168
51362358685
51362364605
51362371746
51362375836
51362381634
51362386944
51362392254
51362397869
51362402630
51362408917
51362413677
51362419171
51362425335
51362430096
51362435284
51362441570
51362448101
51362452557
51362458355
51362464459
51362469463
51362475018
51362480083
51362485821
51362491680
51362496380
51362502178
51362507671
51362512310
51362518719
51362524456
51362529705
51362535564
51362540813
51362546551
51362552105
51362556499
51362563274
51362568828
51362572735
51362578472
51362584270
51362590252
51362596782
51362600994
51362607891
51362612529
51362616985
51362622356
51362628460
51362633709
51362638103
51362644023
51362648662
51362654827
51362659526
51362664592
51362670452
51362675029
51362680522
51362685344
51362690776
51362695842
51362702190
51362707622
51362711711
51362716960
51362722148
51362727702
51362732524
51362737224
51362743511
51362748271
51362754497
51362759990
51362765239
51362770915
51362777202
51362782451
51362789104
51362793742
51362798259
51362803508
51362809856
51362816386
51362820171
51362826579
51362830546
51362835856
51362842265
51362847087
51362852885
51362857402
51362862834
51362868083
51362872844
51362878764
51362884379
51362890422
51362897136
51362902446
51362908061
51362914653
51362919719
51362925456
51362931681
51362936015
51362941630
51362946818
51362951762
51362958293
51362963542
51362969035
51362974040
51362979228
51362985209
51362989848
51362995951
51363000712
51363005900
51363011942
51363017741
51363023478
51363028605
51363034098
51363040202
51363045634
51363050883
51363056803
51363061686
51363067728
51363074870
51363079630
51363085734
51363090128
51363096049
51363100932
51363106730
51363112650
51363118265
51363122050
51363129252
51363134257
51363139994
51363146281
51363150492
51363156229
51363161356
51363167704
51363173319
51363178568
51363184427
51363190287
51363195597
51363201700
51363207499
51363212565
51363218668
51363223429
51363228617
51363234842
51363240458
51363245035
51363250833
51363255899
51363259378
51363266397
51363271768
51363276651
51363284159
51363289530
51363294229
51363299784
51363304605
51363310526
51363316629
51363322000
51363326517
51363331705
51363337198
51363343240
51363348795
51363354410
51363359476
51363364725
51363370157
51363376016
51363380899
51363386392
51363392252
51363398050
51363403055
51363408182
51363414224
51363420938
51363426187
51363432352
51363438028
51363442361
51363446634
51363452859
51363458902
51363464090
51363470132
51363476053
51363481607
51363488321
51363492410
51363498330
51363504495
51363509561
51363515420
51363519693
51363525430
51363531839
51363537454
51363543008
51363547525
51363552896
51363559121
51363564065
51363570230
51363575723
51363581094
51363586587
51363591226
51363597085
51363603677
51363609597
51363613992
51363621499
51363627175
51363632119
51363637246
51363642617
51363648538
51363653542
51363658608
51363663918
51363669045
51363675576
51363680032
51363685647
51363689858
51363695107
51363701333
51363706094
51363711831
51363717568
51363722817
51363727639
51363732033
51363738991
51363743569
51363749306
51363755410
51363759194
51363765297
51363770302
51363777688
51363784462
51363790322
51363796425
51363802346
51363807778
51363813820
51363818459
51363824135
51363829567
51363834999
51363840676
51363845070
51363852455
51363858620
51363865395
51363871315
51363877114
51363881996
51363888405
51363894387
51363899147
51363905068
51363909950
51363915749
51363921791
51363926674
51363932411
51363938637
51363942970
51363949440
51363954872
51363961464
51363966957
51363971779
51363977882
51363983376
51363989113
51363993874
51364000465
51364004860
51364010353
51364016029
51364020851
51364027016
51364034035
51364038490
51364044655
51364049599
51364054909
51364058998
51364066444
51364071632
51364077797
51364083290
51364088844
51364092689
51364098060
51364103920
51364111366
51364116127
51364121437
51364127174
51364132423
51364136940
51364142982
51364147743
51364154090
51364158912
51364164527
51364169715
51364176124
51364180946
51364186561
51364192115
51364196754
51364201820
51364207191
51364212074
51364217689
51364222511
51364227638
51364234229
51364239112
51364246070
51364250953
51364256873
51364262428
51364265968
51364271400
51364274940
51364283729
51364288978
51364294715
51364299476
51364304237
51364309547
51364315101
51364319984
51364326148
51364330482
51364335059
51364340430
51364346107
51364351600
51364357520
51364362647
51364368873
51364373328
51364378882
51364384864
51364389502
51364395301
51364400855
51364405066
51364412452
51364418067
51364423499
51364429602
51364434851
51364440833
51364446387
51364451880
51364457556
51364462378
51364469397
51364474463
51364479895
51364484961
51364491065
51364496253
51364502173
51364508032
51364512366
51364519263
51364524939
51364530188
51364535071
51364540503
51364546240
51364552588
51364557837
51364563025
51364568701
51364575659
51364580298
51364586523
51364591711
51364595862
51364602515
51364607519
51364613318
51364618445
51364623755
51364628882
51364634436
51364639563
51364648108
51364653113
51364658667
51364663855
51364669165
51364675085
51364680517
51364685949
51364691137
51364696570
51364702246
51364708227
51364712011
51364720068
51364725988
51364731359
51364737280
51364742163
51364748205
51364754492
51364760107
51364765905
51364771704
51364775732
51364783178
51364787756
51364792578
51364799291
51364805883
51364812170
51364817297
51364823827
51364828893
51364835058
51364839880
51364844213
51364850011
51364854467
51364860815
51364866674
51364871557
51364878393
51364883154
51364889013
51364894323
51364899938
51364905309
51364909948
51364915197
51364920324
51364925024
51364930456
51364935888
51364940648
51364945409
51364950780
51364955541
51364961278
51364966283
51364971654
51364977514
51364981481
51364987218
51364991979
51364998082
51365002538
51365007970
51365012120
51365017553
51365022130
51365027623
51365033788
51365037511
51365043798
51365047582
51365054479
51365058812
51365064672
51365068639
51365075048
51365079564
51365085423
51365091039
51365095860
51365100377
51365105382
51365110753
51365116551
51365121739
51365127294
51365132054
51365136937
51365142918
51365147313
51365153600
51365157872
51365163670
51365167882
51365173375
51365177892
51365183568
51365189610
51365195286
51365200474
51365205357
51365211339
51365215367
51365221287
51365225072
51365233189
51365237584
51365243321
51365250035
51365255467
51365261632
51365266820
51365272923
51365278660
51365283787
51365288487
51365294224
51365298863
51365304661
51365310215
51365314915
51365321263
51365325535
51365331028
51365335789
51365341221
51365345433
51365351597
51365357273
51365362278
51365367039
51365370823
51365378025
51365380528
51365388035
51365392979
51365398228
51365402928
51365408848
51365413609
51365419163
51365423496
51365429356
51365435459
51365438999
51365444248
51365449009
51365454624
51365460056
51365465000
51365469883
51365476109
51365479832
51365485691
51365489414
51365495212
51365500278
51365506870
51365511753
51365517307
51365522434
51365527439
51365532688
51365537571
51365542576
51365548313
51365553379
51365558079
51365564121
51365567722
51365573520
51365578525
51365585117
51365590244
51365595066
51365600132
51365605137
51365609897
51365614902
51365621128
51365626316
51365631626
51365636386
51365642246
51365647678
51365652011
51365657566
51365663425
51365667575
51365672946
51365678195
51365683078
51365688449
51365693393
51365698581
51365704135
51365709140
51365714023
51365719760
51365722263
51365729404
51365734775
51365739475
51365745700
51365750217
51365754977
51365760349
51365764804
51365770358
51365774448
51365780551
51365787021
51365792148
51365796970
51365802035
51365807101
51365812167
51365818820
51365824374
51365829989
51365833652
51365839145
51365843661
51365849154
51365854403
51365860385
51365865390
51365869296
51365876132
51365880404
51365885165
51365889743
51365895907
51365900851
51365906466
51365911654
51365916720
51365921847
51365925509
51365932894
51365938754
51365943637
51365947970
51365953891
51365959384
51365963656
51365968112
51365974215
51365980380
51365984164
51365990756
51365994479
51366000765
51366004366
51366010165
51366015353
51366021639
51366025301
51366031222
51366036166
51366040255
51366045260
51366051913
51366056734
51366062960
51366067721
51366072482
51366077914
51366083163
51366088473
51366093417
51366098666
51366104220
51366108980
51366113924
51366119723
51366123812
51366130526
51366134798
51366141756
51366146761
51366153414
51366158419
51366163424
51366170076
51366174654
51366181612
51366187349
51366191378
51366198153
51366202364
51366209444
51366214327
51366219637
51366224276
51366230196
51366235140
51366240511
51366245516
51366252352
51366257418
51366262300
51366266878
51366272005
51366276644
51366281832
51366286897
51366292574
51366297518
51366302461
51366308199
51366312288
51366318147
51366323274
51366329256
51366334688
51366338289
51366343904
51366348726
51366354280
51366359468
51366364473
51366370027
51366375093
51366379060
51366384920
51366390169
51366394319
51366398592
51366404878
51366409822
51366415376
51366420259
51366425813
51366429964
51366435518
51366442048
51366447358
51366452363
51366457429
51366462251
51366467256
51366471834
51366476472
51366482698
51366488252
51366493562
51366497468
51366502839
51366508455
51366513459
51366517121
51366524995
51366529878
51366534211
51366540132
51366544770
51366549531
51366554841
51366560517
51366566011
51366572175
51366576509
51366581941
51366586701
51366592256
51366595918
51366604341
51366609406
51366613130
51366619782
51366624055
51366628693
51366632356
51366639314
51366645051
51366649751
51366655427
51366659882
51366664277
51366671113
51366674287
51366682221
51366687531
51366692902
51366697724
51366702973
51366707673
51366713166
51366718842
51366723664
51366729462
51366733796
51366739228
51366745087
51366749970
51366754792
51366761567
51366766510
51366771149
51366775910
51366780610
51366786530
51366790924
51366797516
51366802338
51366807709
51366812470
51366817902
51366823090
51366827973
51366832795
51366839203
51366844208
51366848603
51366853180
51366858368
51366864166
51366868927
51366874848
51366880158
51366883820
51366890839
51366896149
51366902130
51366906647
51366912628
51366917572
51366922394
51366928925
51366931427
51366939056
51366943268
51366949554
51366956268
51366961395
51366966705
51366970489
51366975677
51366980621
51366986786
51366991608
51366996735
51367001984
51367006866
51367011505
51367017242
51367021942
51367028473
51367032989
51367038910
51367043915
51367049530
51367053863
51367059356
51367064911
51367071685
51367076812
51367081268
51367086090
51367091400
51367097381
51367101165
51367107940
51367113128
51367118499
51367123809
51367129242
51367135162
51367140472
51367146759
51367152252
51367155853
51367161590
51367167510
51367172149
51367175811
51367183502
51367187652
51367194183
51367199737
51367204070
51367209441
51367214935
51367218536
51367226287
51367231292
51367236480
51367241180
51367246429
51367251250
51367256866
51367261871
51367267242
51367272491
51367276946
51367282989
51367286651
51367292571
51367297271
51367303924
51367308440
51367313933
51367319182
51367324309
51367328887
51367333770
51367338775
51367344634
51367349639
51367353972
51367360015
51367365325
51367370635
51367374236
51367378631
51367382659
51367386504
51367390654
51367394194
51367398223
51367401702
51367406096
51367410430
51367413298
51367418242
51367421721
51367424956
51367428435
51367432830
51367436797
51367441008
51367445342
51367449370
51367454009
51367456877
51367462065
51367465544
51367470549
51367473967
51367477019
51367482451
51367485686
51367489531
51367493865
51367497405
51367502226
51367506133
51367510344
51367514311
51367519682
51367523711
51367528532
51367532988
51367537749
51367541960
51367546172
51367550688
51367555266
51367559172
51367563811
51367567534
51367570952
51367575529
51367579192
51367584685
51367589567
51367593108
51367597441
51367601713
51367604948
51367609282
51367612822
51367618193
51367623503
51367627287
51367630949
51367633879
51367638334
51367642363
51367646391
51367650358
51367655668
51367660124
51367663664
51367667387
51367670683
51367674772
51367680998
51367685820
51367689116
51367693815
51367696562
51367701200
51367704313
51367709379
51367712675
51367719572
51367723967
51367728056
51367731596
51367735685
51367739042
51367745207
51367750822
51367755644
51367760038
51367764372
51367769010
51367773344
51367777677
51367782316
51367786039
51367792143
51367795805
51367801359
51367805753
51367810148
51367814604
51367820036
51367824918
51367829496
51367834562
51367838834
51367843168
51367847807
51367852201
51367857206
51367860929
51367867277
51367870145
51367876310
51367879972
51367884550
51367889921
51367893461
51367899503
51367905485
51367910367
51367914762
51367920316
51367925138
51367929471
51367933988
51367939115
51367944974
51367949857
51367955777
51367961576
51367968656
51367974759
51367979642
51367986173
51367991727
51367999417
51368006681
51368012174
51368018521
51368026090
51368035306
51368041532
51368049344
51368057950
51368064908
51368071134
51368078946
51368087796
51368095303
51368101407
51368105802
51368114468
51368123319
51368130582
51368136868
51368146817
51368154507
51368160672
51368168790
51368174405
51368183804
51368188443
51368196500
51368206265
51368211392
51368219388
51368223599
51368232144
51368238431
51368244534
51368252896
51368256863
51368267300
51368274929
51368280789
51368287564
51368294461
51368301480
51368307888
51368318203
51368322415
51368332669
51368340054
51368345486
51368352749
51368359463
51368365200
51368373745
51368379971
51368387600
51368394863
51368400051
51368407253
51368413174
51368419216
51368426113
51368430935
51368436916
51368445278
51368451260
51368459438
51368467251
51368472500
51368478298
51368484402
51368490322
51368497280
51368507046
51368513943
51368520473
51368528347
51368534023
51368540432
51368547451
51368551479
51368560390
51368566127
51368572658
51368580288
51368585292
51368593898
51368600734
51368606472
51368612392
51368617519
51368625270
51368629116
51368637599
51368644008
51368652614
51368660060
51368666103
51368671779
51368677577
51368685329
51368691554
51368693446
51368703090
51368710231
51368718959
51368725246
51368729640
51368736415
51368744044
51368749721
51368755580
51368761867
51368770839
51368778712
51368784144
51368788051
51368794581
51368803737
51368807216
51368814540
51368822230
51368828334
51368834498
51368841212
51368848414
51368855189
51368861110
51368866969
51368872950
51368879664
51368885279
51368891627
51368900111
51368910487
51368914820
51368921900
51368929042
51368932826
51368940455
51368946559
51368952845
51368961939
51368969935
51368975184
51368981593
51368991969
51368996119
51369005152
51369011500
51369019373
51369028162
51369030543
51369041346
51369047633
51369053248
51369060450
51369066798
51369074732
51369079249
51369086695
51369095850
51369105128
51369110377
51369117212
51369122645
51369130518
51369136133
51369141138
51369148523
51369154383
51369163111
51369172815
51369179102
51369183130
51369190577
51369194849
51369201258
51369210047
51369214075
51369224512
51369228601
51369239038
51369243372
51369250025
51369257044
51369263880
51369269312
51369275598
51369280420
51369290369
51369296533
51369303674
51369309595
51369315454
51369321558
51369328577
51369333459
51369337427
51369348108
51369355798
51369362085
51369369226
51369375940
51369383142
51369387048
51369395105
51369401452
51369407556
51369413232
51369420801
51369427575
51369434045
51369443078
51369449426
51369455835
51369463647
51369470666
51369478906
51369486474
51369493188
51369500268
51369507226
51369514856
51369521081
51369527246
51369533959
51369539697
51369550256
51369555139
51369563256
51369571618
51369577661
51369584313
51369586511
51369598046
51369602197
51369609887
51369618066
51369626244
51369633569
51369639794
51369645165
51369651086
51369657006
51369663659
51369669030
51369677941
51369684716
51369690209
51369697899
51369704796
51369709679
51369713585
51369723778
51369729577
51369733971
51369742394
51369746850
51369756859
51369761010
51369771264
51369778099
51369784752
51369791405
51369798363
51369809166
51369814537
51369822411
51369829247
51369834618
51369840477
51369848412
51369853600
51369857323
51369867943
51369874291
51369881371
51369888512
51369894432
51369901756
51369905602
51369912010
51369918663
51369925133
51369932030
51369939659
51369949852
51369956566
51369960960
51369967674
51369971702
51369981041
51369986839
51369992637
51370002647
51370008140
51370016075
51370020042
51370028587
51370034691
51370039879
51370047264
51370051231
51370057029
51370068565
51370076072
51370083824
51370089134
51370094749
51370101036
51370106285
51370112999
51370120994
51370129234
51370137474
51370144187
51370150962
51370157676
51370162559
51370170616
51370176109
51370182212
51370186851
51370195152
51370199546
51370211265
51370219321
51370225913
51370232139
51370238914
51370248557
51370252952
51370263023
51370267966
51370278342
51370284995
51370290122
51370297874
51370302268
51370312522
51370319053
51370325705
51370333396
51370340293
51370348166
51370353843
51370359580
51370365561
51370372702
51370379844
51370385825
51370392478
51370398886
51370404746
51370412436
51370417319
51370424826
51370431113
51370436179
51370442954
51370449179
51370455039
51370461447
51370470603
51370477133
51370483908
51370488974
51370495444
51370500021
51370507407
51370513022
51370523642
51370529440
51370537558
51370541708
51370549765
51370555930
51370560202
51370567709
51370571860
51370577780
51370588339
51370595053
51370602255
51370608359
51370614157
51370619955
51370626181
51370633322
51370639120
51370645346
51370652731
51370658712
51370666586
51370672140
51370679831
51370684164
51370690756
51370698141
51370704367
51370715536
51370721823
51370727560
51370734457
51370743185
51370752035
51370756979
51370766683
51370771139
51370780355
51370784750
51370795919
51370803365
51370811971
51370819418
51370825033
51370835836
51370838583
51370851156
51370856039
51370867208
51370874715
51370880575
51370889425
51370894185
51370902181
51370910360
51370918722
51370927022
51370934102
51370942525
51370946798
51370955220
51370962728
51370969503
51370975850
51370982381
51370989888
51370999288
51371004720
51371013143
51371019796
51371024983
51371032796
51371038228
51371047444
51371051839
51371058675
51371069905
51371075398
51371083760
51371088338
51371096639
51371103597
51371109700
51371117940
51371122395
51371129414
51371139973
51371147298
51371154988
51371162007
51371168111
51371174702
51371181477
51371188923
51371195210
51371202107
51371208882
51371217671
51371226277
51371233967
51371239766
51371246235
51371253071
51371260945
51371268879
51371274861
51371283162
51371290425
51371296955
51371304280
51371309956
51371317585
51371322773
51371330830
51371338764
51371348347
51371355122
51371362141
51371368916
51371376301
51371383869
51371390461
51371396504
51371403462
51371410908
51371416706
51371423664
51371432880
51371437458
51371445393
51371453083
51371461323
51371466572
51371473225
51371479999
51371489521
51371498859
51371504719
51371513019
51371519611
51371526264
51371533771
51371541340
51371546711
51371552021
51371563129
51371570514
51371576435
51371584003
51371590473
51371597065
51371605243
51371612812
51371615009
51371627643
51371636371
51371645282
51371652851
51371660053
51371665485
51371673602
51371680011
51371686542
51371694598
51371702289
51371709674
51371716998
51371723468
51371730548
51371738300
51371744342
51371753009
51371757465
51371765277
51371774371
51371782306
51371789386
51371795794
51371802264
51371809894
51371816913
51371825152
51371829730
51371839984
51371847796
51371855609
51371862017
51371870379
51371876666
51371883502
51371889788
51371897723
51371904864
51371911761
51371918841
51371925677
51371935015
51371941546
51371950396
51371954791
51371964556
51371971270
51371978228
51371984820
51371992571
51372001849
51372008868
51372014422
51372021685
51372025957
51372035723
51372042010
51372046221
51372055132
51372063372
51372069842
51372076678
51372082903
51372089800
51372095293
51372102678
51372107012
51372114947
51372123797
51372129351
51372137529
51372141436
51372149981
51372156084
51372160051
51372167559
51372171709
51372178545
51372188250
51372194780
51372200151
51372203936
51372212664
51372218462
51372226152
51372230974
51372238542
51372244829
51372250688
51372257280
51372265093
51372270159
51372278459
51372282610
51372289568
51372296465
51372302141
51372310564
51372314531
51372324236
51372330827
51372337175
51372342058
51372349504
51372355119
51372360918
51372367448
51372375139
51372381547
51372389665
51372397661
51372403703
51372410417
51372418290
51372425737
51372431962
51372441362
51372446000
51372454789
51372462236
51372469621
51372477555
51372484513
51372490739
51372497392
51372503434
51372511918
51372518815
51372527787
51372532243
51372539018
51372548722
51372550981
51372562333
51372566606
51372573686
51372583756
51372591630
51372598405
51372604935
51372611039
51372621415
51372625382
51372633866
51372642167
51372649430
51372657242
51372664872
51372671281
51372675675
51372686478
51372693314
51372699967
51372705460
51372712479
51372721146
51372727860
51372737015
51372744034
51372751358
51372757218
51372765030
51372770218
51372778031
51372784561
51372794571
51372799088
51372810257
51372815140
51372823197
51372831192
51372838150
51372844315
51372851212
51372857681
51372866348
51372873306
51372880509
51372887100
51372896011
51372902786
51372908646
51372914871
51372921951
51372927933
51372936356
51372945328
51372953201
51372960037
51372966263
51372973343
51372979263
51372987198
51372991653
51373002334
51373009414
51373016494
51373024978
51373032730
51373038589
51373045364
51373053726
51373060806
51373067459
51373073379
51373077835
51373089065
51373096328
51373103286
51373110977
51373116653
51373122940
51373132095
51373136306
51373145645
51373153945
51373160781
51373167617
51373175552
51373182571
51373188491
51373196975
51373201370
51373208389
51373218154
51373224746
51373234512
51373241470
51373246841
51373254531
51373261428
51373270217
51373274673
51373281447
51373290359
51373299392
51373305800
51373310195
51373321364
51373329482
51373335585
51373343703
51373349685
51373359084
51373366469
51373374831
51373382155
51373388137
51373396193
51373400588
51373409804
51373416823
51373424086
51373433730
51373439162
51373448500
51373452895
51373461073
51373469008
51373475111
51373483962
51373491225
51373496474
51373505385
51373513991
51373522353
51373529372
51373538527
51373544203
51373553053
51373560560
51373569288
51373577772
51373585158
51373591932
51373598585
51373605299
51373612745
51373618849
51373627516
51373631788
51373639601
51373648207
51373656019
51373662916
51373670973
51373676954
51373683607
51373691603
51373696913
51373701368
51373709425
51373721083
51373728163
51373736158
51373742201
51373748243
51373756971
51373763929
51373769239
51373777357
51373784376
51373791029
51373798536
51373806165
51373812025
51373818250
51373825025
51373832777
51373838270
51373846693
51373853162
51373860120
51373866651
51373874708
51373882886
51373889417
51373896314
51373903028
51373910901
51373917737
51373924390
51373931226
51373938428
51373945935
51373952161
51373960889
51373965223
51373975232
51373981885
51373988294
51373995313
51374004895
51374012036
51374018750
51374026868
51374035291
51374045117
51374051038
51374055615
51374068799
51374073926
51374082959
51374090527
51374095960
51374104504
51374111584
51374116650
51374124280
51374129040
51374141003
51374145642
51374155652
51374162121
51374169385
51374176953
51374183789
51374191907
51374196301
51374203808
51374215588
51374223217
51374228711
51374236584
51374242566
51374248974
51374256665
51374262463
51374270825
51374277844
51374284558
51374292492
51374300061
51374306958
51374313732
51374320446
51374326245
51374336071
51374338268
51374349865
51374358166
51374365307
51374372143
51374377331
51374386120
51374390575
51374396496
51374405590
51374409252
51374418957
51374423290
51374434338
51374438671
51374448986
51374455334
51374462231
51374470226
51374476574
51374485790
51374490307
51374499340
51374506054
51374513561
51374523815
51374531810
51374540477
51374548717
51374555004
51374562999
51374569530
51374576976
51374582958
51374592784
51374597667
51374605297
51374613231
51374619884
51374626842
51374633983
51374642589
51374648265
51374656993
51374663829
51374669261
51374676708
51374684337
51374691661
51374699840
51374706310
51374713084
51374719127
51374725780
51374731151
51374738536
51374744456
51374750865
51374758555
51374763804
51374772471
51374776317
51374782542
51374791636
51374795360
51374802684
51374806590
51374812816
51374822947
51374830027
51374837169
51374839305
51374847850
51374855662
51374860606
51374867442
51374871531
51374881236
51374887217
51374894541
51374902537
51374908763
51374913951
51374920359
51374925669
51374934886
51374938487
51374946848
51374953135
51374962168
51374968333
51374973887
51374980784
51374984873
51374992808
51374998667
51375004282
51375013193
51375019602
51375027720
51375031687
51375038706
51375045603
51375052378
51375058420
51375064646
51375071421
51375079233
51375084482
51375092722
51375096750
51375104685
51375110727
51375118723
51375124033
51375130076
51375138681
51375144663
51375154123
51375161081
51375165232
51375173044
51375177133
51375185862
51375191965
51375198374
51375204355
51375211374
51375220468
51375224680
51375232492
51375239389
51375244028
51375252023
51375257944
51375263010
51375274179
51375282297
51375287729
51375295541
51375301279
51375307504
51375314462
51375319650
51375325510
51375331918
51375341623
51375348398
51375356210
51375358224
51375369150
51375375070
51375380502
51375387826
51375393014
51375399240
51375406747
51375417245
51375423715
51375430002
51375434884
51375441659
51375446481
51375453500
51375459298
51375470956
51375478830
51375485849
51375493966
51375502023
51375507028
51375516732
51375522958
51375530770
51375536813
51375545419
51375552743
51375559274
51375566171
51375574227
51375580758
51375586800
51375593331
51375600533
51375608651
51375614877
51375622628
51375626961
51375634286
51375642159
51375648080
51375652962
51375656930
51375667367
51375673531
51375680428
51375687996
51375692696
51375700264
51375704476
51375710396
51375719185
51375724801
51375731087
51375739388
51375746163
51375752388
51375759407
51375764107
51375771248
51375777230
51375783028
51375788338
51375796883
51375804207
51375810127
51375816048
51375822945
51375829842
51375835762
51375841622
51375847542
51375852730
51375864876
51375873055
51375878304
51375885811
51375891670
51375897408
51375902473
51375910225
51375914131
51375923469
51375930183
51375936470
51375943794
51375949470
51375957405
51375961311
51375968086
51375975044
51375981087
51375987617
51375996162
51376006355
51376012703
51376018440
51376025642
51376029487
51376037117
51376043708
51376051033
51376058113
51376066780
51376073616
51376080024
51376085945
51376092964
51376099006
51376104988
51376110969
51376117683
51376126228
51376133979
51376139228
51376143073
51376153938
51376160224
51376166389
51376171516
51376178169
51376185249
51376193732
51376204230
51376210456
51376217231
51376224250
51376229133
51376236945
51376243171
51376247993
51376255744
51376262031
51376270148
51376274360
51376282111
51376288093
51376290107
51376301581
51376305610
51376315253
51376323432
51376330817
51376338507
51376343940
51376349738
51376355658
51376361701
51376369147
51376374701
51376382880
51376389716
51376395087
51376402411
51376409003
51376415839
51376420111
51376428412
51376434454
51376440619
51376448248
51376454596
51376463202
51376469122
51376474005
51376481329
51376486700
51376494391
51376498602
51376506354
51376514044
51376521246
51376526923
51376534125
51376539801
51376545843
51376553778
51376558661
51376562689
51376570318
51376577765
51376584845
51376592718
51376598578
51376606329
51376610479
51376617071
51376624334
51376630987
51376639715
51376646978
51376653936
51376660162
51376666265
51376673529
51376679937
51376685797
51376692022
51376698919
51376706610
51376712225
51376720526
51376724432
51376732549
51376739019
51376746160
51376751104
51376758123
51376762762
51376774114
51376779546
51376786810
51376792669
51376800664
51376805059
51376811590
51376818853
51376824773
51376830999
51376837163
51376846746
51376853582
51376859441
51376864385
51376871831
51376877508
51376883672
51376893133
51376900884
51376906255
51376914251
51376922796
51376928838
51376935918
51376944829
51376951543
51376959050
51376969243
51376976201
51376983953
51376990300
51376997624
51377003545
51377010381
51377017095
51377021001
51377029790
51377036992
51377044499
51377052373
51377056645
51377064153
51377070256
51377075444
51377082463
51377089604
51377097600
51377104192
51377113042
51377119939
51377126225
51377132939
51377138066
51377145329
51377151311
51377155766
51377164982
51377172490
51377180974
51377184819
51377193242
51377199528
51377201481
51377210881
51377216679
51377222294
51377235051
51377242436
51377248173
51377255375
51377261174
51377267277
51377272404
51377279240
51377283268
51377293217
51377297489
51377307072
51377313786
51377318302
51377326359
51377330387
51377339176
51377345097
51377350712
51377358158
51377365971
51377372440
51377379520
51377389225
51377395329
51377403263
51377408756
51377417118
51377425541
51377433658
51377441044
51377447391
51377451725
51377458561
51377465458
51377471256
51377477360
51377483768
51377492740
51377500675
51377506595
51377512760
51377517521
51377526737
51377531314
51377539005
51377542972
51377549015
51377559818
51377574710
51377576847
51377578678
51377580814
51377582767
51377584537
51377586612
51377588626
51377590457
51377592349
51377594058
51377596073
51377598209
51377600101
51377602237
51377604190
51377606021
51377607913
51377609867
51377611820
51377613956
51377615909
51377618045
51377620059
51377622135
51377624149
51377626285
51377628543
51377630802
51377632755
51377634647
51377637027
51377638736
51377641055
51377642825
51377644962
51377647098
51377648929
51377650760
51377652408
51377655093
51377656863
51377658817
51377660648
51377662418
51377664432
51377666385
51377668094
51377669925
51377671878
51377674381
51377676395
51377678409
51377680423
51377682315
51377684268
51377686038
51377688052
51377690067
51377692264
51377694705
51377696536
51377698489
51377700320
51377702274
51377704105
51377706119
51377708438
51377710208
51377712161
51377713992
51377715640
51377717960
51377719852
51377721500
51377723147
51377725040
51377726810
51377728641
51377730472
51377732364
51377734073
51377735782
51377737613
51377739505
51377741580
51377743411
51377745486
51377747378
51377748965
51377751163
51377753177
51377755252
51377756961
51377758914
51377760562
51377762759
51377764590
51377766604
51377768435
51377770267
51377772220
51377773929
51377775882
51377777713
51377779544
51377781375
51377783267
51377785159
51377786929
51377788516
51377790408
51377792361
51377794314
51377796145
51377798037
51377799868
51377802127
51377804080
51377805972
51377807925
51377810183
51377812137
51377814334
51377816104
51377818057
51377819827
51377821719
51377823611
51377825564
51377827334
51377829165
51377831240
51377833133
51377834842
51377836734
51377838687
51377840518
51377842288
51377844180
51377846072
51377847903
51377849551
51377851809
51377853518
51377855349
51377857180
51377858828
51377861087
51377863040
51377865115
51377867068
51377869143
51377871157
51377872927
51377875064
51377877078
51377879031
51377880740
51377883120
51377884890
51377886965
51377888613
51377890322
51377892520
51377894229
51377896121
51377898074
51377900027
51377901797
51377903750
51377905886
51377907778
51377909854
51377911807
51377913760
51377915713
51377917544
51377919497
51377921389
51377923525
51377925234
51377927371
51377929080
51377931399
51377933047
51377935061
51377937136
51377938967
51377941042
51377942873
51377944521
51377946414
51377948306
51377950015
51377951968
51377954043
51377955813
51377957644
51377959597
51377961672
51377963625
51377965579
51377967226
51377969485
51377971438
51377973330
51377974978
51377976870
51377979006
51377980959
51377983279
51377985049
51377987368
51377989016
51377991579
51377993533
51377995425
51377997195
51377998904
51378000979
51378002627
51378004458
51378006289
51378008059
51378010195
51378011782
51378013857
51378015932
51378017763
51378019533
51378021792
51378023379
51378025515
51378027285
51378029055
51378031191
51378032900
51378035219
51378037112
51378039431
51378041201
51378042971
51378045168
51378046938
51378048952
51378050905
51378052614
51378054262
51378056643
51378058474
51378060427
51378062197
51378064089
51378066042
51378067873
51378069887
51378071840
51378073671
51378075564
51378077273
51378079531
51378081301
51378083437
51378085146
51378087343
51378089419
51378091189
51378093752
51378095583
51378097536
51378099428
51378101626
51378103335
51378105105
51378106875
51378108584
51378110354
51378112246
51378113955
51378115725
51378117922
51378119753
51378121584
51378123415
51378125124
51378126772
51378128603
51378130373
51378132204
51378133974
51378135866
51378137575
51378139711
51378141603
51378143557
51378145510
51378147646
51378149660
51378151979
51378153810
51378155764
51378157717
51378159365
51378161501
51378163454
51378165285
51378167177
51378168825
51378171083
51378172670
51378174379
51378176393
51378178224
51378180117
51378181887
51378183657
51378185488
51378187197
51378188967
51378191286
51378193178
51378194765
51378196596
51378198732
51378200319
