51024618461
51024628409
51024635306
51024643607
51024652335
51024656546
51024667655
51024672721
51024684134
51024692130
51024698478
51024705802
51024711783
51024720572
51024727957
51024735587
51024742545
51024750479
51024758963
51024766226
51024773795
51024783133
51024790579
51024798880
51024805472
51024814200
51024823050
51024828848
51024838370
51024844839
51024853690
51024859854
51024869803
51024877310
51024884085
51024893790
51024902640
51024908011
51024916067
51024922781
51024931143
51024939383
51024945913
51024955618
51024961233
51024971182
51024978933
51024985525
51024995108
51025000845
51025009939
51025018728
51025024588
51025033254
51025041433
51025049307
51025058523
51025065420
51025075613
51025082205
51025090933
51025096426
51025104360
51025110708
51025121328
51025126211
51025138357
51025147512
51025155386
51025163015
51025172170
51025180227
51025186696
51025197317
51025203786
51025212758
51025220876
51025228261
51025237172
51025244741
51025253347
51025260976
51025269521
51025278676
51025285878
51025294362
51025301198
51025311452
51025320241
51025327809
51025335622
51025345754
51025353444
51025360463
51025367421
51025375539
51025382192
51025392018
51025401173
51025408192
51025415944
51025425221
51025431752
51025441823
51025452199
51025460622
51025469044
51025475392
51025484486
51025490590
51025500111
51025507313
51025518727
51025523304
51025535206
51025539479
51025550709
51025555043
51025564625
51025575428
51025583729
51025592274
51025600270
51025607289
51025615895
51025622242
51025632496
51025641834
51025649952
51025657948
51025666065
51025675221
51025682179
51025691029
51025698841
51025708668
51025716419
51025724171
51025733326
51025738880
51025748768
51025756397
51025767078
51025777210
51025784107
51025791065
51025800098
51025808826
51025815357
51025824207
51025830677
51025840748
51025849720
51025857288
51025863514
51025870472
51025879505
51025885242
51025894764
51025905506
51025912769
51025921863
51025928333
51025935352
51025944507
51025953113
51025959888
51025968738
51025978015
51025986621
51025992908
51025999744
51026008716
51026014575
51026024402
51026033313
51026042041
51026049060
51026057178
51026062793
51026072253
51026080493
51026089343
51026098437
51026107470
51026113879
51026122607
51026131946
51026138476
51026148059
51026155078
51026164599
51026174182
51026180041
51026188037
51026196154
51026202502
51026211047
51026218005
51026228869
51026235400
51026242968
51026251025
51026258898
51026264819
51026273608
51026282153
51026290514
51026297839
51026307482
51026314684
51026323412
51026332934
51026339465
51026348131
51026356554
51026365832
51026374071
51026381579
51026388048
51026398424
51026407274
51026414599
51026422350
51026431139
51026437487
51026447374
51026456224
51026465563
51026473864
51026479906
51026489122
51026495592
51026505663
51026512987
51026520555
51026527208
51026537584
51026545275
51026552294
51026561632
51026568834
51026576647
51026586107
51026594530
51026603807
51026609972
51026616808
51026626756
51026634813
51026642381
51026651659
51026660570
51026666978
51026675889
51026685411
51026691820
51026700059
51026708360
51026715501
51026725694
51026734361
51026741807
51026749009
51026756089
51026764573
51026773057
51026780748
51026787828
51026795091
51026803880
51026810960
51026818833
51026827134
51026834275
51026842942
51026850633
51026858079
51026866136
51026872666
51026881089
51026890672
51026897813
51026906480
51026914475
51026922166
51026929124
51026937546
51026944016
51026952134
51026959763
51026968125
51026975999
51026985093
51026993210
51027001572
51027007981
51027016770
51027024582
51027033127
51027039475
51027048691
51027057175
51027064804
51027073227
51027079331
51027087571
51027095322
51027102158
51027108506
51027116928
51027125290
51027132187
51027142563
51027148606
51027155625
51027162338
51027168747
51027173386
51027181320
51027187241
51027192978
51027196762
51027202805
51027208603
51027214401
51027220200
51027224777
51027232101
51027236923
51027242905
51027248032
51027255356
51027260361
51027265488
51027270126
51027274460
51027280258
51027284714
51027292648
51027297897
51027304611
51027310837
51027318283
51027324081
51027329940
51027336593
51027341964
51027347091
51027353073
51027357406
51027364608
51027369430
51027375534
51027380722
51027385849
51027391525
51027398788
51027403732
51027408798
51027414840
51027419479
51027424911
51027431014
51027436630
51027441818
51027447189
51027451949
51027457260
51027464706
51027469833
51027474654
51027480392
51027485458
51027491256
51027496627
51027502059
51027508224
51027513229
51027518661
51027524154
51027530379
51027534835
51027540755
51027545821
51027553268
51027556747
51027563399
51027569442
51027573531
51027579940
51027584517
51027591353
51027596053
51027602401
51027608626
51027612533
51027617904
51027624068
51027630294
51027635604
51027642562
51027647506
51027653670
51027658736
51027663436
51027669600
51027672164
51027679183
51027685164
51027689376
51027696028
51027700118
51027705733
51027711898
51027717879
51027723433
51027728438
51027732466
51027738814
51027743331
51027750533
51027756148
51027760054
51027766341
51027771407
51027777022
51027782210
51027786971
51027792159
51027798140
51027803023
51027808211
51027813643
51027818098
51027824507
51027829756
51027835921
51027841109
51027846724
51027850630
51027857466
51027862959
51027869612
51027874800
51027880537
51027885847
51027891585
51027897261
51027902815
51027910444
51027915754
51027920820
51027926497
51027931929
51027937178
51027945112
51027950605
51027955915
51027961287
51027966291
51027971907
51027978193
51027982832
51027988569
51027993635
51027998823
51028004927
51028009992
51028015486
51028020796
51028026838
51028031721
51028038313
51028043684
51028049543
51028053571
51028058576
51028065046
51028069318
51028075605
51028080549
51028085737
51028091169
51028096235
51028101240
51028108015
51028112165
51028118330
51028123518
51028127058
51028133161
51028139692
51028144758
51028150373
51028155073
51028160200
51028166730
51028172040
51028176618
51028181501
51028187787
51028193708
51028199872
51028205671
51028211042
51028217023
51028220563
51028227155
51028231672
51028237104
51028243207
51028248883
51028254560
51028258588
51028263349
51028268720
51028273908
51028280439
51028285810
51028291059
51028296064
51028300885
51028305768
51028311261
51028316571
51028321271
51028327435
51028334516
51028341107
51028345380
51028351911
51028356244
51028363385
51028369061
51028374371
51028381329
51028388165
51028392804
51028397931
51028403607
51028407697
51028413861
51028418988
51028425336
51028430402
51028436749
51028441815
51028447797
51028453229
51028457867
51028464520
51028469098
51028475018
51028479413
51028485943
51028490887
51028495892
51028501263
51028506573
51028511883
51028517254
51028522442
51028528180
51028533978
51028539166
51028544354
51028549786
51028554058
51028560345
51028565167
51028570050
51028575482
51028580304
51028585491
51028590802
51028598309
51028602703
51028608685
51028612835
51028618023
51028622662
51028628094
51028633587
51028639202
51028644573
51028648480
51028654095
51028660015
51028664837
51028670330
51028675457
51028681072
51028685040
51028690289
51028695171
51028700420
51028705486
51028710125
51028715557
51028720806
51028726299
51028730633
51028734600
51028741375
51028746075
51028752056
51028756328
51028762249
51028767071
51028772747
51028779705
51028785137
51028790752
51028797527
51028804607
51028811138
51028816692
51028822124
51028827312
51028833416
51028839031
51028843364
51028850505
51028854717
51028861797
51028866985
51028872173
51028877910
51028884624
51028888225
51028895488
51028901592
51028905986
51028910442
51028917278
51028922283
51028929485
51028933696
51028940166
51028945049
51028950298
51028956523
51028961711
51028966472
51028972209
51028977580
51028981609
51028988628
51028993388
51028998637
51029004985
51029007487
51029015117
51029022990
51029026469
51029033366
51029038676
51029043620
51029049846
51029054545
51029060039
51029065532
51029069865
51029076457
51029082622
51029087993
51029094279
51029098247
51029104045
51029110026
51029115641
51029122172
51029127971
51029132609
51029137858
51029143412
51029149150
51029154338
51029159709
51029166240
51029170634
51029177165
51029182292
51029186198
51029193156
51029198588
51029203166
51029209391
51029213725
51029221171
51029226298
51029231852
51029237711
51029244731
51029249674
51029254801
51029260478
51029266337
51029272440
51029276957
51029283060
51029287699
51029293436
51029298991
51029303019
51029309428
51029314188
51029319926
51029324747
51029330180
51029335978
51029342142
51029348917
51029353861
51029358805
51029363749
51029370157
51029374308
51029380778
51029386576
51029391825
51029395548
51029401285
51029406229
51029410502
51029417215
51029422159
51029428568
51029433146
51029438211
51029443705
51029449686
51029454203
51029459452
51029464945
51029470438
51029474039
51029480814
51029485636
51029489420
51029496439
51029501322
51029506265
51029511637
51029517923
51029522989
51029529032
51029534708
51029539835
51029546243
51029550943
51029556680
51029563272
51029568582
51029574075
51029580240
51029584268
51029591043
51029596902
51029601541
51029608072
51029613992
51029617776
51029624429
51029630594
51029635232
51029641214
51029645791
51029651407
51029658426
51029662271
51029668130
51029673440
51029678506
51029684793
51029689676
51029694925
51029701516
51029706094
51029711831
51029717752
51029722696
51029728860
51029734964
51029739907
51029745584
51029748635
51029756204
51029762002
51029765969
51029772622
51029776895
51029783486
51029788735
51029794229
51029800088
51029806069
51029811318
51029815835
51029822488
51029828774
51029835366
51029839028
51029846536
51029851968
51029855508
51029862283
51029868203
51029874246
51029879433
51029883096
51029889993
51029894692
51029902932
51029908486
51029912881
51029918740
51029924721
51029930398
51029936257
51029941689
51029946755
51029952004
51029958230
51029964211
51029969948
51029975136
51029981545
51029986794
51029992653
51029997170
51030003151
51030008889
51030015603
51030019875
51030025246
51030030617
51030034951
51030041970
51030047280
51030053994
51030059182
51030064431
51030069741
51030075234
51030080971
51030086342
51030091286
51030096657
51030103737
51030109291
51030115029
51030120461
51030126198
51030132240
51030136025
51030141884
51030145607
51030150612
51030156838
51030162514
51030166420
51030171242
51030177712
51030182106
51030187477
51030192726
51030198402
51030202797
51030208473
51030213051
51030217812
51030224281
51030229347
51030233131
51030239784
51030245338
51030249916
51030254982
51030260170
51030265724
51030269569
51030275856
51030280128
51030285621
51030290260
51030295082
51030301429
51030306740
51030311012
51030316810
51030321632
51030326515
51030332130
51030337562
51030342323
51030347938
51030352699
51030357887
51030362526
51030368568
51030374488
51030379005
51030385169
51030390480
51030394447
51030399147
51030405128
51030411659
51030416480
51030422035
51030426246
51030432472
51030437904
51030443763
51030448890
51030454871
51030458900
51030466468
51030470680
51030476417
51030483314
51030488746
51030495032
51030500465
51030506507
51030511878
51030517188
51030523292
51030529212
51030535499
51030541846
51030547462
51030553321
51030558265
51030563697
51030569373
51030573340
51030580237
51030586768
51030592017
51030597937
51030601783
51030607886
51030613929
51030617713
51030624122
51030628150
51030633399
51030639685
51030643287
51030649756
51030656165
51030661414
51030666907
51030671973
51030678015
51030683875
51030689185
51030694739
51030698645
51030704810
51030710547
51030715613
51030721839
51030728430
51030731909
51030738867
51030744666
51030749548
51030756567
51030762732
51030767493
51030772742
51030777625
51030783606
51030788794
51030792517
51030800574
51030806433
51030811804
51030817786
51030823950
51030829443
51030835242
51030840552
51030846106
51030851111
51030855627
51030860388
51030865515
51030870764
51030875097
51030880652
51030885840
51030890905
51030895971
51030900793
51030905798
51030911963
51030917822
51030922522
51030927893
51030933813
51030938635
51030943823
51030950109
51030953588
51030959753
51030964758
51030970312
51030975622
51030980505
51030986425
51030990881
51030996374
51031002661
51031006750
51031013281
51031018102
51031023718
51031029211
51031033788
51031038366
51031045080
51031050695
51031055639
51031061071
51031065954
51031070470
51031075231
51031079748
51031086217
51031089330
51031096532
51031101232
51031106359
51031112157
51031117162
51031122961
51031129430
51031133398
51031138219
51031143651
51031149267
51031153783
51031160802
51031166173
51031171300
51031175329
51031181005
51031187169
51031190893
51031197851
51031203588
51031207799
51031212377
51031217443
51031222631
51031227941
51031233861
51031237828
51031244664
51031249913
51031254979
51031259496
51031264440
51031269628
51031275426
51031280492
51031284703
51031290319
51031295751
51031300756
51031307469
51031310094
51031316808
51031322179
51031326817
51031331639
51031335484
51031341710
51031347203
51031351415
51031355870
51031360997
51031367223
51031371068
51031377110
51031382909
51031388463
51031392552
51031397557
51031402623
51031407628
51031412755
51031418370
51031423680
51031428502
51031433018
51031438450
51031442357
51031448216
51031452305
51031459019
51031464207
51031468785
51031474766
51031479649
51031485508
51031490635
51031496251
51031501439
51031506688
51031512669
51031517491
51031523838
51031529148
51031535374
51031539952
51031545079
51031551426
51031557225
51031564671
51031568028
51031574253
51031579808
51031585423
51031591526
51031597447
51031602452
51031608372
51031613682
51031619297
51031626499
51031629917
51031636631
51031642307
51031647678
51031653538
51031659885
51031664585
51031670506
51031676792
51031682163
51031689182
51031694431
51031701328
51031707432
51031712620
51031716892
51031723301
51031728184
51031735203
51031740757
51031746189
51031751011
51031756870
51031761387
51031767917
51031771824
51031778599
51031782993
51031789951
51031795139
51031800571
51031805942
51031811496
51031816745
51031822055
51031827732
51031833652
51031838596
51031843357
51031849887
51031854648
51031859897
51031864719
51031870944
51031877231
51031881320
51031886508
51031892978
51031897800
51031903354
51031909336
51031913120
51031920932
51031925693
51031930209
51031937412
51031941806
51031946872
51031952060
51031957309
51031962924
51031968295
51031973788
51031980258
51031985202
51031991733
51031995822
51032003390
51032007419
51032014072
51032019321
51032025302
51032030185
51032036410
51032042148
51032048373
51032054111
51032059176
51032063815
51032069858
51032075412
51032080905
51032086276
51032091586
51032098117
51032103061
51032108676
51032114352
51032120700
51032124850
51032132174
51032137790
51032142977
51032149447
51032154635
51032160128
51032164889
51032170138
51032176486
51032179965
51032186556
51032194247
51032197726
51032204928
51032210055
51032214999
51032221285
51032226779
51032233675
51032238009
51032243075
51032249178
51032254061
51032259921
51032266573
51032271212
51032277438
51032283114
51032288241
51032294466
51032301363
51032308321
51032313265
51032319552
51032324801
51032329745
51032335238
51032340609
51032345247
51032351717
51032356966
51032360628
51032367708
51032375643
51032379122
51032386080
51032390291
51032396090
51032402071
51032406771
51032412081
51032418612
51032423128
51032429049
51032433931
51032439913
51032446199
51032450350
51032456148
51032460970
51032466158
51032472811
51032477632
51032483431
51032489046
51032493990
51032500459
51032504610
51032510652
51032518038
51032522859
51032528841
51032534212
51032538973
51032545686
51032551119
51032557405
51032563326
51032568391
51032573579
51032579622
51032586153
51032591157
51032596040
51032601228
51032606477
51032612398
51032618013
51032623262
51032626924
51032633211
51032638277
51032644441
51032648713
51032653718
51032659089
51032665437
51032669893
51032675508
51032679414
51032685151
51032690400
51032695527
51032700471
51032706147
51032710054
51032715425
51032721711
51032726655
51032732820
51032737825
51032743074
51032746553
51032752778
51032757722
51032762666
51032769441
51032774385
51032779695
51032783906
51032790376
51032794709
51032800019
51032806672
51032810700
51032816560
51032820832
51032826142
51032832246
51032837617
51032843720
51032849336
51032854340
51032858369
51032864777
51032869172
51032875214
51032880708
51032885712
51032891938
51032896455
51032902070
51032906831
51032911835
51032917390
51032923432
51032927521
51032935395
51032940766
51032945588
51032952241
51032958161
51032962861
51032970063
51032974457
51032980378
51032987153
51032992035
51032998871
51033003083
51033008210
51033014618
51033021515
51033026032
51033032196
51033038361
51033043610
51033048249
51033054413
51033059174
51033065338
51033071076
51033075714
51033082611
51033086334
51033091828
51033098419
51033104828
51033109467
51033114777
51033119965
51033125031
51033130768
51033136932
51033141388
51033148407
51033152802
51033158783
51033164520
51033170013
51033175934
51033179779
51033185333
51033191803
51033196625
51033203094
51033207977
51033214325
51033220184
51033224579
51033232086
51033237274
51033242340
51033247589
51033252228
51033258636
51033264496
51033270904
51033276153
51033280975
51033285797
51033291839
51033295929
51033301605
51033308624
51033313446
51033319732
51033324432
51033330780
51033337310
51033342132
51033347381
51033352813
51033358795
51033362457
51033369476
51033376190
51033381256
51033385650
51033390655
51033396087
51033400787
51033406341
51033412628
51033418365
51033422271
51033427276
51033432891
51033438995
51033443450
51033449126
51033455230
51033460479
51033466155
51033471221
51033477508
51033482452
51033488738
51033495025
51033499847
51033506316
51033510345
51033517791
51033523528
51033528045
51033534575
51033540069
51033545928
51033552520
51033557769
51033561980
51033568206
51033572967
51033578216
51033583587
51033587188
51033595000
51033599822
51033604400
51033611602
51033616545
51033621733
51033627166
51033630889
51033637542
51033642668
51033647673
51033651458
51033656890
51033663237
51033668608
51033674163
51033677580
51033684416
51033688567
51033694121
51033699797
51033704619
51033710722
51033715849
51033721709
51033726408
51033731902
51033738432
51033743926
51033750334
51033756560
51033762175
51033768034
51033773894
51033778349
51033783842
51033790007
51033795988
51033802031
51033808562
51033813505
51033818632
51033823454
51033830351
51033835539
51033839018
51033846464
51033851347
51033856474
51033862028
51033865935
51033872954
51033878508
51033883696
51033890715
51033895475
51033901091
51033906950
51033909513
51033918119
51033922453
51033928923
51033934660
51033938200
51033943632
51033949858
51033955046
51033961271
51033967375
51033972502
51033977445
51033982328
51033988066
51033993864
51033998808
51034005705
51034011137
51034017545
51034023893
51034029325
51034034513
51034040128
51034044767
51034050871
51034055936
51034060941
51034066557
51034072233
51034076994
51034081693
51034087797
51034093595
51034100126
51034104642
51034110685
51034115018
51034120817
51034125822
51034131010
51034136808
51034142240
51034147672
51034152189
51034156522
51034162015
51034168058
51034173368
51034178495
51034184598
51034190580
51034196378
51034202359
51034207731
51034214078
51034220365
51034222867
51034230619
51034236966
51034241483
51034246915
51034252835
51034257718
51034265042
51034270413
51034277860
51034283292
51034289395
51034294644
51034301358
51034306790
51034312222
51034318265
51034322843
51034329190
51034335172
51034339200
51034345914
51034352078
51034357022
51034363614
51034368497
51034374356
51034380460
51034384183
51034390591
51034395596
51034401089
51034408047
51034412442
51034419217
51034425259
51034428982
51034436734
51034441800
51034446499
51034453152
51034458645
51034464261
51034469021
51034473416
51034477627
51034483120
51034488553
51034493802
51034499844
51034504422
51034508755
51034515347
51034519375
51034524441
51034530911
51034535488
51034539517
51034545803
51034549649
51034555264
51034560452
51034566067
51034571621
51034575466
51034581997
51034585659
51034591519
51034596646
51034603176
51034608608
51034612270
51034618496
51034622280
51034628506
51034634182
51034638821
51034643887
51034648891
51034653896
51034657253
51034663845
51034670132
51034675808
51034681240
51034685329
51034692226
51034696865
51034701504
51034708340
51034713222
51034717251
51034722256
51034728115
51034733425
51034737636
51034745022
51034750149
51034756557
51034760463
51034765774
51034770290
51034776455
51034781460
51034787197
51034792446
51034797390
51034802883
51034808071
51034813991
51034820705
51034825771
51034831874
51034837551
51034844509
51034848720
51034854579
51034859218
51034866115
51034872219
51034876979
51034882594
51034888698
51034894801
51034900478
51034906764
51034910671
51034916164
51034923305
51034928798
51034933864
51034939052
51034944301
51034949794
51034955226
51034962123
51034967494
51034973476
51034977626
51034983913
51034989101
51034994533
51034999354
51035004787
51035010646
51035014308
51035021388
51035025844
51035031886
51035037807
51035044276
51035048305
51035054774
51035061122
51035065150
51035069911
51035076808
51035081019
51035087306
51035092677
51035097804
51035102931
51035108546
51035113124
51035119166
51035125758
51035128871
51035135218
51035141688
51035146998
51035151393
51035157008
51035161585
51035168055
51035172755
51035179408
51035184107
51035188685
51035193873
51035199671
51035204615
51035211024
51035215296
51035219691
51035225184
51035230860
51035237025
51035242396
51035246485
51035253504
51035258143
51035263148
51035268092
51035273218
51035278529
51035284083
51035289332
51035293421
51035298426
51035304957
51035308863
51035315882
51035321192
51035325525
51035330103
51035335352
51035341273
51035346094
51035352808
51035358545
51035363550
51035368555
51035373560
51035378199
51035383265
51035388941
51035394373
51035399439
51035403528
51035409876
51035414576
51035418970
51035425623
51035429956
51035435755
51035440332
51035445642
51035450525
51035455774
51035462061
51035466272
51035472315
51035477320
51035482508
51035488489
51035494165
51035500025
51035504480
51035509668
51035514734
51035519800
51035525049
51035529932
51035536157
51035542078
51035546899
51035551721
51035556848
51035561609
51035565759
51035572229
51035577173
51035584192
51035589746
51035596338
51035600122
51035606164
51035612207
51035618188
51035625696
51035631616
51035636743
51035642663
51035647851
51035653283
51035659387
51035665368
51035670251
51035677453
51035683801
51035688623
51035696130
51035700158
51035705590
51035711572
51035716760
51035723352
51035728784
51035734399
51035740625
51035745996
51035752648
51035758081
51035763269
51035768945
51035773034
51035778588
51035783959
51035788293
51035795190
51035800866
51035804223
51035811120
51035815331
51035821740
51035827599
51035832970
51035838403
51035844018
51035848351
51035855004
51035861230
51035866174
51035871606
51035875207
51035882714
51035889489
51035894921
51035899865
51035903588
51035909997
51035915124
51035921593
51035928185
51035932519
51035938134
51035944787
51035949303
51035955346
51035960289
51035966637
51035970726
51035977196
51035981286
51035987267
51035992577
51035998864
51036003075
51036009911
51036014794
51036018395
51036024865
51036029869
51036035546
51036042687
51036047325
51036052574
51036058434
51036062218
51036070336
51036075279
51036080101
51036086266
51036091820
51036097313
51036102684
51036106224
51036113731
51036117943
51036124413
51036129173
51036134666
51036139732
51036145714
51036150719
51036156517
51036160973
51036166954
51036172874
51036176353
51036182945
51036188438
51036192894
51036199180
51036203514
51036209373
51036215782
51036221092
51036226097
51036231529
51036237999
51036243919
51036247520
51036254234
51036259666
51036264854
51036270652
51036276634
51036281883
51036287193
51036292869
51036297203
51036302696
51036309166
51036314964
51036320701
51036326377
51036330589
51036335777
51036340477
51036346031
51036352073
51036357017
51036363182
51036368919
51036375938
51036382285
51036387351
51036391136
51036398033
51036404563
51036408592
51036414756
51036420799
51036425620
51036431541
51036436057
51036441673
51036447532
51036453269
51036459312
51036463645
51036469504
51036475425
51036479087
51036486045
51036490928
51036496604
51036503440
51036509055
51036512900
51036519614
51036526023
51036531516
51036536765
51036541770
51036546897
51036554282
51036559165
51036566001
51036571860
51036577597
51036582969
51036588034
51036594931
51036601218
51036606772
51036613486
51036618186
51036624533
51036631186
51036636557
51036641501
51036647788
51036653647
51036658835
51036664450
51036669821
51036675498
51036680747
51036687216
51036691672
51036695456
51036702719
51036709738
51036714316
51036720297
51036725790
51036730917
51036736411
51036741476
51036747763
51036753134
51036759055
51036764487
51036770102
51036774863
51036781027
51036786459
51036792319
51036797873
51036801779
51036808310
51036813193
51036819479
51036825278
51036830221
51036835959
51036841818
51036847494
51036852865
51036859274
51036863424
51036870138
51036876364
51036881979
51036888388
51036892660
51036897909
51036903891
51036909384
51036915609
51036921591
51036927267
51036932699
51036937155
51036942526
51036949301
51036954733
51036959921
51036965719
51036971212
51036976888
51036982809
51036988241
51036993795
51036999349
51037005209
51037009786
51037015279
51037021627
51037028463
51037033285
51037039266
51037045065
51037050619
51037055929
51037062337
51037067892
51037073080
51037079000
51037083944
51037088583
51037094015
51037101339
51037108541
51037114278
51037119344
51037123128
51037130086
51037134908
51037140828
51037146749
51037152059
51037157552
51037163106
51037168599
51037173543
51037179219
51037184835
51037190511
51037195089
51037199849
51037205892
51037210530
51037215779
51037221944
51037226522
51037231588
51037236592
51037242024
51037249044
51037254720
51037259542
51037264485
51037270406
51037275838
51037281941
51037285542
51037291585
51037296590
51037301778
51037305989
51037311665
51037317220
51037323872
51037329182
51037333943
51037338948
51037344258
51037349690
51037354939
51037360615
51037364156
51037370625
51037375081
51037380635
51037386922
51037391621
51037397481
51037401143
51037406453
51037412312
51037417256
51037423421
51037427205
51037432942
51037438313
51037443379
51037447835
51037455037
51037461262
51037464924
51037472004
51037477559
51037481709
51037487507
51037492939
51037498616
51037502949
51037508015
51037512410
51037517659
51037523518
51037528279
51037535481
51037541218
51037547871
51037553547
51037559895
51037566242
51037572163
51037577229
51037582417
51037588642
51037594746
51037599751
51037605061
51037611591
51037618244
51037622700
51037628681
51037632893
51037639179
51037644672
51037651142
51037655659
51037662495
51037667866
51037673481
51037678913
51037684528
51037690082
51037695331
51037701313
51037706501
51037712238
51037718342
51037723163
51037729206
51037733295
51037739399
51037746540
51037750019
51037756977
51037761432
51037766254
51037772785
51037779132
51037784809
51037790912
51037796039
51037801227
51037808429
51037812274
51037818683
51037824298
51037829120
51037835285
51037839496
51037846393
51037852191
51037857379
51037863117
51037868854
51037874408
51037880084
51037885455
51037891071
51037896991
51037902179
51037906818
51037912555
51037916827
51037921710
51037927020
51037933185
51037939288
51037944598
51037950702
51037954913
51037962543
51037966815
51037972858
51037979022
51037983722
51037991778
51037997516
51038002215
51038008075
51038012713
51038017718
51038022357
51038027789
51038035357
51038040545
51038046527
51038053912
51038058734
51038065081
51038069964
51038075152
51038080706
51038085772
51038090899
51038096576
51038100909
51038109393
51038114459
51038119830
51038126055
51038130755
51038138140
51038143817
51038147967
51038154132
51038159320
51038163287
51038170672
51038176776
51038180316
51038186602
51038191241
51038197894
51038203509
51038209246
51038214495
51038220416
51038225359
51038231524
51038236956
51038242083
51038248431
51038254046
51038259539
51038263995
51038268572
51038274981
51038280901
51038286944
51038292071
51038297381
51038303545
51038309405
51038313555
51038320452
51038324907
51038331377
51038336382
51038341509
51038346697
51038353533
51038358111
51038364580
51038369097
51038374468
51038380571
51038386492
51038391191
51038397234
51038400896
51038406694
51038412676
51038419146
51038425249
51038431108
51038436540
51038442034
51038447649
51038453691
51038458452
51038464433
51038469560
51038473894
51038478838
51038485613
51038489275
51038495378
51038501054
51038507097
51038512102
51038516924
51038522966
51038526811
51038533220
51038538286
51038544328
51038548418
51038554582
51038558977
51038565630
51038570695
51038576066
51038580949
51038585466
51038591142
51038597124
51038602495
51038608049
51038612810
51038620073
51038626665
51038632829
51038638505
51038642595
51038648820
51038653581
51038659868
51038666520
51038673967
51038678910
51038684465
51038690141
51038693681
51038699845
51038706803
51038711625
51038716569
51038721757
51038726701
51038731645
51038737260
51038742875
51038747941
51038753861
51038758439
51038763810
51038768876
51038775529
51038780229
51038786149
51038791276
51038796342
51038802323
51038806718
51038812821
51038818803
51038823930
51038830033
51038835282
51038842179
51038847245
51038850785
51038858903
51038863297
51038868363
51038874161
51038880326
51038885697
51038891740
51038897233
51038904191
51038909379
51038916031
51038922013
51038928299
51038933793
51038939042
51038944352
51038950089
51038955887
51038959671
51038964798
51038971207
51038975480
51038980973
51038986466
51038991410
51038997879
51039003189
51039007706
51039013810
51039018204
51039024369
51039029068
51039034683
51039040055
51039044754
51039050797
51039057511
51039061356
51039067764
51039072647
51039077347
51039083206
51039088699
51039093765
51039099442
51039105667
51039111038
51039116776
51039120438
51039127213
51039131424
51039137894
51039144058
51039147781
51039153580
51039158340
51039163406
51039169754
51039173904
51039180496
51039185379
51039191421
51039196976
51039202835
51039208999
51039214126
51039219497
51039225723
51039231888
51039236221
51039243057
51039248733
51039252334
51039258438
51039263870
51039268631
51039274002
51039281082
51039285049
51039292007
51039296585
51039303176
51039307937
51039314041
51039320144
51039324905
51039330459
51039337905
51039343337
51039348831
51039353835
51039359085
51039364944
51039369399
51039375259
51039380935
51039385513
51039391189
51039396072
51039402358
51039408706
51039414077
51039419448
51039424697
51039429763
51039434463
51039439712
51039444656
51039449660
51039455581
51039460158
51039465835
51039470595
51039475112
51039482009
51039486953
51039492019
51039497207
51039502822
51039508071
51039512771
51039518813
51039524184
51039529738
51039534438
51039539138
51039543288
51039549086
51039555983
51039561171
51039565810
51039570876
51039576979
51039581862
51039587966
51039592726
51039597975
51039603469
51039608840
51039612807
51039618544
51039624037
51039630202
51039634902
51039641066
51039644667
51039650160
51039654067
51039659377
51039665297
51039669325
51039676039
51039681288
51039686903
51039691908
51039696913
51039702528
51039708083
51039713149
51039717543
51039722975
51039727492
51039732924
51039738478
51039743483
51039749403
51039753737
51039759291
51039764845
51039770155
51039775954
51039780287
51039785658
51039789870
51039795485
51039801649
51039807631
51039812880
51039817701
51039823256
51039827406
51039833632
51039837965
51039843214
51039848280
51039854506
51039859572
51039864759
51039869459
51039875135
51039880140
51039886610
51039892164
51039898024
51039903578
51039908522
51039914442
51039920668
51039926161
51039933485
51039938917
51039944654
51039949659
51039955702
51039961683
51039966688
51039973097
51039977613
51039983778
51039989942
51039995191
51040001600
51040007948
51040013197
51040018079
51040024915
51040030408
51040035291
51040040601
51040045789
51040052137
51040058973
51040064954
51040070264
51040074659
51040080762
51040085584
51040089979
51040095777
51040100660
51040107435
51040114087
51040119153
51040124341
51040130933
51040136854
51040141614
51040146314
51040152478
51040157239
51040163038
51040168958
51040174024
51040179517
51040183728
51040189588
51040194471
51040200025
51040205579
51040210889
51040216321
51040220960
51040226453
51040231397
51040237134
51040243115
51040248548
51040253613
51040260083
51040266248
51040270154
51040277234
51040282178
51040287488
51040294263
51040299939
51040304822
51040310498
51040315259
51040321729
51040327344
51040332227
51040338025
51040342480
51040347546
51040354260
51040358777
51040365063
51040369519
51040375256
51040381299
51040387768
51040392407
51040398633
51040402844
51040409558
51040413830
51040418652
51040425305
51040429944
51040435071
51040440808
51040446057
51040452404
51040457715
51040463574
51040468151
51040472851
51040476330
51040482006
51040488354
51040492260
51040497937
51040502880
51040508007
51040512463
51040517285
51040523022
51040528332
51040534497
51040539562
51040544445
51040549084
51040555432
51040560925
51040566601
51040570385
51040576306
51040582226
51040587109
51040592907
51040598156
51040603588
51040608715
51040614025
51040620068
51040624889
51040629894
51040636608
51040642651
51040648327
51040652599
51040658398
51040665417
51040670238
51040675548
51040681469
51040687633
51040693004
51040698070
51040703380
51040710399
51040715770
51040721386
51040726696
51040732372
51040738048
51040744152
51040750744
51040756176
51040760997
51040766674
51040772472
51040777965
51040782970
51040789012
51040793529
51040799938
51040807323
51040812084
51040817760
51040821178
51040826976
51040832164
51040838024
51040842418
51040849132
51040854137
51040858898
51040863414
51040868541
51040874828
51040880077
51040885997
51040891673
51040899608
51040903758
51040908946
51040915111
51040920482
51040925670
51040932017
51040937816
51040942332
51040948741
51040953746
51040960887
51040966075
51040971080
51040977672
51040982066
51040987559
51040994212
51041000194
51041005626
51041009044
51041014903
51041021312
51041027476
51041032725
51041037730
51041043589
51041049327
51041055552
51041059825
51041064280
51041068003
51041072276
51041076976
51041080699
51041085276
51041089183
51041092967
51041096751
51041101512
51041106028
51041109873
51041113597
51041118235
51041122080
51041125193
51041129466
51041133738
51041136912
51041140818
51041144541
51041149424
51041152842
51041157786
51041162486
51041167063
51041172434
51041176280
51041180247
51041184641
51041188609
51041192820
51041197092
51041200144
51041204722
51041208811
51041213206
51041218272
51041221812
51041224680
51041228831
51041232798
51041237070
51041240977
51041243479
51041247874
51041252878
51041256602
51041260142
51041264170
51041268320
51041271860
51041275889
51041280649
51041283274
51041287546
51041291514
51041294748
51041299692
51041302744
51041308542
51041312021
51041316721
51041321360
51041325754
51041330515
51041334238
51041337778
51041343271
51041346811
51041351816
51041356577
51041359751
51041364023
51041368784
51041372324
51041376535
51041380503
51041384897
51041390940
51041395639
51041400705
51041405832
51041408823
51041414194
51041419199
51041423105
51041427194
51041432321
51041435129
51041440500
51041444345
51041448496
51041452402
51041456491
51041462534
51041466745
51041470224
51041475595
51041479746
51041482797
51041487924
51041492075
51041496896
51041500314
51041504282
51041508859
51041513559
51041518930
51041523325
51041528696
51041533334
51041536081
51041539987
51041546152
51041550180
51041555490
51041558664
51041562631
51041565683
51041570260
51041574899
51041578500
51041582467
51041586313
51041589670
51041594858
51041599069
51041604623
51041609323
51041612863
51041616769
51041620858
51041625680
51041629587
51041634164
51041639901
51041642526
51041647226
51041651376
51041653756
51041659127
51041663949
51041666940
51041672067
51041676889
51041680429
51041685556
51041689889
51041694223
51041699044
51041702706
51041706735
51041713082
51041717233
51041722482
51041726388
51041729928
51041734323
51041737985
51041743234
51041747811
51041750985
51041755685
51041760079
51041764596
51041768136
51041771981
51041776376
51041781381
51041784371
51041788644
51041792367
51041796517
51041801400
51041805123
51041809151
51041814095
51041818856
51041824593
51041828255
51041831918
51041837228
51041840768
51041845467
51041849557
51041852303
51041857308
51041862557
51041866280
51041871041
51041874947
51041878304
51041882699
51041886056
51041890145
51041893197
51041898263
51041902657
51041906807
51041910653
51041914864
51041918648
51041922860
51041926583
51041931283
51041935860
51041940621
51041945870
51041950142
51041953438
51041958992
51041963936
51041966866
51041971566
51041976143
51041981636
51041985482
51041990975
51041994149
51041997628
51042001412
51042005074
51042009712
51042013130
51042017037
51042020027
51042023079
51042026680
51042030586
51042033394
51042036934
51042040169
51042043038
51042046333
51042049507
51042052437
51042055672
51042059273
51042061897
51042065071
51042068062
51042071053
51042073555
51042076668
51042080269
51042083199
51042086311
51042088814
51042092110
51042094246
51042097115
51042099312
51042103279
51042105904
51042108589
51042110970
51042113716
51042116707
51042118843
51042121651
51042123909
51042126289
51042128487
51042130684
51042133369
51042135933
51042138191
51042140449
51042143013
51042145271
51042147407
51042149849
51042151985
51042154976
51042156868
51042159431
51042161812
51042164314
51042166389
51042169258
51042171821
51042174324
51042176582
51042178840
51042181587
51042183967
51042186226
51042188606
51042190620
51042192817
51042195442
51042197822
51042199470
51042201912
51042203621
51042205574
51042207771
51042209663
51042211311
51042213325
51042215523
51042217720
51042219429
51042221077
51042223030
51042225044
51042226875
51042228828
51042230720
51042232490
51042234199
51042236152
51042238228
51042240181
51042241829
51042244087
51042246101
51042248298
51042250007
51042252082
51042254646
51042256721
51042258918
51042260749
51042263008
51042264839
51042266792
51042269477
51042271247
51042273262
51042275276
51042277290
51042279243
51042280952
51042283332
51042285163
51042287178
51042288826
51042290840
51042292610
51042294746
51042296272
51042298042
51042300056
51042301765
51042303718
51042305488
51042307502
51042309272
51042311042
51042312995
51042315071
51042316963
51042318733
51042320564
51042322456
51042324653
51042326484
51042328742
51042330573
51042332588
51042334785
51042336494
51042338447
51042340400
51042342780
51042344550
51042346504
51042348640
51042350593
51042352424
51042354255
51042356086
51042358528
51042360420
51042362068
51042364082
51042366401
51042368415
51042370307
51042372260
51042374214
51042375984
51042377815
51042379890
51042381782
51042383247
51042384895
51042386604
51042388862
51042390571
51042392402
51042394111
51042395942
51042398017
51042399787
51042401679
51042403693
51042405708
51042408027
51042409553
51042411628
51042413764
51042415473
51042417915
51042419807
51042422004
51042424018
51042425788
51042427558
51042429572
51042431586
51042433478
51042435371
51042437202
51042439094
51042441047
51042443061
51042444953
51042446662
51042448432
51042450263
51042452338
51042454230
51042456061
51042457892
51042459601
51042461494
51042463630
51042465583
51042467231
51042469123
51042471137
51042473395
51042475226
51042476935
51042478889
51042480781
51042482795
51042484748
51042486884
51042488837
51042490973
51042492866
51042494758
51042496711
51042498786
51042500739
51042502570
51042504462
51042506598
51042508429
51042510261
51042512153
51042513923
51042516059
51042517829
51042519904
51042521918
51042523627
51042525580
51042527533
51042529548
51042531501
51042533210
51042534980
51042536872
51042538764
51042540717
51042542670
51042544623
51042546515
51042548835
51042550971
51042552863
51042554755
51042556952
51042558783
51042560981
51042562812
51042564704
51042566718
51042568610
51042571051
51042572882
51042574897
51042576850
51042578864
51042581244
51042583136
51042585089
51042586859
51042588629
51042591132
51042593085
51042594977
51042596625
51042598273
51042600531
51042602423
51042604315
51042606147
51042608161
51042609870
51042611884
51042614020
51042615607
51042617621
51042619391
51042621405
51042623664
51042625311
51042627326
51042629157
51042631171
51042633368
51042635138
51042637274
51042639044
51042641120
51042643195
51042645087
51042647345
51042649298
51042651129
51042653327
51042655097
51042657233
51042659186
51042661017
51042662909
51042664618
51042666876
51042668707
51042670660
51042672431
51042674262
51042676154
51042677924
51042679816
51042681586
51042683600
51042685248
51042687262
51042689276
51042690985
51042692877
51042694769
51042696722
51042698676
51042700690
51042702643
51042704596
51042706488
51042708685
51042710577
51042712897
51042714606
51042716498
51042718756
51042720587
51042722784
51042724799
51042726630
51042728400
51042730231
51042732184
51042734259
51042736029
51042737677
51042739813
51042742071
51042743780
51042745611
51042747748
51042749884
51042751532
51042753546
51042755194
51042757147
51042758795
51042760809
51042762945
51042764715
51042766608
51042768683
51042770453
51042772711
51042774420
51042776251
51042778265
51042780096
51042781805
51042784308
51042786200
51042788092
51042790167
51042792303
51042794134
51042796087
51042798407
51042800116
51042802252
51042804205
51042806463
51042808355
51042810431
51042811957
51042814093
51042816290
51042817999
51042820013
51042821905
51042823614
51042825506
51042827215
51042829290
51042831122
51042832953
51042834845
51042836493
51042838690
51042841009
51042843023
51042844732
51042846624
51042848700
51042850531
51042852484
51042854559
51042856390
51042858709
51042860418
51042862494
51042864447
51042866339
51042868353
51042870184
51042872503
51042874212
51042876226
51042877996
51042879705
51042881964
51042883673
51042885626
51042887396
51042889288
51042891546
51042893499
51042895269
51042897283
51042899176
51042901007
51042902960
51042904608
51042906500
51042908331
51042910223
51042911993
51042914007
51042915838
51042917974
51042919866
51042921636
51042923895
51042925726
51042927618
51042929449
51042931280
51042933294
51042935125
51042937017
51042939092
51042940985
51042942877
51042944830
51042947210
51042949102
51042951055
51042952764
51042954534
51042956609
51042958379
51042960088
51042961981
51042963873
51042967107
51042970098
51042971746
51042973821
51042975652
51042977544
51042979620
51042981512
51042983221
51042985174
51042987127
51042988897
51042990972
51042992620
51042994756
51042996465
51042998296
51043000677
51043002569
51043004522
51043006536
51043008245
51043010442
51043011968
51043013921
51043015813
51043017644
51043019781
51043021734
51043023748
51043025701
51043027654
51043029729
51043031438
51043033758
51043035467
51043037298
51043039007
51043040838
51043042913
51043044683
51043046392
51043048467
51043050359
51043052129
51043053960
51043055608
51043057500
51043059576
51043061284
51043063299
51043065191
51043067083
51043068853
51043070623
51043072393
51043074529
51043076177
51043078313
51043080205
51043082036
51043084234
51043086004
51043088079
51043089971
51043091741
51043093816
51043095830
51043098089
51043099981
51043101751
51043103704
51043105657
51043107793
51043109502
51043111699
51043113836
51043115606
51043117803
51043119390
51043121160
51043123418
51043125249
51043126897
51043128911
51043130803
51043132695
51043134649
51043136480
51043138189
51043140386
51043142156
51043143804
51043145757
51043147893
51043150090
51043151983
51043153814
51043155706
51043157354
51043159612
51043161260
51043163335
51043165044
51043167119
51043169255
51043171086
51043173345
51043175115
51043176946
51043178899
51043180730
51043182927
51043184758
51043186589
51043188604
51043190496
51043192388
51043194036
51043195867
51043197820
51043199712
51043201665
51043203496
51043205510
51043207219
51043209294
51043210942
51043212834
51043214726
51043216374
51043218389
51043220403
51043222234
51043224370
51043226140
51043228154
51043229985
51043231877
51043233891
51043235967
51043238042
51043239812
51043241704
51043243657
51043245671
51043247746
51043249577
51043251470
51043253362
51043255254
51043257390
51043259343
51043261235
51043263066
51043265080
51043266850
51043268620
51043270268
51043272099
51043273869
51043275823
51043277593
51043279302
51043281010
51043282964
51043284734
51043286748
51043291936
51043296147
51043297917
51043299870
51043301946
51043303899
51043305852
51043308049
51043309819
51043312199
51043313969
51043315800
51043318059
51043319951
51043322209
51043323918
51043325749
51043327824
51043329716
51043331731
51043333684
51043335759
51043337834
51043339848
51043341618
51043343571
51043345586
51043347783
51043350041
51043351811
51043353703
51043355839
51043357731
51043359624
51043361394
51043363286
51043365117
51043366887
51043368901
51043370610
51043372746
51043374516
51043376286
51043378728
51043380620
51043382390
51043384465
51043386479
51043388737
51043390629
51043392582
51043394475
51043396306
51043398381
51043400151
51043402592
51043404423
51043406193
51043408085
51043409977
51043412175
51043413884
51043415898
51043417668
51043419682
51043421696
51043423466
51043425419
51043427372
51043429020
51043431218
51043433476
51043435368
51043437260
51043439091
51043441044
51043442814
51043444767
51043446415
51043448368
51043450261
51043452031
51043454106
51043455937
51043457951
51043459782
51043461674
51043463749
51043465641
51043467594
51043469731
51043471684
51043473759
51043475712
51043478093
51043480290
51043482243
51043484379
51043486454
51043488835
51043490300
51043492314
51043494206
51043496159
51043498234
51043499821
51043501652
51043503605
51043505436
51043507267
51043509159
51043510929
51043512821
51043514958
51043516667
51043518559
51043520695
51043522404
51043524174
51043526005
51043527775
51043529850
51043531864
51043533756
51043535526
51043537296
51043539494
51043541508
51043543400
51043545109
51043546818
51043549198
51043550968
51043553227
51043555058
51043557011
51043559086
51043560856
51043563114
51043565006
51043566715
51043568852
51043570622
51043572636
51043574711
51043576420
51043578251
51043580082
51043582279
51043584171
51043586185
51043587711
51043589542
51043591373
51043593205
51043595280
51043597294
51043598942
51043600773
51043602726
51043604984
51043606815
51043608891
51043610722
51043612431
51043614689
51043616337
51043618473
51043620304
51043622684
51043624515
51043626285
51043628605
51043630497
51043632938
51043634891
51043636661
51043638492
51043640324
51043642277
51043643803
51043646122
51043648197
51043650089
51043651676
51043653629
51043655582
51043657535
51043659305
51043661014
51043662845
51043664677
51043666508
51043668339
51043670353
51043672184
51043673832
51043675724
51043677616
51043679813
51043681705
51043683658
51043685428
51043687320
51043689701
51043691593
51043693851
51043695560
51043697757
51043699711
51043701664
51043703922
51043705936
51043708011
51043709842
51043711918
51043713810
51043715946
51043717777
51043719486
51043721500
51043723270
51043725040
51043726871
51043728824
51043730716
51043732547
51043734317
51043736454
51043738346
51043740116
51043741947
51043743900
51043745853
51043747867
51043749698
51043751590
51043753482
51043755741
51043757633
51043759586
51043761417
51043763919
51043765506
51043767398
51043769718
51043771549
51043773868
51043775882
51043777713
51043779544
51043781681
51043783634
51043785404
51043787540
51043789615
51043791141
51043793094
51043794986
51043796939
51043799198
51043801212
51043802982
51043804630
51043806522
51043808414
51043810428
51043812076
51043814151
51043816104
51043817752
51043819705
51043821659
51043823368
51043825321
51043827030
51043829288
51043831302
51043833011
51043835330
51043837161
51043839542
51043841495
51043843265
51043845279
51043847171
51043849368
51043851138
51043853031
51043855289
51043857181
51043859073
51043860721
51043863040
51043865115
51043867008
51043868839
51043870792
51043873233
51043875003
51043876956
51043878543
51043880618
51043882571
51043884341
51043886173
51043887882
51043889652
51043891544
51043893253
51043895267
51043896976
51043898929
51043900516
51043902469
51043904422
51043906375
51043908084
51043910037
51043911929
51043914066
51043916141
51043918033
51043920108
51043922061
51043924258
51043926089
51043928409
51043930667
51043932498
51043934512
51043936221
51043938602
51043940799
51043942508
51043944400
51043946170
51043948489
51043950870
51043952701
51043954410
51043956119
51043958194
51043960086
51043961978
51043963687
51043965579
51043967471
51043969302
51043971072
51043973025
51043974673
51043976504
51043978641
51043980838
51043982608
51043984500
51043986392
51043988284
51043990359
51043991885
51043993838
51043995730
51043997561
51044000064
51044001834
51044003665
51044005923
51044007571
51044009646
51044011355
51044013858
51044015506
51044017459
51044019168
51044021548
51044024051
51044025943
51044027896
51044029788
51044031802
51044033816
51044035464
51044037417
51044039676
51044041446
51044043338
51044045108
51044047122
51044049319
51044051150
51044053103
51044054934
51044057009
51044058718
51044060794
51044062808
51044064639
51044066226
51044068545
51044070376
51044072024
51044074160
51044075808
51044077639
51044079898
51044081729
51044083438
51044085452
51044087405
51044089602
51044091372
51044093325
51044095217
51044097171
51044099368
51044101382
51044103335
51044105532
51044107424
51044109439
51044111392
51044113772
51044115542
51044117373
51044119082
51044120974
51044122866
51044124880
51044126528
51044128115
51044130068
51044131960
51044133608
51044135623
51044137393
51044139102
51044140750
51044142642
51044144595
51044146609
51044148440
51044150088
51044152041
51044154116
51044155764
51044157656
51044159487
51044161440
51044163577
51044165591
51044167544
51044169558
51044171572
51044173892
51044175784
51044177676
51044179995
51044181826
51044183718
51044185732
51044188174
51044189944
51044191653
51044193545
51044195437
51044197573
51044199343
51044201296
51044203127
51044204958
51044207156
51044208987
51044210757
51044212405
51044214358
51044216311
51044218081
51044220278
51044222231
51044223818
51044225771
51044227663
51044229861
51044231875
51044233828
51044235598
51044237490
51044239931
51044241701
51044243777
51044245852
51044247561
51044249697
51044251650
51044253420
51044255556
51044257265
51044259402
51044261294
51044263552
51044265566
51044267519
51044269167
51044271181
51044273318
51044275027
51044276919
51044278872
51044280825
51044282717
51044284365
51044286379
51044288271
51044290224
51044292116
51044294130
51044296267
51044297915
51044299990
51044301760
51044303713
51044305605
51044307436
51044309206
51044311220
51044313173
51044315493
51044317446
51044319582
51044321474
51044323488
51044325808
51044328005
51044330141
51044331972
51044333925
51044335695
51044337893
51044340090
51044341982
51044343996
51044345888
51044347902
51044350100
51044351992
51044353823
51044355654
51044357546
51044359316
51044361269
51044363039
51044364870
51044366884
51044368715
51044370546
51044372866
51044374575
51044376406
51044378298
51044380190
51044382265
51044384157
51044385805
51044387697
51044389711
51044391847
51044393740
51044395693
51044397768
51044399538
51044401979
51044403810
51044406008
51044408022
51044410341
51044412355
51044414003
51044416139
51044418032
51044419802
51044421755
51044423525
51044425417
51044427309
51044429018
51044430788
51044432802
51044434694
51044436464
51044438234
51044440004
51044442018
51044443971
51044445741
51044447817
51044449709
51044451296
51044453249
51044455141
51044457216
51044459047
51044460756
51044462404
51044464418
51044466737
51044468141
51044470400
51044472170
51044474550
51044476259
51044478395
51044480287
51044482240
51044484377
51044485963
51044487856
51044490175
51044492006
51044493837
51044495668
51044498109
51044499879
51044501833
51044503419
51044505373
51044507448
51044509401
51044511232
51044513185
51044515382
51044517396
51044519167
51044520998
51044522951
51044524782
51044526796
51044528566
51044530580
51044532411
51044534425
51044536073
51044538270
51044540407
51044542238
51044543947
51044545778
51044547731
51044550050
51044551759
51044553712
51044555604
51044557496
51044559450
51044561464
51044563783
51044565675
51044567506
51044569154
51044571290
51044573366
51044575075
51044577028
51044578920
51044580751
51044582643
51044584474
51044586488
51044588075
51044590089
51044591676
51044593629
51044595399
51044597291
51044599061
51044600953
51044602907
51044604799
51044606691
51044608522
51044610536
51044612977
51044614991
51044616700
51044618776
51044620424
51044622316
51044624208
51044626222
51044628114
51044629884
51044631715
51044633729
51044635621
51044637696
51044639466
51044641481
51044643678
51044645570
51044647706
51044649659
51044651368
51044653077
51044655397
51044657228
51044659242
51044661134
51044663026
51044664857
51044666749
51044668580
51044670472
51044672242
51044674012
51044675843
51044677430
51044679750
51044681642
51044683473
51044685365
51044687196
51044689393
51044691285
51044693055
51044694947
51044696961
51044699342
51044701356
51044703248
51044705018
51044707093
51044709107
51044710877
51044713014
51044714906
51044716798
51044718568
51044720460
51044722413
51044724122
51044726197
51044728028
51044729981
51044732118
51044733888
51044735780
51044737794
51044739564
51044741334
51044743226
51044744874
51044747071
51044748841
51044750794
51044752808
51044754579
51044756654
51044758546
51044760621
51044762696
51044764588
51044766419
51044768433
51044770570
51044772645
51044774476
51044776490
51044778443
51044780274
51044782166
51044784058
51044786378
51044788331
51044790345
51044792054
51044794007
51044796082
51044798096
51044800050
51044801881
51044803773
51044805970
51044807618
51044809815
51044811524
51044813599
51044815186
51044816956
51044818848
51044820740
51044822633
51044824219
51044826173
51044827943
51044830018
51044831788
51044833680
51044835572
51044837647
51044839478
51044841370
51044843140
51044845032
51044847169
51044848878
51044850770
51044853089
51044854981
51044857300
51044859254
51044861207
51044863343
51044865113
51044867188
51044868775
51044871277
51044872986
51044875123
51044877259
51044879090
51044881165
51044882874
51044884949
51044886780
51044888917
51044890809
51044892701
51044894654
51044896668
51044898499
51044900208
51044902100
51044904175
51044905823
51044907654
51044909668
51044911499
51044913758
51044915589
51044917664
51044919495
51044921265
51044923645
51044925415
51044927369
51044929566
51044931214
51044933289
51044934998
51044937012
51044939209
51044941040
51044942933
51044944703
51044946961
51044948914
51044950623
51044952698
51044954529
51044956665
51044958863
51044963868
51044966065
51044968079
51044969605
51044971497
51044973450
51044975464
51044977478
51044979431
51044981018
51044983399
51044985291
51044987854
51044991089
51044993347
51044995545
51044997620
51044999756
51045001587
51045003784
51045005982
51045007935
51045010132
51045012207
51045014282
51045016175
51045018006
51045020081
51045021851
51045023682
51045025330
51045027527
51045029480
51045031311
51045033142
51045035034
51045036926
51045038635
51045040772
51045042786
51045044861
51045046631
51045048340
51045050293
51045052673
51045054443
51045056641
51045058533
51045060974
51045062622
51045064514
51045066406
51045068237
51045070801
51045072571
51045074280
51045076355
51045078308
51045080322
51045082275
51045084717
51045086609
51045088623
51045090332
51045092285
51045094421
51045096375
51045098450
51045100037
51045102112
51045104126
51045105957
51045107849
51045109802
51045111450
51045113403
51045115295
51045117248
51045119141
51045121094
51045122925
51045124634
51045126831
51045128662
51045130676
51045132568
51045134399
51045136536
51045138428
51045140869
51045142639
51045144531
51045146728
51045148804
51045151001
51045152832
51045154602
51045156555
51045158386
51045160766
51045162720
51045164551
51045166504
51045168457
51045170654
51045172424
51045174255
51045175964
51045178039
51045179748
51045181701
51045183655
51045185364
51045187317
51045189331
51045191162
51045193237
51045195129
51045196899
51045198730
51045200805
51045203125
51045204895
51045206726
51045208679
51045210693
51045212768
51045214904
51045217102
51045218872
51045220581
51045223022
51045224853
51045226989
51045229004
51045231323
51045233154
51045235168
51045237365
51045239196
51045241150
51045243164
51045245117
51045246887
51045248596
51045250488
51045252441
51045254333
51045256225
51045258239
51045259826
51045261840
51045263671
51045265319
51045267089
51045268981
51045271057
51045272949
51045274719
51045276611
51045278564
51045280334
51045282165
51045283935
51045285705
51045287902
51045289794
51045291992
51045293762
51045295654
51045298095
51045299865
51045302001
51045303894
51045306030
51045307861
51045309692
51045312011
51045313842
51045315734
51045317504
51045319579
51045321472
51045323425
51045325256
51045327331
51045329467
51045331298
51045333434
51045335204
51045337097
51045338867
51045340759
51045342712
51045344726
51045346801
51045348754
51045350768
51045352722
51045354736
51045356567
51045358154
51045360107
51045362243
51045363952
51045365966
51045368224
51045370361
51045372253
51045374328
51045376342
51045378356
51045380370
51045382751
51045384582
51045386840
51045388488
51045390319
51045392150
51045393920
51045395812
51045397338
51045399169
51045401061
51045402831
51045404906
51045406493
51045408263
51045410033
51045411925
51045413634
51045415588
51045417113
51045419006
51045420653
51045422668
51045424499
51045426391
51045428222
51045430053
51045431640
51045433898
51045435607
51045437377
51045439147
51045440978
51045442626
51045444823
51045446654
51045448363
51045450133
51045451964
51045453979
51045455749
51045457519
51045459411
51045461791
51045463439
51045465148
51045466979
51045468566
51045470519
51045472289
51045473815
51045475829
51045477904
51045479613
51045481383
51045483336
51045485167
51045486937
51045488585
51045490355
51045492125
51045493834
51045495788
51045497680
51045499511
51045501464
51045503295
51045505004
51045506774
51045508483
51045510314
51045512511
51045514220
51045516051
51045517821
51045520079
51045522033
51045523681
51045525145
51045526976
51045529174
51045530761
51045532286
51045534056
51045536071
51045537963
51045539672
51045541442
51045543212
51045545043
51045546996
51045549254
51045550963
51045552794
51045554625
51045556456
51045558715
51045560546
51045562316
51045563903
51045565673
51045567382
51045569213
51045570861
51045572570
51045574645
51045576415
51045578429
51045580260
51045582274
51045583861
51045586058
51045587889
51045589476
51045591246
51045592833
51045594847
51045596678
51045598509
51045599974
51045602049
51045604125
51045605773
51045607604
51045609313
51045611327
51045612914
51045614989
51045616759
51045618346
51045619994
51045621581
51045623473
51045625182
51045626647
51045628539
51045630248
51045631957
51045633605
51045635619
51045637511
51045639159
51045640807
51045643187
51045644713
51045646727
51045648253
51045650145
51045652342
51045654051
51045655760
51045657469
51045659239
51045661437
51045663512
51045665343
51045667235
51045669005
51045670714
51045672728
51045674559
51045676268
51045678221
51045679930
51045681761
51045683592
51045685484
51045687193
51045689085
51045690794
51045692442
51045694273
51045696104
51045697813
51045699583
51045701292
51045703123
51045705016
51045706725
51045708495
51045710509
51045712279
51045714171
51045716002
51045717955
51045719908
51045721678
51045723631
51045725706
51045727843
51045729674
51045731749
51045733641
51045735350
51045737364
51045739073
51045741209
51045742918
51045744993
51045746763
51045748900
51045750487
51045752379
51045753966
51045756041
51045757811
51045759459
51045760985
51045762755
51045764586
51045766478
51045768370
51045770384
51045772093
51045773802
51045775450
