51378793579
51378797791
51378803711
51378809693
51378814697
51378819824
51378826721
51378832459
51378837647
51378843994
51378849426
51378855713
51378862915
51378868835
51378874695
51378881287
51378886902
51378892944
51378899902
51378907104
51378913147
51378919495
51378926147
51378932739
51378941650
51378946533
51378954468
51378960388
51378967224
51378971740
51378978882
51378987243
51378993286
51378998779
51379004882
51379012329
51379019226
51379024719
51379033264
51379039184
51379044677
51379051513
51379057495
51379064270
51379071350
51379078796
51379085510
51379091003
51379096984
51379104247
51379109924
51379117858
51379126525
51379132812
51379141235
51379147582
51379155334
51379161132
51379166930
51379177001
51379183898
51379192077
51379197387
51379204589
51379209960
51379218078
51379226440
51379231811
51379239928
51379246642
51379252807
51379260558
51379266356
51379274291
51379281981
51379289184
51379294005
51379300780
51379307799
51379314452
51379321959
51379330565
51379337096
51379344786
51379350951
51379359923
51379366088
51379374022
51379383177
51379389220
51379396544
51379402526
51379410460
51379416564
51379422789
51379430846
51379437987
51379445738
51379451720
51379459593
51379465392
51379474913
51379479979
51379489195
51379494933
51379502684
51379509154
51379516844
51379525450
51379531920
51379540282
51379547484
51379553160
51379559446
51379567381
51379574827
51379580931
51379588621
51379595640
51379602964
51379609922
51379617430
51379625364
51379632322
51379639646
51379646727
51379653135
51379660154
51379667356
51379673826
51379680906
51379688536
51379694212
51379701536
51379709898
51379716490
51379725828
51379733213
51379742857
51379750303
51379756895
51379764402
51379773740
51379782346
51379788267
51379799131
51379805601
51379812925
51379821348
51379828367
51379839414
51379846494
51379852903
51379861326
51379868772
51379875608
51379883970
51379890439
51379900510
51379908262
51379915769
51379923032
51379930234
51379936826
51379945920
51379956723
51379963986
51379973996
51379982114
51379990048
51379997312
51380006528
51380015500
51380022275
51380029965
51380038998
51380047055
51380052853
51380061093
51380067258
51380077878
51380086911
51380094723
51380101681
51380109311
51380118466
51380126095
51380134152
51380141965
51380150265
51380158871
51380167843
51380177426
51380185360
51380192807
51380203122
51380209652
51380220639
51380228329
51380238583
51380245846
51380253659
51380264767
51380272335
51380279598
51380288571
51380297238
51380304012
51380313290
51380322018
51380330135
51380336910
51380345944
51380352901
51380361263
51380370235
51380377987
51380384518
51380395809
51380403622
51380411556
51380418819
51380426327
51380432857
51380440304
51380449276
51380456966
51380466305
51380473995
51380480648
51380488399
51380495479
51380503109
51380512630
51380520321
51380530086
51380537288
51380544979
51380554012
51380561519
51380569271
51380579463
51380585384
51380595333
51380602474
51380611995
51380620662
51380628902
51380633907
51380646663
51380654414
51380661983
51380669185
51380676875
51380684077
51380692927
51380702083
51380709956
51380718379
51380725703
51380732295
51380740047
51380747554
51380755610
51380762385
51380771296
51380778193
51380785640
51380792353
51380801509
51380810176
51380817500
51380827204
51380834346
51380841670
51380849177
51380857783
51380866633
51380873530
51380882441
51380892207
51380899226
51380906733
51380913020
51380921870
51380929072
51380936518
51380943232
51380950800
51380956660
51380964289
51380972956
51380980463
51380989497
51380996149
51381005122
51381013300
51381019648
51381032648
51381038874
51381047907
51381055964
51381065363
51381073237
51381080561
51381090754
51381097712
51381107355
51381114374
51381121637
51381127619
51381134149
51381139826
51381146234
51381150629
51381156366
51381161188
51381167108
51381173273
51381177790
51381185663
51381190790
51381196039
51381201471
51381206293
51381212946
51381218439
51381224542
51381230035
51381234003
51381240106
51381246088
51381251520
51381258478
51381264215
51381267877
51381274896
51381281305
51381287347
51381294244
51381300226
51381304498
51381310480
51381315973
51381322870
51381328973
51381334772
51381338922
51381343805
51381350397
51381357171
51381361993
51381367486
51381373040
51381378351
51381384576
51381391534
51381396539
51381402520
51381407525
51381412408
51381417535
51381423455
51381428888
51381434320
51381439813
51381445855
51381451593
51381456842
51381463067
51381467217
51381472772
51381477471
51381483880
51381489190
51381494134
51381500237
51381505609
51381510858
51381516168
51381521417
51381525445
51381532037
51381537347
51381542413
51381548638
51381552850
51381558343
51381563836
51381568414
51381574090
51381579705
51381584283
51381590508
51381595879
51381600884
51381606927
51381612054
51381618951
51381622552
51381628350
51381635125
51381641228
51381646782
51381651482
51381656670
51381661614
51381667168
51381672539
51381679497
51381683648
51381688469
51381692986
51381700127
51381704216
51381710869
51381716790
51381721306
51381725762
51381731011
51381737542
51381741936
51381747246
51381752251
51381756829
51381762871
51381767632
51381773064
51381779412
51381783867
51381789177
51381794121
51381798027
51381805046
51381808830
51381817009
51381822075
51381825615
51381831413
51381836968
51381843437
51381848808
51381852592
51381857658
51381861992
51381866997
51381872978
51381878166
51381883598
51381889091
51381893791
51381899406
51381904594
51381909965
51381915214
51381920219
51381925163
51381929008
51381934074
51381939934
51381944877
51381951652
51381955925
51381960685
51381965690
51381971306
51381976616
51381982658
51381988212
51381992851
51381998832
51382004692
51382010307
51382015922
51382020927
51382026420
51382030937
51382036369
51382043327
51382049064
51382053947
51382059989
51382064384
51382068839
51382075553
51382080314
51382085807
51382091056
51382096183
51382102104
51382108573
51382113700
51382119804
51382125175
51382129508
51382135062
51382140861
51382146781
51382151237
51382156547
51382162406
51382167411
51382173087
51382178702
51382183646
51382188895
51382193656
51382199393
51382204154
51382210319
51382215873
51382221854
51382226676
51382231254
51382236808
51382241935
51382247611
51382252982
51382258597
51382263785
51382269034
51382273673
51382280936
51382286857
51382291556
51382296439
51382302359
51382306998
51382312491
51382317984
51382322989
51382328727
51382334037
51382338797
51382344229
51382349723
51382354849
51382360160
51382365958
51382369803
51382374991
51382380057
51382385550
51382391043
51382397574
51382402579
51382407401
51382411612
51382418814
51382423453
51382429678
51382435477
51382441031
51382446768
51382452750
51382458243
51382463980
51382470023
51382475333
51382480948
51382486258
51382491446
51382497305
51382502188
51382506277
51382511282
51382516958
51382520621
51382528799
51382534231
51382539725
51382544546
51382549185
51382554678
51382559378
51382564627
51382570181
51382575125
51382580557
51382584890
51382589895
51382595816
51382602713
51382608023
51382613577
51382618216
51382624014
51382627798
51382633169
51382638601
51382644888
51382650015
51382655081
51382660452
51382665029
51382671499
51382677236
51382682241
51382687368
51382691274
51382696401
51382703115
51382708669
51382714529
51382719961
51382725881
51382731741
51382737234
51382743154
51382747732
51382752981
51382757864
51382763296
51382768850
51382775747
51382781789
51382786733
51382791921
51382797475
51382803030
51382808706
51382814565
51382818044
51382824453
51382828908
51382835500
51382840932
51382847097
51382852773
51382858388
51382863271
51382868764
51382874685
51382880422
51382885610
51382890187
51382896535
51382900441
51382907094
51382912160
51382917775
51382924001
51382929006
51382933522
51382940053
51382943837
51382949636
51382955007
51382960744
51382966237
51382971425
51382979054
51382984364
51382990468
51382994679
51382999928
51383005605
51383012013
51383017018
51383023122
51383028066
51383033620
51383039723
51383043752
51383049611
51383054677
51383059926
51383065724
51383070241
51383075429
51383081837
51383087147
51383093617
51383097951
51383103688
51383110219
51383115285
51383120961
51383126149
51383131215
51383136342
51383142201
51383146718
51383153248
51383157460
51383163624
51383168080
51383174427
51383178456
51383184315
51383189198
51383194264
51383199818
51383205006
51383209523
51383215199
51383220997
51383226429
51383231312
51383236378
51383242482
51383247608
51383252857
51383257557
51383263172
51383268238
51383272938
51383279164
51383282948
51383289906
51383294788
51383299915
51383305348
51383309620
51383315235
51383321705
51383326649
51383332508
51383338367
51383343616
51383348133
51383354603
51383359852
51383365833
51383370777
51383376453
51383380176
51383385792
51383392933
51383397388
51383403553
51383408802
51383413807
51383417957
51383423511
51383430408
51383435230
51383441517
51383446460
51383451038
51383456836
51383461780
51383466785
51383473621
51383479175
51383484180
51383489673
51383494068
51383500354
51383506336
51383510120
51383515186
51383521411
51383526477
51383531604
51383537647
51383543750
51383548938
51383553821
51383559070
51383564319
51383570178
51383575366
51383580799
51383585803
51383589832
51383595569
51383601428
51383607227
51383612842
51383618701
51383623828
51383628345
51383635242
51383639880
51383644824
51383650073
51383654346
51383659534
51383665271
51383671924
51383677356
51383682544
51383687488
51383692432
51383697192
51383703052
51383708179
51383713000
51383718127
51383723620
51383727588
51383732532
51383737475
51383743823
51383748950
51383754077
51383759143
51383765857
51383771350
51383778308
51383783068
51383786120
51383792590
51383798877
51383804431
51383810290
51383814563
51383819751
51383825183
51383830615
51383835864
51383840808
51383846240
51383851855
51383857470
51383862963
51383869189
51383875903
51383881274
51383884936
51383889941
51383895617
51383900683
51383905566
51383911425
51383917284
51383921130
51383927111
51383933093
51383938464
51383943835
51383948595
51383954028
51383959338
51383965014
51383971850
51383976672
51383982226
51383986803
51383992113
51383997240
51384002733
51384008837
51384014635
51384020006
51384025133
51384030260
51384035448
51384042101
51384047228
51384051561
51384057787
51384064135
51384069445
51384073473
51384078661
51384085131
51384089342
51384094042
51384099535
51384104540
51384111498
51384117296
51384121202
51384126329
51384141771
51384147325
51384152696
51384158312
51384163683
51384169176
51384174608
51384180956
51384185594
51384190965
51384195909
51384201708
51384206529
51384212206
51384217149
51384222154
51384228624
51384233019
51384239854
51384245592
51384251207
51384255968
51384261156
51384265428
51384270738
51384277147
51384282579
51384287279
51384293321
51384298143
51384303453
51384309740
51384314805
51384320421
51384325426
51384330613
51384336412
51384341478
51384347947
51384353074
51384358323
51384363511
51384369432
51384374864
51384380174
51384385972
51384391160
51384395311
51384400560
51384405870
51384411302
51384417771
51384422349
51384427415
51384432176
51384437852
51384443284
51384447434
51384453843
51384458543
51384463975
51384469956
51384475144
51384480760
51384485764
51384492173
51384496507
51384500901
51384506577
51384512864
51384518723
51384523850
51384528367
51384533555
51384538132
51384544480
51384549790
51384555833
51384560410
51384565842
51384570481
51384575791
51384580918
51384585801
51384592271
51384597764
51384603013
51384607468
51384613694
51384620286
51384625962
51384629990
51384634690
51384640488
51384647080
51384652573
51384657822
51384663620
51384669846
51384677170
51384682419
51384687790
51384693589
51384699021
51384704636
51384709824
51384715927
51384722580
51384730149
51384734848
51384740586
51384747116
51384752976
51384758225
51384762985
51384770127
51384775620
51384780380
51384786179
51384791123
51384796677
51384803269
51384808090
51384813950
51384818893
51384824204
51384829575
51384835495
51384839584
51384845261
51384849716
51384855148
51384859909
51384865463
51384870102
51384875107
51384881576
51384886764
51384892074
51384897140
51384901474
51384907760
51384911850
51384916488
51384922104
51384927109
51384933822
51384939255
51384945114
51384950607
51384956527
51384962570
51384967819
51384973495
51384978927
51384984176
51384989242
51384994369
51385000839
51385005172
51385011947
51385018844
51385022506
51385027999
51385033370
51385039962
51385045761
51385050765
51385055892
51385062606
51385068221
51385073226
51385079757
51385085311
51385090926
51385095077
51385100875
51385106674
51385111068
51385116134
51385121993
51385126815
51385132247
51385137984
51385143233
51385149642
51385153670
51385159469
51385164962
51385169112
51385174666
51385180343
51385186202
51385191329
51385195418
51385200362
51385206038
51385211837
51385217208
51385221297
51385225936
51385232223
51385236800
51385242232
51385248336
51385253341
51385258345
51385262862
51385268416
51385272139
51385278609
51385283980
51385289229
51385294051
51385299544
51385304488
51385309676
51385315169
51385320723
51385325667
51385329695
51385335066
51385340865
51385346785
51385352278
51385356429
51385361189
51385366500
51385372054
51385376998
51385383101
51385388350
51385393416
51385398360
51385403304
51385409407
51385415511
51385420821
51385426314
51385430708
51385436201
51385440779
51385447371
51385451949
51385456953
51385463179
51385468733
51385474409
51385479841
51385485701
51385491682
51385495650
51385501143
51385507368
51385511885
51385517988
51385522688
51385528425
51385534102
51385539839
51385545515
51385551985
51385557356
51385562117
51385567061
51385572065
51385578047
51385583479
51385589521
51385594709
51385601973
51385608503
51385612959
51385618940
51385622663
51385627912
51385633283
51385638349
51385643537
51385649153
51385654585
51385660749
51385666487
51385670332
51385676679
51385681379
51385687299
51385693037
51385698225
51385702741
51385708296
51385713545
51385717878
51385725263
51385730268
51385734235
51385739240
51385745771
51385749982
51385757307
51385763532
51385769880
51385774580
51385780439
51385785566
51385791791
51385796796
51385802350
51385807538
51385812665
51385818586
51385824567
51385829206
51385834882
51385840070
51385844953
51385850385
51385855939
51385860334
51385866071
51385872541
51385876996
51385881879
51385887006
51385893109
51385897199
51385904645
51385911176
51385916242
51385921430
51385926129
51385931806
51385937177
51385942670
51385949567
51385953351
51385959088
51385963483
51385969525
51385975995
51385981122
51385986432
51385992047
51385996381
51386002240
51386009198
51386015302
51386021161
51386026837
51386032635
51386038800
51386043988
51386049786
51386054669
51386060712
51386067609
51386073102
51386077313
51386083356
51386088483
51386094403
51386100690
51386105572
51386111310
51386116986
51386121930
51386127667
51386132977
51386138775
51386143719
51386149334
51386154583
51386159832
51386166119
51386171856
51386176068
51386182415
51386189312
51386195416
51386200421
51386205426
51386211163
51386215740
51386221661
51386228070
51386233258
51386240338
51386244122
51386249737
51386255963
51386260967
51386266339
51386273358
51386278301
51386284405
51386290814
51386296246
51386301006
51386306622
51386311993
51386317547
51386322430
51386327984
51386334393
51386339886
51386345745
51386351910
51386356060
51386362835
51386368572
51386373455
51386378399
51386384685
51386389629
51386394695
51386401043
51386408245
51386411785
51386418682
51386423504
51386428936
51386434551
51386438396
51386449993
51386456829
51386466228
51386473613
51386481975
51386491985
51386500774
51386509563
51386516094
51386522502
51386526531
51386532390
51386537700
51386544231
51386550640
51386555278
51386561260
51386565715
51386570842
51386576274
51386582622
51386588054
51386594402
51386598125
51386604167
51386609294
51386616130
51386621257
51386626445
51386631816
51386636516
51386641643
51386647441
51386653300
51386658427
51386664775
51386668986
51386674357
51386680888
51386687724
51386691752
51386697185
51386702739
51386708415
51386712993
51386718547
51386723796
51386728862
51386735026
51386739360
51386746501
51386752910
51386759074
51386763163
51386769084
51386774028
51386778910
51386783976
51386789347
51386795268
51386799662
51386806559
51386811137
51386815715
51386823100
51386827555
51386833048
51386838603
51386843974
51386850260
51386855998
51386861552
51386866190
51386873087
51386878825
51386883646
51386889323
51386895487
51386900980
51386905619
51386910441
51386915751
51386922221
51386926676
51386934367
51386939616
51386944376
51386949015
51386954386
51386959940
51386965433
51386970621
51386976603
51386981547
51386987223
51386992533
51386999064
51387003763
51387009012
51387014261
51387020548
51387025004
51387030802
51387035868
51387042460
51387046793
51387052347
51387057657
51387061869
51387069254
51387075663
51387080423
51387086161
51387092508
51387097940
51387102945
51387108255
51387114725
51387120951
51387126261
51387130289
51387136576
51387140421
51387148599
51387154825
51387158365
51387165323
51387170267
51387175333
51387180826
51387186319
51387190164
51387196390
51387201028
51387206644
51387211038
51387216714
51387222330
51387226480
51387231668
51387237405
51387241495
51387248331
51387253519
51387259378
51387265115
51387271341
51387277200
51387283304
51387287027
51387294168
51387298990
51387305887
51387311319
51387316263
51387321023
51387328531
51387332803
51387339639
51387346353
51387351480
51387356912
51387362466
51387368142
51387374917
51387381814
51387387185
51387391458
51387398416
51387404275
51387410195
51387415261
51387421548
51387426675
51387433694
51387437295
51387444192
51387450112
51387455544
51387462380
51387467385
51387473977
51387478616
51387485146
51387489663
51387495400
51387501260
51387505959
51387513345
51387519326
51387524453
51387529824
51387535317
51387539956
51387545510
51387551797
51387556496
51387562722
51387567788
51387573647
51387580361
51387586587
51387592019
51387597085
51387603188
51387607766
51387613869
51387619790
51387627114
51387631569
51387637490
51387642373
51387649941
51387655068
51387659523
51387667092
51387670693
51387679116
51387683815
51387689614
51387695412
51387702065
51387708168
51387714455
51387719033
51387724709
51387731240
51387735146
51387740883
51387746559
51387751686
51387757363
51387763710
51387770424
51387775246
51387781349
51387786842
51387792824
51387799538
51387803139
51387809792
51387815285
51387821083
51387826027
51387832252
51387838417
51387842689
51387849525
51387854225
51387859413
51387865761
51387871254
51387876991
51387882057
51387887977
51387893165
51387900123
51387904762
51387910499
51387916542
51387922950
51387927894
51387933265
51387938759
51387944984
51387949806
51387955726
51387960365
51387966163
51387971901
51387977333
51387982582
51387988380
51387993873
51387999794
51388004615
51388009193
51388015602
51388020301
51388027687
51388032875
51388036659
51388043067
51388048377
51388053504
51388060096
51388064735
51388070472
51388076881
51388082740
51388089271
51388093482
51388098670
51388104835
51388110694
51388115394
51388122413
51388127967
51388132789
51388138282
51388144080
51388149696
51388155067
51388161536
51388166541
51388172034
51388177405
51388182838
51388188880
51388194129
51388199439
51388206031
51388211280
51388216773
51388222388
51388227515
51388233069
51388237891
51388243689
51388249366
51388254309
51388261329
51388267798
51388272986
51388277991
51388284156
51388289466
51388295020
51388299414
51388305152
51388310523
51388316138
51388321753
51388327368
51388333106
51388338599
51388344336
51388349707
51388354529
51388360022
51388365576
51388372656
51388376990
51388383399
51388387976
51388394324
51388400488
51388405066
51388411047
51388417212
51388423376
51388428870
51388432776
51388439062
51388444434
51388449866
51388456274
51388462439
51388466528
51388473669
51388479895
51388485632
51388490027
51388496618
51388503576
51388507910
51388513769
51388518347
51388523474
51388529089
51388534826
51388540014
51388545263
51388551184
51388556860
51388562414
51388568274
51388572729
51388577551
51388583837
51388588659
51388595800
51388600927
51388606176
51388612158
51388617773
51388623327
51388629797
51388634497
51388639868
51388645605
51388651159
51388657629
51388662939
51388668615
51388675390
51388679846
51388686010
51388691869
51388697302
51388702917
51388707433
51388713537
51388719701
51388724523
51388730505
51388737829
51388742528
51388748388
51388752904
51388758764
51388765111
51388770055
51388775243
51388780309
51388786901
51388792455
51388796972
51388803258
51388809667
51388815343
51388820470
51388824193
51388829564
51388836339
51388840551
51388846227
51388853002
51388858861
51388865392
51388870275
51388876805
51388882604
51388886937
51388894506
51388901097
51388905553
51388911351
51388916966
51388921239
51388928868
51388934545
51388940038
51388945714
51388951940
51388957372
51388963475
51388967992
51388973668
51388980077
51388985814
51388991673
51388996739
51389002354
51389008031
51389013707
51389019078
51389025487
51389031895
51389036534
51389043004
51389048375
51389054784
51389060643
51389067479
51389072240
51389077489
51389083653
51389089635
51389093907
51389100499
51389105443
51389111302
51389117405
51389122532
51389128270
51389132908
51389138707
51389145359
51389150914
51389156834
51389161595
51389167332
51389173619
51389180516
51389184422
51389192051
51389197178
51389202976
51389209568
51389215550
51389221043
51389225437
51389231114
51389236119
51389242222
51389247898
51389253391
51389258457
51389263462
51389267124
51389274326
51389278843
51389284702
51389289341
51389294895
51389299595
51389303684
51389310276
51389315586
51389320042
51389325535
51389329929
51389335606
51389340244
51389344883
51389352146
51389356663
51389362583
51389368748
51389374424
51389379795
51389384434
51389390537
51389396946
51389402378
51389407078
51389412327
51389419040
51389423618
51389430698
51389435642
51389441013
51389445896
51389451267
51389457737
51389466159
51389470981
51389477512
51389482029
51389487522
51389492221
51389499607
51389504734
51389510349
51389516757
51389522739
51389527500
51389533786
51389540012
51389545505
51389551486
51389556430
51389562106
51389566684
51389574008
51389580234
51389585483
51389590671
51389596835
51389601352
51389607822
51389614291
51389618991
51389624301
51389631076
51389635532
51389642184
51389649631
51389655429
51389661410
51389666354
51389671542
51389677402
51389682956
51389689670
51389694064
51389699435
51389705050
51389711032
51389717013
51389722506
51389727694
51389733676
51389739779
51389743930
51389749789
51389755404
51389760958
51389766818
51389772189
51389778231
51389783114
51389789767
51389795077
51389800936
51389806063
51389811923
51389817172
51389822909
51389829135
51389833651
51389841281
51389845797
51389851718
51389856600
51389863986
51389868624
51389874300
51389880221
51389884982
51389891512
51389898348
51389904086
51389909518
51389915072
51389920382
51389927645
51389932101
51389938570
51389943087
51389948397
51389954806
51389959749
51389966585
51389973116
51389977938
51389983614
51389989351
51389993319
51389999849
51390005465
51390010714
51390016756
51390021456
51390026217
51390031771
51390038973
51390043856
51390049532
51390055391
51390061129
51390066133
51390070711
51390076082
51390081819
51390088777
51390094820
51390100191
51390105501
51390111605
51390118990
51390124971
51390129915
51390135347
51390140474
51390147554
51390152132
51390158174
51390163851
51390168916
51390172884
51390179048
51390184114
51390190523
51390196443
51390201509
51390208528
51390213777
51390219820
51390226778
51390230928
51390238435
51390244783
51390249238
51390254976
51390261262
51390266511
51390272127
51390278718
51390284944
51390290620
51390297395
51390302949
51390309175
51390313142
51390319490
51390324495
51390331453
51390337190
51390343293
51390350068
51390355500
51390361543
51390366120
51390372346
51390377412
51390383271
51390389497
51390394624
51390400788
51390407319
51390412812
51390417573
51390422700
51390428498
51390434113
51390440217
51390446687
51390451936
51390456147
51390463227
51390468049
51390473359
51390482697
51390487946
51390494050
51390498383
51390505524
51390510102
51390515900
51390521027
51390526704
51390532624
51390536774
51390542817
51390546601
51390553254
51390558076
51390563447
51390569062
51390574128
51390580414
51390586030
51390591828
51390596650
51390602204
51390608552
51390613373
51390619965
51390625580
51390630768
51390637116
51390643280
51390649445
51390654145
51390659699
51390664826
51390670685
51390676545
51390682038
51390686676
51390691864
51390697785
51390703278
51390708466
51390715119
51390720917
51390725373
51390732575
51390737457
51390744599
51390749420
51390755097
51390760773
51390766510
51390771149
51390776032
51390781586
51390787811
51390792389
51390798676
51390805572
51390809479
51390816620
51390821930
51390827240
51390830963
51390836700
51390842987
51390848602
51390853302
51390859039
51390863251
51390869232
51390873627
51390880401
51390885772
51390891327
51390895843
51390901275
51390904693
51390910309
51390916961
51390923309
51390927826
51390933258
51390937652
51390943939
51390949432
51390954315
51390960174
51390965850
51390970367
51390975616
51390981170
51390986480
51390993804
51390997344
51391002655
51391007476
51391013214
51391018463
51391024261
51391029754
51391034820
51391040435
51391046172
51391051727
51391058746
51391064788
51391069976
51391076141
51391084136
51391089019
51391094939
51391101592
51391105987
51391111907
51391118133
51391123321
51391129119
51391135467
51391140655
51391147857
51391153045
51391159209
51391165130
51391170928
51391177398
51391182403
51391188933
51391194060
51391200835
51391207122
51391211821
51391217803
51391223052
51391229155
51391233001
51391239043
51391245269
51391251555
51391256743
51391262908
51391268157
51391274016
51391279631
51391285124
51391289885
51391295806
51391301421
51391307646
51391314421
51391320830
51391325224
51391329558
51391336516
51391341277
51391347685
51391354216
51391359465
51391364104
51391369597
51391375639
51391383269
51391389250
51391395171
51391401762
51391407500
51391411711
51391418181
51391424101
51391429900
51391435332
51391440703
51391446318
51391451811
51391457548
51391463164
51391469572
51391474638
51391478911
51391484160
51391490935
51391495512
51391501249
51391506559
51391512297
51391517607
51391521025
51391526884
51391532255
51391538725
51391543425
51391549101
51391554655
51391560759
51391567045
51391572843
51391577482
51391583769
51391589506
51391593534
51391600492
51391605558
51391611906
51391616300
51391622160
51391628507
51391634428
51391640348
51391646330
51391653043
51391658109
51391662748
51391668058
51391674650
51391679716
51391685453
51391691068
51391696622
51391701322
51391706205
51391711149
51391715543
51391722806
51391728605
51391734586
51391740873
51391746427
51391750822
51391758817
51391763029
51391769681
51391774930
51391780301
51391785123
51391790799
51391796964
51391802884
51391808561
51391813932
51391820462
51391826139
51391832731
51391837003
51391843473
51391849271
51391853666
51391859098
51391864835
51391870023
51391876493
51391882596
51391888333
51391892911
51391899015
51391904813
51391911771
51391916409
51391922452
51391929044
51391933682
51391940823
51391946500
51391951566
51391956204
51391961820
51391966641
51391972257
51391977689
51391983853
51391987881
51391993863
51392000211
51392005032
51392010648
51392016385
51392023160
51392027676
51392033597
51392039517
51392045071
51392050931
51392057339
51392061673
51392067410
51392073392
51392079861
51392085232
51392090725
51392095547
51392101285
51392106900
51392112637
51392119168
51392124539
51392130215
51392135220
51392139248
51392145596
51392151577
51392156399
51392161526
51392167446
51392172451
51392177517
51392181423
51392187039
51392193325
51392198879
51392203457
51392208340
51392214199
51392219082
51392225308
51392230862
51392236904
51392242703
51392246853
51392252163
51392257900
51392263943
51392268826
51392275662
51392282070
51392288357
51392294216
51392298061
51392305141
51392311245
51392317470
51392323452
51392328152
51392333828
51392340786
51392345791
51392351406
51392357387
51392362636
51392367702
51392373928
51392379482
51392385830
51392391384
51392396145
51392402553
51392407863
51392414272
51392419338
51392423610
51392429775
51392435268
51392439785
51392445522
51392451259
51392457302
51392461574
51392467372
51392473110
51392479091
51392485744
51392490261
51392496791
51392501979
51392506740
51392513271
51392518276
51392524562
51392529811
51392535304
51392541164
51392547267
51392552028
51392558498
51392563258
51392568263
51392575160
51392580287
51392586147
51392592128
51392596584
51392602931
51392607997
51392613490
51392618861
51392625026
51392630641
51392634425
51392641688
51392646449
51392651820
51392658107
51392663478
51392668971
51392675502
51392679713
51392685756
51392693446
51392698329
51392704493
51392710902
51392715968
51392721217
51392727198
51392731837
51392739528
51392744654
51392750331
51392756068
51392761500
51392766322
51392771205
51392777125
51392782740
51392789210
51392793971
51392800440
51392804774
51392811732
51392816676
51392822413
51392827052
51392832179
51392838954
51392844569
51392850245
51392855250
51392861048
51392867030
51392871851
51392876429
51392884425
51392890040
51392895472
51392901270
51392906885
51392912012
51392917811
51392923060
51392928919
51392934901
51392939234
51392946009
51392952173
51392957911
51392964014
51392967554
51392974207
51392979395
51392985438
51392990870
51392997034
51393003687
51393009058
51393014978
51393020838
51393028162
51393034021
51393039881
51393044397
51393050745
51393057154
51393063623
51393070093
51393074488
51393080835
51393086573
51393092066
51393097925
51393103052
51393109033
51393114588
51393119653
51393125208
51393131494
51393137109
51393142603
51393148096
51393154199
51393159509
51393164697
51393170313
51393176843
51393181848
51393187219
51393192407
51393197778
51393203760
51393208032
51393213464
51393219934
51393225183
51393229455
51393235376
51393239953
51393246667
51393251001
51393257287
51393263635
51393268640
51393273279
51393279565
51393283655
51393290551
51393295678
51393300988
51393306299
51393313195
51393318628
51393323816
51393330041
51393334558
51393340783
51393344690
51393351586
51393357263
51393362390
51393366906
51393371911
51393377893
51393384179
51393389428
51393395776
51393398522
51393405725
51393410363
51393416162
51393421899
51393427209
51393432824
51393438134
51393443688
51393448998
51393454064
51393460229
51393465722
51393471337
51393476830
51393482751
51393487756
51393493981
51393499963
51393505883
51393511315
51393515710
51393520470
51393526086
51393533044
51393538232
51393542748
51393547936
51393553734
51393558068
51393564049
51393569726
51393575890
51393580346
51393586327
51393590722
51393595849
51393602257
51393608056
51393612755
51393618309
51393623070
51393628746
51393633995
51393639428
51393643944
51393649803
51393654747
51393659325
51393665001
51393669518
51393675499
51393680626
51393685082
51393691490
51393695824
51393701317
51393705528
51393709923
51393715538
51393720665
51393725853
51393731102
51393735619
51393740502
51393745445
51393750755
51393756310
51393762413
51393768089
51393774498
51393779015
51393783653
51393790306
51393796043
51393801537
51393807030
51393811546
51393817039
51393822777
51393827537
51393833763
51393838585
51393843773
51393848289
51393853233
51393859215
51393864158
51393869774
51393876304
51393881309
51393885765
51393890464
51393895408
51393900901
51393906334
51393911888
51393917076
51393921531
51393926475
51393931175
51393935936
51393941673
51393946556
51393952232
51393956443
51393961692
51393968101
51393973899
51393980064
51393986473
51393991355
51393995933
51394000511
51394006248
51394010948
51394018150
51394022605
51394028220
51394033225
51394038841
51394044639
51394049827
51394055991
51394061240
51394067588
51394071311
51394076926
51394081748
51394087852
51394093345
51394099082
51394104636
51394110923
51394117332
51394123862
51394128623
51394133750
51394140220
51394145347
51394151450
51394157126
51394163230
51394169639
51394174277
51394180076
51394185630
51394190635
51394197226
51394203208
51394208762
51394213889
51394220908
51394226035
51394231833
51394237571
51394242453
51394248801
51394253501
51394259177
51394264975
51394270407
51394276267
51394281333
51394287070
51394292868
51394299521
51394305197
51394311423
51394316306
51394322653
51394326621
51394333151
51394339743
51394344260
51394349875
51394355734
51394359335
51394365866
51394371237
51394376669
51394383017
51394387289
51394393271
51394398459
51394404684
51394410483
51394415427
51394421591
51394426962
51394430990
51394437216
51394442099
51394447897
51394453695
51394460531
51394465414
51394470175
51394475912
51394480917
51394486471
51394492758
51394498678
51394504171
51394509726
51394514303
51394519796
51394526083
51394531820
51394537558
51394542196
51394547995
51394552572
51394557882
51394564596
51394570883
51394575155
51394581930
51394587423
51394593221
51394598287
51394603536
51394609091
51394614828
51394620504
51394626486
51394633077
51394637350
51394642782
51394648519
51394655172
51394661153
51394666219
51394672018
51394676473
51394683492
51394688314
51394694051
51394699850
51394704855
51394710409
51394716146
51394721944
51394727560
51394733175
51394737752
51394744405
51394749593
51394755025
51394760702
51394765462
51394772176
51394777120
51394783223
51394789144
51394794393
51394798665
51394806661
51394812215
51394817708
51394822835
51394828023
51394834127
51394840291
51394844625
51394852925
51394858785
51394864461
51394871175
51394876729
51394881856
51394887227
51394892354
51394898152
51394903645
51394908101
51394914266
51394919270
51394926778
51394930989
51394936238
51394942464
51394948445
51394953511
51394959065
51394963399
51394968953
51394973592
51394980183
51394986348
51394991231
51394996541
51395002644
51395006917
51395012654
51395017781
51395022969
51395028584
51395034321
51395039448
51395045247
51395050496
51395056233
51395062703
51395067402
51395073140
51395078267
51395084675
51395090657
51395095234
51395101155
51395107686
51395112446
51395118122
51395123249
51395129231
51395136067
51395141682
51395145893
51395152485
51395158589
51395164509
51395169209
51395174702
51395180378
51395186115
51395191853
51395197407
51395201679
51395206440
51395209492
51395213459
51395218403
51395222553
51395227192
51395230671
51395234638
51395239033
51395243610
51395247822
51395251728
51395256184
51395259480
51395263508
51395266499
51395270771
51395275776
51395279560
51395283405
51395287312
51395291462
51395296101
51395299519
51395304462
51395309101
51395313373
51395316242
51395320392
51395324848
51395329365
51395332722
51395337177
51395341511
51395345722
51395349506
51395354511
51395358417
51395362751
51395367084
51395372211
51395375873
51395381489
51395386127
51395390766
51395395160
51395399494
51395403278
51395407795
51395412922
51395416767
51395421100
51395425373
51395428913
51395433918
51395438373
51395443378
51395446674
51395450397
51395454486
51395459369
51395464313
51395469379
51395473407
51395477374
51395482318
51395486286
51395491046
51395496478
51395500568
51395504962
51395509479
51395513507
51395517108
51395522235
51395526935
51395531818
51395536395
51395539569
51395545673
51395549396
51395555011
51395560565
51395563373
51395567645
51395572284
51395577411
51395582416
51395586749
51395591693
51395595782
51395600238
51395604877
51395609637
51395614215
51395617511
51395622760
51395626971
51395630267
51395635577
51395641009
51395645099
51395648944
51395653216
51395656878
51395660907
51395665484
51395668963
51395672809
51395679034
51395683062
51395688922
51395692157
51395696795
51395700213
51395704486
51395708697
51395713397
51395718707
51395723834
51395728900
51395733172
51395736712
51395738909
51395743304
51395747393
51395751300
51395754840
51395757647
51395761065
51395764361
51395768634
51395772113
51395775408
51395782855
51395787066
51395794268
51395800982
51395805804
51395812274
51395820696
51395828753
51395833758
51395841143
51395844927
51395851763
51395860186
51395866045
51395873003
51395880511
51395888201
51395896197
51395901202
51395910662
51395918535
51395925066
51395933001
51395938372
51395947893
51395953631
51395959612
51395968279
51395974444
51395982256
51395989458
51395995623
51396001543
51396008135
51396016191
51396026201
51396030291
51396037676
51396043291
51396050676
51396056414
51396062578
51396067583
51396077593
51396085649
51396089800
51396095842
51396104265
51396108354
51396116228
51396119951
51396129167
51396135332
51396142839
51396150041
51396156206
51396163408
51396167558
51396176347
51396182268
51396188310
51396193071
51396202959
51396210710
51396217058
51396222490
51396232500
51396238481
51396245134
51396253862
51396259294
51396264055
51396273576
51396279802
51396286393
51396295671
51396301408
51396308610
51396314470
51396319230
51396329423
51396333635
51396341874
51396348954
51396356095
51396359941
51396368669
51396374589
51396380204
51396385514
51396393571
51396400102
51396410050
51396414933
51396421891
51396428056
51396435380
51396441422
51396445939
51396453141
51396460038
51396467850
51396474503
51396481950
51396487687
51396493912
51396500748
51396506364
51396511796
51396518326
51396524491
51396533951
51396538102
51396546036
51396553116
51396558365
51396564103
51396570755
51396577347
51396586991
51396595536
51396602921
51396608292
51396616227
51396620743
51396627396
51396631607
51396639420
51396645951
51396653824
51396661759
51396663773
51396674637
51396678360
51396687943
51396693619
51396699722
51396706680
51396713211
51396719071
51396724991
51396735916
51396742203
51396748856
51396756363
51396762466
51396770279
51396775833
51396786819
51396792984
51396798599
51396808182
51396815933
51396822525
51396829971
51396835220
51396843887
51396849930
51396857071
51396865371
51396871658
51396878738
51396884048
51396891678
51396896499
51396903152
51396912674
51396923355
51396929031
51396934829
51396940444
51396947525
51396954177
51396959732
51396965530
51396971694
51396980483
51396986892
51396993545
51397000259
51397006240
51397011978
51397017593
51397023269
51397031020
51397035781
51397046706
51397051345
51397060500
51397066299
51397071059
51397078323
51397085220
51397090224
51397097488
51397105483
51397112929
51397118667
51397126662
51397133803
51397140456
51397147048
51397154555
51397164443
51397173598
51397178481
51397185805
51397192641
51397201552
51397207473
51397213515
51397220046
51397228957
51397236342
51397244399
51397252577
51397257704
51397266005
51397271620
51397278212
51397284194
51397291457
51397301405
51397307204
51397314406
51397320509
51397326796
51397332961
51397342238
51397346999
51397354750
51397362379
51397370863
51397375014
51397384291
51397390639
51397396925
51397404555
51397406691
51397416823
51397421766
51397431227
51397438063
51397443007
51397452162
51397457045
51397466322
51397471388
51397479689
51397488478
51397496229
51397503798
51397511122
51397517042
51397522169
51397530592
51397536756
51397541517
51397553541
51397559584
51397567518
51397574293
51397582228
51397589796
51397597059
51397603040
51397612318
51397620557
51397627149
51397634473
51397640821
51397648512
51397656263
51397661268
51397670972
51397680128
51397686475
51397693311
51397700880
51397708326
51397715406
51397722486
51397729139
51397736829
51397744336
51397749280
51397756910
51397762708
51397767652
51397774976
51397783765
51397791639
51397797315
51397803418
51397806714
51397815931
51397821424
51397827222
51397834546
51397843396
51397848584
51397856519
51397860730
51397870435
51397874524
51397883862
51397888989
51397895764
51397905957
51397913892
51397920422
51397925427
51397934583
51397938550
51397946057
51397952405
51397961865
51397969128
51397976514
51397982190
51397990308
51397995679
51398003064
51398007275
51398019238
51398027661
51398035168
51398041211
51398047864
51398054211
51398059704
51398066723
51398074536
51398083447
51398090100
51398097546
51398102124
51398110119
51398119091
51398124768
51398134594
51398143627
51398150646
51398157116
51398164257
51398172009
51398179882
51398185558
51398191784
51398196667
51398206860
51398214611
51398221386
51398229137
51398237377
51398243420
51398249950
51398257946
51398263256
51398272228
51398278698
51398283764
51398294445
51398300915
51398306591
51398313183
51398319774
51398326122
51398334057
51398342846
51398352184
51398357799
51398363109
51398372875
51398379528
51398385143
51398393749
51398399974
51398407421
51398413524
51398421764
51398427379
51398436168
51398442699
51398447826
51398455577
51398463634
51398469615
51398476818
51398483531
51398492381
51398500804
51398506481
51398513500
51398521861
51398528514
51398533336
51398541515
51398546397
51398556956
51398564098
51398571300
51398579051
51398584483
51398592662
51398599620
51398605113
51398612681
51398619212
51398628184
51398632640
51398640330
51398648021
51398655650
51398661754
51398668284
51398675364
51398682689
51398691539
51398699717
51398706126
51398712168
51398718760
51398727000
51398732188
51398740489
51398746775
51398754161
51398762461
51398768870
51398773081
51398783579
51398790049
51398795908
51398803965
51398811533
51398817698
51398823008
51398832407
51398840647
51398846201
51398855051
51398861582
51398866770
51398874644
51398882883
51398888132
51398896311
51398901926
51398910654
51398919138
51398924753
51398932749
51398938730
51398945444
51398951670
51398959848
51398972055
51398978525
51398986277
51398991465
51398999460
51399005991
51399012217
51399021372
51399026316
51399034067
51399040659
51399049692
51399054087
51399063730
51399070444
51399078195
51399083444
51399091806
51399098398
51399105234
51399113901
51399119882
51399128427
51399134531
51399141122
51399147287
51399154794
51399161203
51399169687
51399178354
51399183542
51399193918
51399200448
51399206247
51399214364
51399220529
51399227426
51399235238
51399240793
51399247995
51399256906
51399263803
51399270578
51399278634
51399287423
51399296151
51399302621
51399311593
51399316354
51399326974
51399334542
51399338815
51399347116
51399355233
51399361398
51399368295
51399374215
51399382394
51399387338
51399397286
51399404000
51399411324
51399419930
51399428109
51399436166
51399442818
51399451852
51399456612
51399464669
51399472787
51399479317
51399487557
51399494820
51399500374
51399507943
51399514351
51399522652
51399530831
51399539193
51399546273
51399551644
51399559700
51399565194
51399573494
51399580391
51399587105
51399592537
51399603279
51399610482
51399617195
51399624031
51399631722
51399638497
51399644844
51399651680
51399659065
51399666634
51399676277
51399682076
51399690071
51399696175
51399702767
51399710518
51399717903
51399723518
51399729073
51399739998
51399747261
51399755928
51399763679
51399769844
51399776741
51399782722
51399790352
51399798225
51399804695
51399812691
51399821724
51399828926
51399836433
51399841743
51399849006
51399854316
51399864021
51399868049
51399876899
51399884224
51399890937
51399897407
51399907356
51399914436
51399922981
51399931159
51399937507
51399946907
51399951972
51399959907
51399968269
51399976203
51399981819
51399985969
51399996894
51400003303
51400010444
51400018073
51400025031
51400031867
51400038276
51400045478
51400052985
51400058356
51400066657
51400073371
51400081672
51400088813
51400097663
51400106208
51400112494
51400118720
51400125495
51400131110
51400140021
51400144416
51400154548
51400161689
51400168525
51400174933
51400179145
51400187201
51400196784
51400204596
51400212409
51400219428
51400225714
51400232733
51400238715
51400248969
51400254462
51400262702
51400267523
51400274237
51400281928
51400290106
51400295599
51400305304
51400314276
51400321417
51400326788
51400334479
51400341132
51400347601
51400354376
51400361029
51400368719
51400375616
51400383978
51400388983
51400397833
51400404791
51400413275
51400418768
51400427435
51400433539
51400440863
51400447821
51400456244
51400463202
51400471991
51400476263
51400483404
51400491217
51400498907
51400505072
51400514044
51400520697
51400528631
51400534002
51400542059
51400546514
51400556280
51400562750
51400570196
51400575567
51400586492
51400592962
51400599920
51400606146
51400613958
51400620489
51400626470
51400633123
51400640081
51400647649
51400654241
51400662542
51400667181
51400676702
51400682683
51400689214
51400694097
51400701482
51400706853
51400713994
51400723699
51400731878
51400737615
51400745611
51400751714
51400757634
51400763494
51400769231
51400776860
51400784490
51400792607
51400796880
51400805913
51400811772
51400816594
51400824407
51400828252
51400837529
51400844304
51400851079
51400860845
51400865544
51400873052
51400876958
51400885991
51400891911
51400898015
51400903081
51400913335
51400921269
51400927800
51400934026
51400944218
51400951115
51400958501
51400965153
51400973454
51400978825
51400987309
51400994511
51401001652
51401009831
51401017460
51401028630
51401035100
51401043766
51401051213
51401057805
51401065373
51401071537
51401081913
51401085881
51401094548
51401099125
51401110417
51401117619
51401125553
51401133183
51401139347
51401147343
51401151676
51401161686
51401168461
51401175541
51401181034
51401191471
51401198063
51401202519
51401210209
51401218021
51401224979
51401233219
51401237675
51401245243
51401252811
51401262882
51401268803
51401277347
51401283390
51401289982
51401295658
51401303837
51401308231
51401315616
51401323307
51401334232
51401340336
51401348575
51401354801
51401361515
51401367374
51401375309
51401379764
51401390018
51401397831
51401403629
51401412479
51401419071
51401425418
51401432498
51401440494
51401448368
51401453311
51401461673
51401466739
51401477969
51401485538
51401491397
51401499637
51401504092
51401513431
51401520145
51401527042
51401532657
51401541812
51401550784
51401557742
51401564883
51401570193
51401577396
51401585635
51401592410
51401599551
51401604922
51401614566
51401623294
51401627871
51401636844
51401643313
51401648196
51401656680
51401661013
51401669314
51401677310
51401686648
51401694766
51401701419
51401708010
51401714480
51401720034
51401728640
51401732974
51401743533
51401750491
51401754824
51401763918
51401771426
51401779971
51401784853
51401793154
51401800784
51401806765
51401815005
51401819949
51401830569
51401838015
51401844485
51401852358
51401857851
51401862978
51401872988
51401879153
51401884585
51401892214
51401900332
51401907778
51401915224
51401921267
51401929567
51401935610
51401942385
51401949892
51401955141
51401963442
51401972292
51401976809
51401984682
51401992250
51401998842
51402004885
51402011537
51402020937
51402028017
51402035524
51402043581
51402045656
51402056642
51402065676
51402071230
51402079103
51402086427
51402092775
51402099733
51402106691
51402114992
51402120668
51402129518
51402133852
51402141969
51402149721
51402154420
51402162965
51402167970
51402177247
51402185670
51402191591
51402200136
51402207216
51402212526
51402220338
51402226686
51402235048
51402239930
51402250612
51402258180
51402264833
51402273133
51402279786
51402288819
51402297547
51402304139
51402311463
51402320252
51402325440
51402332337
51402340516
51402344911
51402355165
51402361817
51402368958
51402374268
51402384217
51402390748
51402397462
51402405335
51402414124
51402422730
51402430726
51402437501
51402446656
51402451600
51402460572
51402469239
51402476380
51402481873
51402490601
51402496827
51402503602
51402509827
51402518372
51402524903
51402536072
51402543824
51402550232
51402557862
51402564759
51402570801
51402577454
51402585083
51402590332
51402600159
51402606995
51402615174
51402620178
51402627747
51402633789
51402642212
51402646607
51402653809
51402664246
51402672241
51402680237
51402685913
51402694702
51402701355
51402708862
51402714355
51402722595
51402729248
51402736145
51402743896
51402752197
51402757202
51402765686
51402772766
51402778198
51402785583
51402792602
51402799316
51402806457
51402817199
51402824157
51402829345
51402836975
51402844360
51402850830
51402857360
51402865600
51402871460
51402880432
51402887573
51402891845
51402901428
51402908996
51402916076
51402923278
51402929748
51402936096
51402946472
51402956359
51402962768
51402970702
51402977050
51402983825
51402991943
51402997863
51403005492
51403011901
51403019347
51403026855
51403035461
51403041564
51403047912
51403054931
51403062377
51403067992
51403076171
51403082641
51403090453
51403098449
51403106749
51403112914
51403121154
51403125548
51403135680
51403142211
51403149718
51403155455
51403160460
51403172728
51403180602
51403187255
51403195128
51403201415
51403209777
51403216368
51403223265
51403230834
51403240660
51403247252
51403251952
51403262511
51403268919
51403273436
51403282164
51403286498
51403297057
51403304625
51403314207
51403320128
51403327879
51403334532
51403341002
51403348936
51403354857
51403363035
51403369261
51403376829
51403385374
51403391478
51403399962
51403406309
51403413450
51403419554
51403427244
51403434874
51403441160
51403448729
51403456907
51403465635
51403471800
51403478147
51403485289
51403494200
51403501036
51403506590
51403515257
51403520323
51403530271
51403537779
51403543333
51403551512
51403558836
51403565489
51403572324
51403580198
51403587705
51403594724
51403603819
51403608335
51403615232
51403622922
51403630003
51403638242
51403642698
51403651670
51403659605
51403667905
51403675901
51403682737
51403689084
51403696592
51403704404
51403711973
51403717832
51403724363
51403731260
51403740110
51403748349
51403750486
51403761350
51403768247
51403774289
51403782102
51403789609
51403796079
51403803586
51403811338
51403819333
51403825681
51403834348
51403841428
51403848203
51403855222
51403862973
51403868527
51403876767
51403881894
51403892514
51403899289
51403906979
51403909116
51403919797
51403926572
51403933591
51403938962
51403945248
51403956845
51403961239
51403969906
51403976071
51403977963
51403987362
51403993649
51404001401
51404007321
51404012204
51404022213
51404027340
51404032956
51404039181
51404045163
51404051876
51404055905
51404065487
51404070065
51404081356
51404089596
51404096554
51404103695
51404110348
51404115841
51404121884
51404127987
51404134579
51404137387
51404147946
51404155209
51404165096
51404171505
51404178951
51404186459
51404193295
51404201168
51404208492
51404216976
51404224239
51404230648
51404236935
51404242489
51404250301
51404256466
51404264706
51404275875
51404282589
51404289547
51404295162
51404302852
51404310787
51404317257
51404324215
51404331417
51404339412
51404347530
51404354183
51404362728
51404369075
51404375911
51404380611
51404389034
51404393734
51404403926
51404411312
51404418514
51404426631
51404433162
51404441646
51404449214
51404454158
51404461604
51404467464
51404475826
51404483455
51404491695
51404496944
51404504329
51404512386
51404518062
51404526118
51404532954
51404539485
51404547237
51404554072
51404562923
51404567561
51404577022
51404583491
51404590449
51404595942
51404603084
51404609126
51404619136
51404625789
51404634517
51404639766
51404645930
51404652827
51404660090
51404667903
51404675776
51404682124
51404686885
51404698359
51404705012
51404710932
51404717829
51404724421
51404730036
51404735957
51404742365
51404749445
51404757075
51404762690
51404769709
51404778925
51404784663
51404789973
51404797785
51404801569
51404807185
51404814448
51404824885
51404832819
51404834956
51404845454
51404851679
51404857355
51404864191
51404871088
51404876887
51404884333
51404890742
51404898981
51404905146
51404912958
51404919367
51404924982
51404930903
51404935663
51404943659
51404948114
51404958246
51404964838
51404971857
51404978998
51404985163
51404990656
51404996881
51405001947
51405008966
51405019525
51405028436
51405032709
51405039118
51405047846
51405052912
51405060053
51405066950
51405072626
51405078973
51405085199
51405094965
51405099237
51405106683
51405114008
51405119867
51405125665
51405131036
51405138727
51405143487
51405154169
51405160516
51405169000
51405176019
51405183038
51405190301
51405199396
51405204645
51405212884
51405218927
51405225580
51405234552
51405241327
51405248285
51405255426
51405263055
51405269220
51405276178
51405283502
51405291009
51405296807
51405304254
51405308221
51405316644
51405322503
51405329278
51405333978
51405341485
51405349175
51405355645
51405362359
51405370171
51405378289
51405385491
51405390740
51405397393
51405404900
51405412347
51405418877
51405425713
51405431695
51405439324
51405446953
51405451775
51405458550
51405465508
51405473015
51405479851
51405487114
51405494072
51405499321
51405504693
51405510064
51405516655
51405524468
51405531670
51405536980
51405544976
51405551323
51405556572
51405564934
51405570366
51405577019
51405586541
51405592583
51405599358
51405604607
51405611870
51405616387
51405622795
51405628838
51405635002
51405641838
51405651360
51405659355
51405665337
51405672051
51405679924
51405684502
51405691032
51405696159
51405702446
51405712212
51405718864
51405725883
51405732170
51405737236
51405744316
51405750175
51405755546
51405764030
51405771049
51405778190
51405784294
51405790581
51405796684
51405804313
51405806205
51405816215
51405822746
51405829826
51405836906
51405843925
51405850151
51405856865
51405863517
51405868339
51405876152
51405880912
51405892204
51405898429
51405904350
51405913444
51405918998
51405925224
51405930595
51405937614
51405943778
51405951225
51405956107
51405964042
51405973380
51405978629
51405984977
51405992301
51405999442
51406007621
51406011893
51406021903
51406029594
51406036124
51406040519
51406050407
51406057853
51406063529
51406073905
51406078849
51406085685
51406089713
51406099173
51406102836
51406113150
51406119620
51406126090
51406135184
51406140860
51406147330
51406151786
51406159171
51406163260
51406169486
51406176444
51406183463
51406192740
51406197684
51406206595
51406212088
51406218314
51406222769
51406230094
51406235404
51406249869
51406269705
51406277823
51406285391
51406292044
51406298514
51406305289
51406313895
51406321951
51406329092
51406335318
51406341849
51406348562
51406352041
51406360159
51406366568
51406374502
51406379996
51406388540
51406393789
51406400869
51406407217
51406415518
51406423330
51406433340
51406439077
51406446829
51406453115
51406458975
51406465506
51406470877
51406478140
51406488027
51406494924
51406502127
51406510122
51406518301
51406525137
51406531912
51406537649
51406542898
51406554739
51406561636
51406568594
51406575674
51406581411
51406589346
51406593618
51406603628
51406608450
51406617544
51406624868
51406632680
51406640493
51406647207
51406653310
51406659963
51406666189
51406673696
51406682546
51406691091
51406696401
51406705312
51406711965
51406717031
51406725271
51406729909
51406739736
51406746938
51406753652
51406762014
51406768911
51406775258
51406782338
51406787831
51406795461
51406803700
51406810292
51406817555
51406824391
51406832326
51406839162
51406847341
51406854176
51406859548
51406867177
51406875783
51406881398
51406886159
51406895680
51406905507
51406912709
51406919240
51406928883
51406934926
51406941518
51406949147
51406954945
51406963368
51406970143
51406977406
51406983204
51406991139
51406999318
51407005726
51407012135
51407019093
51407027455
51407035572
51407044545
51407049549
51407060658
51407067250
51407073902
51407081654
51407087330
51407093861
51407101734
51407108875
51407117665
51407123646
51407132069
51407136952
51407144032
51407151905
51407160328
51407166676
51407175037
51407183460
51407191944
51407199146
51407207142
51407211536
51407220997
51407228077
51407232899
51407241505
51407247486
51407255054
51407264942
51407270740
51407278797
51407285938
51407292164
51407301075
51407306690
51407314136
51407324207
51407330982
51407337940
51407343555
51407351307
51407359607
51407368152
51407372669
51407380603
51407388660
51407397693
51407406177
51407413074
51407419727
51407426380
51407431384
51407440296
51407444629
51407452197
51407462878
51407469165
51407477527
51407484302
51407491077
51407497729
51407504932
51407512744
51407519580
51407525989
51407533313
51407540454
51407548450
51407554919
51407563403
51407571277
51407576404
51407585986
51407591357
51407599719
51407608081
51407614184
51407621264
51407628894
51407636889
51407644397
51407650683
51407657519
51407664050
51407671862
51407679858
51407688220
51407693041
51407700610
51407708178
51407716174
51407722949
51407729540
51407736193
51407744372
51407751452
51407760729
51407765856
51407773791
51407781420
51407786608
51407795519
51407803637
51407809069
51407817126
51407826769
51407834948
51407841112
51407847582
51407854662
51407860216
51407868639
51407876208
51407882372
51407889879
51407899340
51407908190
51407914415
51407920763
51407927904
51407935900
51407941454
51407950365
51407956652
51407964098
51407971849
51407980638
51407986681
51407995165
51408001940
51408007616
51408015123
51408022814
51408028795
51408033678
51408048082
51408054979
51408062853
51408071397
51408079820
51408088670
51408095445
51408102098
51408109422
51408116869
51408125413
51408132799
51408140733
51408145006
51408151903
51408159654
51408166185
51408174547
51408179918
51408187303
51408197923
51408203477
51408212144
51408216417
51408224900
51408231919
51408239976
51408245469
51408253709
51408259141
51408269822
51408276048
51408283921
51408290818
51408296861
51408303453
51408310105
51408317491
51408324693
51408333543
51408338975
51408345628
51408353318
51408360337
51408368394
51408372849
51408379624
51408387193
51408395188
51408403733
51408408799
51408417771
51408424485
51408431992
51408439438
51408445603
51408451890
51408459031
51408467148
51408475876
51408478440
51408490098
51408494370
51408501328
51408509385
51408516465
51408525315
51408530136
51408537094
51408547715
51408552292
51408561142
51408568589
51408574021
51408581772
51408590317
51408595871
51408603562
51408608566
51408618881
51408624497
51408632248
51408639206
51408645371
51408652329
51408659653
51408667282
51408675034
51408684067
51408692551
51408697983
51408705734
51408710861
51408719467
51408726547
51408731674
51408739609
51408749924
51408756027
51408764084
51408770553
51408777450
51408784836
51408790390
51408798935
51408804977
51408812423
51408820785
51408829574
51408837326
51408844589
51408851486
51408858139
51408866012
51408871261
51408879806
51408889511
51408898666
51408905624
51408911361
51408919174
51408926071
51408932235
51408938827
51408946700
51408954330
51408962936
51408969588
51408976424
51408983138
51408990829
51408996810
51409005233
51409012069
51409017257
51409024947
51409034652
51409040389
51409044723
51409055892
51409062362
51409069503
51409075118
51409081710
51409090377
51409097579
51409102157
51409111556
51409116500
51409127486
51409134139
51409141158
51409146651
51409155623
51409162215
51409169173
51409176009
51409184493
51409191207
51409200057
51409206954
51409213179
51409219954
51409226607
51409234358
51409240889
51409249739
51409256758
51409263838
51409269514
51409276778
51409282942
51409291975
51409298262
51409303816
51409312300
51409320845
51409327620
51409333601
51409341414
51409348677
51409355147
51409361799
51409369063
51409377119
51409385054
51409391523
51409398115
51409403853
51409412092
51409418989
51409427534
51409432539
51409440901
51409448896
51409456770
51409463301
51409470442
51409476789
51409484480
51409491438
51409500105
51409504621
51409513777
51409521040
51409526655
51409534956
51409542036
51409547712
51409555402
51409564130
51409569807
51409576582
51409585371
51409592573
51409601728
51409607831
51409615644
51409622297
51409629316
51409636823
51409644452
51409651533
51409657636
51409664960
51409670820
51409679914
51409687360
51409695905
51409702863
51409708417
51409716230
51409723798
51409730085
51409737226
51409743879
51409751508
51409758832
51409767377
51409774701
51409779950
51409788129
51409794171
51409800458
51409808454
51409818524
51409825665
51409830304
51409839154
51409846356
51409851544
51409859906
51409867841
51409873395
51409881573
51409886639
51409895367
51409904645
51409913678
51409919110
51409928631
51409937726
51409943890
51409951947
51409961651
51409969281
51409973675
51409981915
51409986615
51409993939
51410001629
51410008587
51410017132
51410022259
51410029827
51410038494
51410045208
51410053082
51410057537
51410067181
51410073956
51410080914
51410088482
51410091046
51410102886
51410107769
51410116497
