51410734171
51410739603
51410744669
51410750895
51410757121
51410762553
51410767680
51410773051
51410779398
51410785563
51410790812
51410796549
51410802897
51410809794
51410817057
51410823038
51410828348
51410833658
51410839884
51410845926
51410852274
51410859354
51410865641
51410871622
51410879007
51410886698
51410893656
51410899942
51410907084
51410913980
51410919474
51410925028
51410931498
51410939554
51410945658
51410953409
51410960550
51410965616
51410973734
51410979898
51410987955
51410994364
51411000833
51411007730
51411014017
51411021036
51411027384
51411034158
51411042886
51411049600
51411056924
51411064737
51411071024
51411079874
51411086771
51411093545
51411099527
51411106973
51411112955
51411120218
51411128274
51411135782
51411145547
51411152383
51411160074
51411166971
51411176309
51411182473
51411190042
51411197061
51411204995
51411209817
51411216775
51411223489
51411232461
51411239053
51411246194
51411252847
51411257852
51411266519
51411273782
51411280496
51411287637
51411295266
51411303140
51411307961
51411316079
51411322183
51411330605
51411336892
51411344094
51411351052
51411357766
51411365517
51411373147
51411380166
51411386819
51411394631
51411401162
51411407143
51411415017
51411423012
51411430947
51411436135
51411443276
51411451272
51411456704
51411465371
51411472085
51411479958
51411485756
51411493386
51411501259
51411506203
51411514626
51411522194
51411529763
51411536232
51411543312
51411549233
51411556191
51411564125
51411570656
51411580727
51411586647
51411595009
51411601113
51411608986
51411615273
51411623329
51411630959
51411638466
51411646828
51411652687
51411661659
51411669106
51411676918
51411685036
51411692726
51411701881
51411708595
51411716774
51411724342
51411733803
51411740639
51411749000
51411755165
51411763649
51411772011
51411780067
51411787330
51411793129
51411804359
51411812599
51411819313
51411827674
51411833961
51411840309
51411849342
51411856910
51411866798
51411875099
51411882423
51411891639
51411899452
51411908912
51411916541
51411926795
51411933570
51411941016
51411950294
51411960242
51411969031
51411976905
51411984107
51411993812
51412000892
51412009437
51412017615
51412027137
51412034705
51412042457
51412052710
51412060706
51412067298
51412078345
51412084632
51412095069
51412103553
51412111609
51412120520
51412128272
51412137610
51412144690
51412152869
51412162879
51412169837
51412181433
51412189795
51412198950
51412206641
51412215430
51412223547
51412233008
51412240942
51412248938
51412258154
51412265478
51412272131
51412284705
51412289038
51412300696
51412308691
51412318274
51412326208
51412333227
51412341101
51412350134
51412359350
51412368689
51412376379
51412383398
51412391150
51412401098
51412410742
51412418982
51412428320
51412433935
51412442114
51412452490
51412458532
51412469518
51412477575
51412487524
51412494177
51412502416
51412512304
51412520300
51412528722
51412537817
51412545385
51412555029
51412561742
51412571630
51412579748
51412588110
51412597143
51412603979
51412612279
51412618749
51412627721
51412636327
51412643224
51412648412
51412657873
51412665807
51412673253
51412681127
51412687474
51412696202
51412702428
51412710912
51412717687
51412724340
51412731542
51412739354
51412747899
51412755284
51412764623
51412772313
51412781102
51412788060
51412797276
51412803868
51412812291
51412817601
51412826207
51412835912
51412844151
51412850743
51412856786
51412866124
51412875340
51412881322
51412891942
51412899754
51412905919
51412916539
51412923741
51412932164
51412941441
51412947300
51412956212
51412964879
51412972447
51412980504
51412990879
51412998204
51413007115
51413013768
51413022374
51413030125
51413037510
51413048374
51413057102
51413064121
51413072117
51413078587
51413085728
51413092442
51413099888
51413104649
51413110264
51413116367
51413122532
51413128758
51413134312
51413140842
51413145115
51413150852
51413157444
51413162876
51413169041
51413175327
51413179783
51413187046
51413191013
51413198032
51413203770
51413209995
51413215061
51413221165
51413226597
51413231296
51413238559
51413243076
51413250217
51413255100
51413260715
51413266208
51413273349
51413278476
51413284214
51413290683
51413295993
51413301731
51413308017
51413312900
51413319065
51413325229
51413330417
51413335788
51413341342
51413346714
51413352573
51413356784
51413363986
51413369480
51413375339
51413380832
51413386203
51413391269
51413396884
51413402500
51413408664
51413413852
51413419528
51413424533
51413430637
51413436496
51413441623
51413447421
51413452548
51413459628
51413464450
51413469699
51413475925
51413479465
51413487216
51413491733
51413497348
51413503146
51413508456
51413513827
51413519504
51413526401
51413530612
51413536899
51413541415
51413547152
51413552218
51413558627
51413564975
51413568637
51413574496
51413579196
51413585666
51413591342
51413597079
51413602084
51413608004
51413613620
51413619784
51413624728
51413630343
51413635104
51413640719
51413647555
51413651217
51413657382
51413663241
51413668917
51413675021
51413681002
51413686923
51413691866
51413697543
51413702548
51413707980
51413714083
51413719088
51413725192
51413729708
51413734957
51413741427
51413747103
51413752413
51413757906
51413763216
51413767672
51413772677
51413778536
51413783602
51413789095
51413796053
51413801424
51413806551
51413812350
51413817965
51413824007
51413828463
51413834322
51413840243
51413844637
51413850741
51413857638
51413862825
51413868807
51413874361
51413879976
51413886019
51413891329
51413897554
51413903170
51413908297
51413913912
51413918673
51413925203
51413931490
51413937288
51413941561
51413948152
51413952608
51413957979
51413963533
51413967928
51413973177
51413980074
51413984346
51413989961
51413996309
51414002535
51414008272
51414013582
51414018221
51414023836
51414028474
51414035127
51414040743
51414045259
51414050935
51414056123
51414061250
51414067781
51414071260
51414078889
51414083162
51414088716
51414094453
51414099702
51414104219
51414109224
51414115999
51414120698
51414127839
51414132356
51414138337
51414143464
51414149629
51414155000
51414159395
51414165498
51414170625
51414176057
51414181733
51414186067
51414192842
51414197969
51414202546
51414207734
51414213899
51414218232
51414224519
51414230805
51414234407
51414241487
51414245820
51414251679
51414258149
51414263581
51414269197
51414273408
51414279084
51414284089
51414289399
51414296418
51414301667
51414306855
51414311616
51414317170
51414322663
51414328706
51414334809
51414340363
51414345551
51414351533
51414357697
51414363190
51414368806
51414372651
51414380036
51414384431
51414390290
51414396332
51414401459
51414407929
51414411896
51414418000
51414423615
51414428315
51414434418
51414439301
51414445710
51414451264
51414457123
51414462250
51414466767
51414472626
51414478669
51414485138
51414490021
51414495087
51414500397
51414506745
51414510895
51414517914
51414522370
51414527497
51414532929
51414536408
51414543061
51414547577
51414554474
51414558136
51414564362
51414570160
51414574799
51414580231
51414585419
51414590668
51414596283
51414601959
51414607514
51414613922
51414619049
51414624603
51414629730
51414635529
51414641083
51414646149
51414651825
51414656403
51414661835
51414667145
51414672882
51414678436
51414684112
51414689972
51414696503
51414700897
51414706756
51414713104
51414718536
51414724090
51414729095
51414734771
51414740448
51414745819
51414751007
51414755462
51414762176
51414767791
51414771392
51414778961
51414783111
51414789093
51414794708
51414798309
51414806610
51414812652
51414817840
51414823211
51414828460
51414833892
51414836212
51414844512
51414850067
51414855255
51414860809
51414866424
51414872466
51414878143
51414885467
51414890472
51414895171
51414902374
51414905853
51414911529
51414918731
51414924407
51414929290
51414934539
51414939727
51414944732
51414949432
51414955962
51414960357
51414966094
51414971038
51414975982
51414981109
51414986663
51414992217
51414997161
51415002715
51415008025
51415014800
51415019744
51415024138
51415030852
51415036590
51415041655
51415046111
51415051604
51415057769
51415063262
51415069609
51415074126
51415079924
51415085967
51415090667
51415096282
51415101958
51415107085
51415113250
51415119170
51415123625
51415129546
51415134612
51415139922
51415146147
51415151702
51415157378
51415162688
51415168852
51415174040
51415179778
51415184111
51415189360
51415195769
51415200896
51415205046
51415210661
51415215605
51415220427
51415225493
51415231352
51415235258
51415240752
51415246367
51415251921
51415257780
51415263090
51415268584
51415273344
51415278654
51415284697
51415289885
51415296660
51415301298
51415306975
51415312224
51415317961
51415324125
51415329863
51415334257
51415340117
51415345366
51415349699
51415355314
51415362455
51415368010
51415373869
51415379118
51415384489
51415389128
51415394865
51415400846
51415405424
51415411222
51415416777
51415421965
51415427641
51415433500
51415439787
51415444914
51415449674
51415455656
51415461271
51415466459
51415472318
51415476652
51415482511
51415487394
51415492521
51415497831
51415503019
51415509489
51415515043
51415519804
51415525663
51415530363
51415534879
51415540678
51415545072
51415550016
51415555875
51415561979
51415567167
51415571867
51415577116
51415582914
51415588224
51415594510
51415599088
51415604398
51415609769
51415614896
51415621122
51415625944
51415631193
51415637052
51415641935
51415646329
51415651517
51415657499
51415663663
51415669095
51415674833
51415678251
51415684537
51415691556
51415696988
51415701993
51415707181
51415712491
51415716703
51415722135
51415729276
51415734586
51415739835
51415745023
51415750882
51415755399
51415760770
51415767179
51415772733
51415778104
51415783780
51415789578
51415795133
51415801846
51415806363
51415811917
51415817777
51415821866
51415828519
51415833096
51415838895
51415844144
51415849393
51415854703
51415858670
51415864957
51415870572
51415876736
51415881802
51415886868
51415892117
51415897183
51415902554
51415906705
51415912259
51415918789
51415923733
51415929532
51415933438
51415939236
51415943875
51415949185
51415954190
51415959500
51415964932
51415969754
51415975308
51415980374
51415985501
51415991177
51415995938
51416001919
51416007229
51416012905
51416018704
51416023403
51416029629
51416034756
51416039944
51416045864
51416049771
51416057095
51416061550
51416068142
51416073330
51416078335
51416083401
51416089016
51416095425
51416100369
51416106228
51416111904
51416117031
51416122768
51416127163
51416133389
51416139065
51416144558
51416150967
51416155544
51416159756
51416166042
51416171718
51416177578
51416181789
51416188320
51416194057
51416198635
51416202968
51416210964
51416214443
51416221035
51416226040
51416231411
51416235988
51416239773
51416248562
51416253139
51416258266
51416263881
51416269069
51416274685
51416279995
51416285549
51416289821
51416295375
51416301540
51416306240
51416310695
51416316371
51416321926
51416326869
51416332241
51416338283
51416343471
51416349330
51416353542
51416359279
51416363796
51416368923
51416375209
51416381618
51416385707
51416391872
51416396388
51416403346
51416408107
51416414333
51416418788
51416424098
51416429469
51416434230
51416441127
51416445155
51416452113
51416456569
51416462184
51416467738
51416474208
51416479518
51416484279
51416489833
51416494960
51416500270
51416505092
51416510585
51416516200
51416521388
51416526942
51416533351
51416537806
51416543727
51416548854
51416553859
51416558558
51416564051
51416568690
51416575221
51416580287
51416587245
51416591639
51416596888
51416602442
51416607630
51416614100
51416619898
51416625636
51416630885
51416635279
51416640406
51416647669
51416653346
51416659144
51416663355
51416668788
51416673731
51416679225
51416685145
51416689478
51416695033
51416699793
51416705653
51416710658
51416715235
51416721156
51416726832
51416731287
51416736781
51416742396
51416745997
51416751307
51416758448
51416764002
51416768885
51416774500
51416778467
51416785120
51416788965
51416795740
51416800013
51416806544
51416810145
51416816126
51416822413
51416827173
51416832789
51416838709
51416844202
51416849390
51416855005
51416859705
51416866541
51416870935
51416876612
51416881617
51416886133
51416891138
51416896936
51416901697
51416906885
51416914148
51416918299
51416924036
51416929163
51416933313
51416941065
51416947168
51416951929
51416955774
51416961756
51416967005
51416972498
51416978967
51416984644
51416989404
51416993616
51416999292
51417004541
51417009912
51417014978
51417020166
51417027185
51417032007
51417037622
51417043603
51417049219
51417055261
51417060693
51417065881
51417071374
51417075403
51417080957
51417088037
51417091577
51417098108
51417104089
51417109155
51417113977
51417120630
51417127405
51417132287
51417137170
51417142419
51417147851
51417153161
51417156823
51417163903
51417169458
51417175012
51417179834
51417185022
51417192285
51417196923
51417202661
51417207788
51417214440
51417219262
51417224450
51417230859
51417235314
51417241113
51417245873
51417251855
51417257470
51417261498
51417267480
51417274438
51417279565
51417285119
51417290307
51417296655
51417302209
51417306481
51417313256
51417317712
51417322961
51417329003
51417333337
51417338830
51417344811
51417349633
51417354516
51417360314
51417365807
51417372460
51417376000
51417382958
51417387353
51417392846
51417399499
51417402978
51417409508
51417414269
51417420311
51417425683
51417431298
51417437157
51417441796
51417447228
51417453148
51417458214
51417463646
51417468285
51417474083
51417478295
51417483727
51417490441
51417495568
51417501244
51417505577
51417512047
51417516686
51417521752
51417528771
51417533043
51417538780
51417543541
51417549889
51417554161
51417559288
51417565697
51417570763
51417576439
51417581749
51417587120
51417592186
51417597679
51417603722
51417609886
51417614830
51417620445
51417624596
51417629051
51417634666
51417641258
51417645958
51417651268
51417655785
51417661461
51417665855
51417671654
51417676720
51417682152
51417686729
51417692833
51417698082
51417703026
51417706688
51417713890
51417718284
51417724327
51417729576
51417734947
51417740135
51417745933
51417751732
51417756309
51417762046
51417767845
51417772850
51417777366
51417782981
51417789146
51417794761
51417799949
51417804954
51417810447
51417816368
51417821006
51417826866
51417831626
51417838218
51417843345
51417848106
51417853599
51417859580
51417864707
51417870384
51417875388
51417880943
51417885398
51417891258
51417897422
51417902732
51417907798
51417913718
51417918052
51417922569
51417927879
51417935203
51417939902
51417946433
51417950461
51417955711
51417961631
51417967307
51417973105
51417977866
51417982993
51417987205
51417992759
51417998740
51418003623
51418009604
51418014487
51418019553
51418025718
51418029258
51418034690
51418041160
51418046409
51418051658
51418056968
51418062949
51418067344
51418072898
51418078696
51418084128
51418089621
51418093833
51418099387
51418104148
51418109824
51418115683
51418120627
51418126120
51418131247
51418136374
51418141989
51418147605
51418152609
51418157309
51418163657
51418168051
51418173666
51418179404
51418184592
51418190329
51418194174
51418199362
51418205405
51418210104
51418215598
51418220358
51418225485
51418230612
51418236838
51418241354
51418246908
51418252829
51418258749
51418264548
51418269369
51418275900
51418281149
51418287497
51418293539
51418298300
51418304648
51418309897
51418315268
51418320700
51418326681
51418333029
51418337912
51418344015
51418348043
51418354940
51418358847
51418364157
51418370749
51418376242
51418382040
51418387106
51418392172
51418397665
51418401937
51418407919
51418412863
51418418661
51418424764
51418429342
51418434957
51418440023
51418445272
51418451437
51418456014
51418462057
51418466573
51418471700
51418477377
51418482626
51418488058
51418493124
51418498312
51418503561
51418509115
51418515401
51418519796
51418525045
51418530843
51418535970
51418541463
51418547384
51418552450
51418558370
51418562032
51418568685
51418573446
51418579000
51418583455
51418588643
51418595479
51418601217
51418605367
51418610372
51418616231
51418622457
51418626546
51418633870
51418640279
51418643819
51418650960
51418655294
51418662435
51418667806
51418671407
51418678487
51418682576
51418688253
51418694966
51418700338
51418706441
51418710836
51418716390
51418722249
51418726155
51418733480
51418739888
51418745015
51418750203
51418755269
51418760884
51418765340
51418771687
51418776143
51418781392
51418788045
51418793721
51418798360
51418803792
51418809712
51418815938
51418820882
51418826192
51418831929
51418836995
51418842122
51418848103
51418853718
51418859029
51418864216
51418869832
51418875630
51418881550
51418886006
51418892354
51418898396
51418904561
51418909993
51418915364
51418920369
51418925801
51418931965
51418936055
51418942769
51418948201
51418953511
51418959736
51418965718
51418970723
51418975544
51418981099
51418986470
51418991780
51418997944
51419003132
51419008381
51419013386
51419019245
51419024616
51419030293
51419036152
51419040852
51419047077
51419051716
51419057087
51419062336
51419068562
51419073261
51419078327
51419084492
51419088642
51419093952
51419099201
51419104939
51419110554
51419115742
51419121052
51419125690
51419130939
51419137836
51419143207
51419148579
51419152851
51419158283
51419163959
51419169880
51419175739
51419180012
51419186115
51419191852
51419197101
51419201679
51419208637
51419213886
51419219684
51419223285
51419230243
51419234455
51419240070
51419245502
51419250751
51419256977
51419261188
51419267109
51419271625
51419276874
51419283283
51419288715
51419294879
51419300006
51419305622
51419310016
51419315326
51419320453
51419326435
51419331012
51419335102
51419340778
51419345661
51419350971
51419357013
51419362567
51419367328
51419372638
51419377216
51419382770
51419388446
51419394000
51419398944
51419404987
51419408954
51419414447
51419419086
51419424762
51419429401
51419434955
51419441363
51419445758
51419451251
51419457233
51419460773
51419466998
51419472125
51419477984
51419482684
51419487689
51419493426
51419499042
51419505084
51419509784
51419515521
51419520770
51419526263
51419531878
51419535785
51419543353
51419547076
51419552874
51419559161
51419564410
51419571246
51419577227
51419582232
51419588214
51419594073
51419599139
51419604937
51419610308
51419615924
51419621356
51419626605
51419631854
51419638506
51419646624
51419660662
51419666399
51419672015
51419676409
51419683367
51419689105
51419694048
51419700762
51419706866
51419712481
51419717608
51419723528
51419729571
51419736285
51419741839
51419747576
51419751604
51419758745
51419763140
51419767840
51419773516
51419780291
51419784990
51419790850
51419795550
51419800188
51419805071
51419812883
51419817827
51419823504
51419828997
51419833025
51419838701
51419843157
51419850115
51419855425
51419860491
51419866655
51419871294
51419876604
51419883440
51419889360
51419895403
51419900713
51419905352
51419911333
51419915666
51419921526
51419926897
51419931963
51419936540
51419941301
51419947466
51419952226
51419957781
51419963823
51419968401
51419974260
51419979265
51419983781
51419989641
51419994646
51420000139
51420005449
51420010881
51420015153
51420020280
51420026384
51420031633
51420037309
51420042070
51420047319
51420051408
51420057085
51420063920
51420068681
51420074357
51420078203
51420084611
51420088823
51420095231
51420101396
51420106218
51420111955
51420118058
51420123369
51420127885
51420132646
51420139543
51420144670
51420150346
51420156266
51420161699
51420166703
51420172441
51420177140
51420182267
51420186723
51420192277
51420197953
51420202165
51420207353
51420213578
51420217729
51420223405
51420228105
51420233781
51420238175
51420243913
51420248368
51420254044
51420260575
51420265641
51420271317
51420277421
51420281083
51420287858
51420293229
51420298783
51420304581
51420310502
51420315812
51420320695
51420327470
51420333085
51420336625
51420343095
51420347428
51420353165
51420360062
51420365006
51420370926
51420375138
51420380692
51420386674
51420392350
51420398575
51420402665
51420408951
51420413529
51420419266
51420424942
51420428910
51420436173
51420439103
51420446488
51420452652
51420456681
51420462906
51420469681
51420475602
51420480240
51420485977
51420490677
51420495926
51420501969
51420508682
51420514054
51420519608
51420523758
51420529373
51420534561
51420540665
51420545975
51420552078
51420556595
51420561295
51420567154
51420571426
51420577286
51420583939
51420589066
51420595047
51420599564
51420604568
51420610550
51420616165
51420621780
51420627457
51420632156
51420637710
51420642471
51420648025
51420654495
51420659866
51420666092
51420671646
51420676346
51420681656
51420687088
51420692154
51420697342
51420703811
51420708511
51420713516
51420719192
51420725052
51420732620
51420738174
51420743545
51420748001
51420753311
51420759964
51420764602
51420770584
51420775283
51420780777
51420785964
51420791214
51420796768
51420802200
51420808120
51420813491
51420818984
51420824661
51420829849
51420835464
51420841567
51420846328
51420852310
51420857131
51420863418
51420868911
51420872512
51420879226
51420884841
51420889968
51420895705
51420899368
51420905776
51420910476
51420916579
51420922195
51420927322
51420933181
51420938186
51420943008
51420948196
51420954055
51420958877
51420965529
51420970717
51420975478
51420981887
51420988662
51420992934
51420999648
51421005324
51421010024
51421014907
51421020400
51421027724
51421031813
51421037490
51421043105
51421048415
51421053908
51421059645
51421066176
51421071852
51421077040
51421083388
51421088149
51421092726
51421098525
51421103896
51421107741
51421114699
51421119338
51421124404
51421128859
51421134413
51421140822
51421145094
51421150771
51421155226
51421160841
51421166213
51421172072
51421177809
51421182143
51421188795
51421193800
51421198561
51421204665
51421210280
51421216750
51421221266
51421226881
51421232680
51421237074
51421242689
51421248976
51421254469
51421259535
51421265394
51421271559
51421275282
51421280775
51421287184
51421292006
51421297499
51421303175
51421308241
51421313917
51421317762
51421325209
51421330519
51421335646
51421341139
51421346571
51421351515
51421355970
51421363295
51421367628
51421373182
51421377882
51421383436
51421388990
51421395765
51421401014
51421406874
51421411756
51421417249
51421421949
51421427076
51421432325
51421438185
51421442640
51421448316
51421453565
51421460096
51421465406
51421471815
51421476026
51421481947
51421488050
51421492933
51421499036
51421504163
51421510572
51421516126
51421521619
51421526197
51421531324
51421537000
51421542554
51421548048
51421555005
51421560132
51421566114
51421571790
51421576063
51421583509
51421589612
51421594983
51421599927
51421604566
51421609632
51421615674
51421621961
51421625440
51421632154
51421636792
51421641980
51421648023
51421653638
51421658826
51421663648
51421668897
51421675122
51421681531
51421685620
51421692090
51421696668
51421702466
51421707471
51421712598
51421718335
51421722302
51421728650
51421734631
51421740247
51421745191
51421750073
51421754834
51421760266
51421765942
51421770581
51421775769
51421781018
51421786145
51421792493
51421796704
51421802319
51421807385
51421812573
51421819043
51421822827
51421829175
51421834485
51421839612
51421846203
51421851941
51421857556
51421862195
51421865979
51421874219
51421880139
51421885327
51421890759
51421896191
51421900586
51421906140
51421912304
51421918164
51421923413
51421929394
51421934155
51421938549
51421944592
51421949841
51421954663
51421958325
51421966137
51421970410
51421975964
51421982739
51421988293
51421993847
51421999401
51422005200
51422010876
51422016125
51422022167
51422026989
51422032238
51422038586
51422042553
51422048657
51422053539
51422059521
51422064037
51422069775
51422076122
51422079723
51422087231
51422093212
51422098278
51422104076
51422109142
51422114880
51422120739
51422124462
51422131298
51422137218
51422142406
51422145946
51422150951
51422157665
51422160045
51422168346
51422173351
51422178661
51422184887
51422189403
51422196605
51422203075
51422207836
51422212841
51422218395
51422223278
51422228771
51422233959
51422239147
51422243297
51422248424
51422254772
51422259471
51422265209
51422269603
51422274364
51422280162
51422284008
51422290172
51422293468
51422298473
51422303539
51422310558
51422316661
51422319896
51422325878
51422329723
51422334728
51422338817
51422345531
51422351390
51422356273
51422360118
51422364757
51422370189
51422374095
51422380992
51422386485
51422390880
51422395946
51422400645
51422405833
51422411693
51422417369
51422422496
51422427318
51422432017
51422437144
51422441722
51422446666
51422451915
51422456187
51422461680
51422467113
51422471324
51422475413
51422479747
51422486644
51422491404
51422496776
51422501414
51422506236
51422509898
51422514598
51422521495
51422526011
51422531504
51422535960
51422540660
51422545359
51422549937
51422556102
51422560801
51422566233
51422570811
51422575389
51422579295
51422585337
51422590708
51422596018
51422601328
51422604991
51422610484
51422615794
51422619456
51422625071
51422629710
51422636179
51422640330
51422646555
51422651621
51422656443
51422661387
51422666331
51422671397
51422676768
51422681345
51422686655
51422693613
51422699534
51422703928
51422708079
51422715159
51422720530
51422725779
51422731943
51422736521
51422741343
51422747629
51422750620
51422757151
51422762217
51422767588
51422773386
51422778635
51422782969
51422788828
51422794321
51422800058
51422803721
51422810251
51422815195
51422820139
51422826181
51422829172
51422835642
51422841013
51422846079
51422851755
51422857187
51422862558
51422867441
51422872324
51422877329
51422883676
51422889047
51422892832
51422897959
51422903940
51422908090
51422914804
51422918527
51422924875
51422928720
51422933725
51422939523
51422943796
51422950205
51422954477
51422958810
51422962900
51422968454
51422973764
51422979562
51422984384
51422987802
51422993600
51422998056
51423001413
51423008676
51423013132
51423018381
51423022470
51423028573
51423033151
51423038095
51423043832
51423047555
51423053354
51423058053
51423063180
51423067026
51423071603
51423078012
51423082834
51423088510
51423092294
51423096872
51423100839
51423107065
51423113046
51423118600
51423124154
51423129403
51423134530
51423138803
51423143869
51423150216
51423155831
51423159982
51423165231
51423170175
51423174020
51423178781
51423186654
51423191049
51423196786
51423200448
51423205453
51423210214
51423214852
51423222360
51423227059
51423231820
51423237008
51423242135
51423246041
51423251107
51423257699
51423262887
51423267526
51423273019
51423277657
51423281991
51423286996
51423294564
51423300118
51423305306
51423309029
51423314889
51423319039
51423324105
51423329781
51423334298
51423339547
51423343941
51423349068
51423353524
51423357918
51423364022
51423370492
51423375252
51423379036
51423384102
51423389351
51423393319
51423399544
51423404976
51423409249
51423413948
51423419442
51423424447
51423429024
51423434212
51423438973
51423444832
51423449837
51423454537
51423457711
51423463631
51423468819
51423474190
51423479378
51423483284
51423488655
51423493782
51423498299
51423505013
51423511299
51423517281
51423520943
51423526070
51423531319
51423536263
51423542549
51423548287
51423553169
51423556587
51423562813
51423566658
51423571419
51423577278
51423582283
51423587776
51423593513
51423598518
51423602425
51423608101
51423614448
51423619759
51423624580
51423628303
51423634468
51423638862
51423644050
51423649360
51423653328
51423658699
51423663521
51423668220
51423671943
51423678047
51423683479
51423688179
51423693672
51423697944
51423702949
51423707710
51423712593
51423717476
51423721077
51423727241
51423733406
51423738594
51423744636
51423749275
51423754829
51423759101
51423765144
51423769538
51423774482
51423779670
51423784004
51423789985
51423794929
51423798835
51423804878
51423809272
51423813850
51423819892
51423825202
51423830879
51423836067
51423841071
51423846015
51423850654
51423856574
51423861762
51423866767
51423870979
51423875800
51423880866
51423885627
51423890327
51423896613
51423899726
51423905341
51423910407
51423914619
51423920295
51423925910
51423931586
51423936957
51423941047
51423946235
51423950202
51423955146
51423960517
51423966254
51423971320
51423975226
51423979865
51423985114
51423989814
51423996100
51424000922
51424005805
51424010932
51424015509
51424020209
51424026618
51424032172
51424036750
51424041632
51424047004
51424051947
51424056037
51424060553
51424066718
51424071784
51424077033
51424080878
51424085578
51424091620
51424096381
51424103156
51424108283
51424113654
51424117011
51424121649
51424127142
51424132208
51424137396
51424142951
51424148016
51424152106
51424156989
51424162299
51424165595
51424172430
51424177435
51424182623
51424186468
51424191473
51424197089
51424201239
51424207342
51424212103
51424217902
51424221136
51424226080
51424230719
51424235724
51424241583
51424246405
51424251044
51424255621
51424260626
51424265387
51424270209
51424276251
51424281622
51424285650
51424289984
51424295477
51424300482
51424305059
51424311407
51424317083
51424322271
51424326422
51424332098
51424336798
51424341375
51424346929
51424351934
51424357244
51424362371
51424368170
51424372442
51424376531
51424383001
51424388555
51424393743
51424398992
51424403631
51424408575
51424414556
51424420294
51424425421
51424428777
51424435247
51424440069
51424445196
51424449163
51424455450
51424460638
51424465521
51424469732
51424474615
51424479681
51424485662
51424490972
51424496404
51424501836
51424506780
51424511541
51424516119
51424520635
51424527227
51424531682
51424537725
51424542608
51424547124
51424551641
51424557500
51424562810
51424567937
51424572942
51424578557
51424592962
51424599187
51424602483
51424609746
51424614873
51424619878
51424625493
51424630498
51424635991
51424640874
51424645391
51424651006
51424655522
51424660955
51424665471
51424670476
51424676030
51424681035
51424686284
51424690496
51424695317
51424700749
51424705693
51424710942
51424715520
51424719365
51424725530
51424730840
51424736089
51424741643
51424745793
51424750981
51424755925
51424757939
51424765813
51424771184
51424774724
51424780400
51424784734
51424788945
51424792424
51424800481
51424806462
51424811345
51424815739
51424820012
51424824711
51424829777
51424835576
51424841313
51424846196
51424849614
51424854558
51424860600
51424866581
51424871647
51424876042
51424882512
51424887272
51424892704
51424898198
51424902470
51424909611
51424914616
51424920231
51424925785
51424930302
51424935307
51424940434
51424945744
51424950993
51424955143
51424960514
51424964909
51424969975
51424974736
51424979313
51424985783
51424991215
51424995793
51424999699
51425005558
51425010075
51425014836
51425020695
51425025578
51425030094
51425035893
51425039311
51425045719
51425051029
51425056339
51425061283
51425066227
51425070683
51425074772
51425081547
51425085026
51425090763
51425094974
51425099613
51425104374
51425109440
51425115360
51425120121
51425125858
51425129337
51425134281
51425138859
51425143925
51425149662
51425154972
51425160221
51425164066
51425169437
51425173710
51425178287
51425186222
51425191898
51425195926
51425200260
51425205631
51425210392
51425215030
51425219425
51425225711
51425231083
51425235904
51425240970
51425246463
51425251590
51425257450
51425262332
51425267520
51425271366
51425276309
51425281681
51425286868
51425293826
51425298465
51425303592
51425307681
51425312503
51425318057
51425323123
51425328311
51425333133
51425338138
51425342044
51425346866
51425351993
51425356998
51425362918
51425367435
51425372806
51425377078
51425382144
51425386295
51425390994
51425397586
51425402408
51425407718
51425410953
51425416080
51425420901
51425425967
51425431460
51425436648
51425442386
51425446231
51425451480
51425456668
51425461307
51425465945
51425471744
51425476687
51425481814
51425487246
51425492129
51425497134
51425502627
51425507998
51425512210
51425517764
51425522097
51425527591
51425532840
51425539248
51425546084
51425551760
51425557254
51425562747
51425568423
51425573428
51425578372
51425584597
51425588870
51425595522
51425600833
51425604373
51425611636
51425616274
51425621829
51425627383
51425631472
51425635806
51425642580
51425648013
51425653445
51425658938
51425663577
51425668948
51425675600
51425681948
51425686770
51425693056
51425698305
51425703982
51425709841
51425714419
51425720461
51425725649
51425732058
51425736757
51425742678
51425747561
51425753664
51425759096
51425764406
51425770754
51425775332
51425781008
51425787050
51425793642
51425799379
51425804628
51425809755
51425814943
51425820803
51425825258
51425831667
51425837099
51425842165
51425845705
51425852602
51425856813
51425862673
51425866945
51425874208
51425878725
51425884401
51425890138
51425894350
51425899965
51425906130
51425911501
51425917116
51425921510
51425927126
51425931215
51425936647
51425943483
51425947939
51425953554
51425958498
51425964906
51425969911
51425974062
51425980959
51425986146
51425991334
51425996339
51426001100
51426007265
51426012758
51426018068
51426023683
51426029542
51426034059
51426038759
51426044801
51426050660
51426056398
51426061220
51426066469
51426071595
51426078798
51426083436
51426089845
51426095033
51426101869
51426107362
51426112794
51426118348
51426124818
51426130494
51426135987
51426141847
51426145997
51426152101
51426155885
51426163331
51426169007
51426174439
51426179994
51426185914
51426191895
51426197877
51426203065
51426208375
51426214173
51426219972
51426225526
51426229127
51426236268
51426240418
51426247437
51426251221
51426256287
51426262513
51426266114
51426273988
51426279847
51426285767
51426291260
51426296387
51426303345
51426308167
51426313843
51426319092
51426325074
51426330018
51426335023
51426340577
51426346131
51426352418
51426356934
51426362610
51426367615
51426373108
51426378724
51426384888
51426389283
51426394471
51426401001
51426407654
51426413819
51426418579
51426423767
51426429505
51426434815
51426440552
51426444092
51426450440
51426455933
51426461548
51426467896
51426472718
51426478577
51426482971
51426488220
51426495300
51426500488
51426505615
51426511597
51426515137
51426521729
51426527283
51426533569
51426538391
51426543640
51426549194
51426554382
51426559692
51426566650
51426572632
51426578064
51426582764
51426588501
51426594055
51426598816
51426604919
51426611023
51426616272
51426621826
51426626587
51426633911
51426639526
51426644714
51426651611
51426656616
51426661255
51426666870
51426672485
51426678100
51426683593
51426688049
51426693359
51426698425
51426702819
51426709228
51426715942
51426721374
51426726501
51426732055
51426737793
51426741516
51426747009
51426752807
51426758850
51426764038
51426767944
51426774597
51426778991
51426784179
51426790222
51426795654
51426799804
51426804565
51426809875
51426815002
51426820373
51426826415
51426831115
51426836181
51426841613
51426846801
51426850707
51426856017
51426861999
51426867370
51426871764
51426877990
51426882262
51426887084
51426892455
51426899108
51426904723
51426909240
51426914611
51426919066
51426925048
51426931090
51426936828
51426942382
51426948241
51426953307
51426957885
51426963195
51426969359
51426975341
51426980895
51426985839
51426991698
51426997191
51427002623
51427006285
51427013488
51427018859
51427024291
51427029174
51427035155
51427039611
51427045104
51427051085
51427056151
51427061827
51427068175
51427072631
51427079161
51427084044
51427089598
51427095702
51427100340
51427105528
51427110533
51427114256
51427121947
51427127257
51427132567
51427137389
51427142760
51427148192
51427153197
51427158324
51427163695
51427169371
51427173827
51427178648
51427183897
51427190123
51427194701
51427200255
51427204710
51427210264
51427214842
51427219969
51427226378
51427231016
51427237547
51427241636
51427246702
51427252684
51427258299
51427264647
51427269224
51427275084
51427280211
51427285704
51427290648
51427297239
51427302977
51427308470
51427312498
51427319883
51427325071
51427330442
51427335936
51427341123
51427346800
51427351499
51427357054
51427363279
51427366819
51427374204
51427378660
51427384886
51427390623
51427396055
51427401304
51427405149
51427412779
51427418760
51427424070
51427429136
51427433958
51427440000
51427442564
51427450681
51427456724
51427461973
51427467344
51427473142
51427477659
51427483884
51427489622
51427494688
51427500669
51427505735
51427510374
51427515928
51427520811
51427528135
51427532590
51427537412
51427544675
51427550901
51427555478
51427562009
51427567869
51427573179
51427578916
51427584897
51427589597
51427593991
51427599851
51427605771
51427611753
51427617429
51427622434
51427627866
51427634153
51427639157
51427645139
51427648496
51427652524
51427656735
51427660459
51427664365
51427668515
51427671689
51427675839
51427680539
51427683286
51427688413
51427691953
51427695859
51427700192
51427703610
51427707944
51427711850
51427715878
51427720639
51427725400
51427730039
51427733273
51427738644
51427741635
51427746884
51427750912
51427754819
51427759030
51427763058
51427766904
51427772153
51427777035
51427781247
51427785031
51427789181
51427794186
51427799496
51427804623
51427809018
51427811825
51427816708
51427821164
51427826047
51427830014
51427834103
51427838620
51427843136
51427847470
51427853634
51427857846
51427862240
51427866513
51427870114
51427874264
51427878720
51427882687
51427886349
51427891171
51427895382
51427899655
51427903988
51427908810
51427914608
51427918331
51427921872
51427926205
51427930294
51427936093
51427940609
51427945309
51427949520
51427953610
51427958004
51427962948
51427966915
51427971615
51427975765
51427979855
51427983761
51427988888
51427993038
51427996334
51428001705
51428005367
51428009518
51428013973
51428018368
51428022579
51428027279
51428031429
51428035458
51428039181
51428043880
51428048763
51428052059
51428056637
51428061031
51428065121
51428069637
51428073849
51428078976
51428083126
51428087521
51428092770
51428097591
51428102047
51428107052
51428111690
51428115475
51428120418
51428124752
51428129879
51428133968
51428137813
51428143306
51428146602
51428149715
51428154415
51428159725
51428164058
51428169246
51428173275
51428179012
51428183223
51428188045
51428192196
51428196529
51428201168
51428205501
51428210140
51428214656
51428220455
51428224605
51428229366
51428234798
51428238887
51428243099
51428247066
51428251766
51428257198
51428261775
51428265376
51428268917
51428274227
51428278011
51428283443
51428288143
51428292537
51428296260
51428300533
51428304744
51428309688
51428314571
51428319698
51428324214
51428328731
51428334346
51428338618
51428344051
51428348079
51428352351
51428357600
51428361812
51428366206
51428370113
51428374629
51428379207
51428382442
51428386958
51428391841
51428395686
51428400081
51428403621
51428407588
51428412349
51428415706
51428420466
51428425654
51428430293
51428434504
51428438716
51428442622
51428446650
51428449946
51428454097
51428458247
51428462336
51428466121
51428470881
51428474177
51428478022
51428482722
51428486140
51428489985
51428495051
51428500117
51428504634
51428509455
51428512812
51428517085
51428521846
51428526728
51428531062
51428536250
51428540095
51428544612
51428548335
51428553034
51428557551
51428562556
51428566950
51428571589
51428574519
51428579402
51428584162
51428588374
51428592829
51428596858
51428601496
51428606684
51428610468
51428614619
51428620051
51428624812
51428628169
51428631403
51428635798
51428640864
51428645136
51428649348
51428653620
51428657648
51428661982
51428667109
51428671076
51428676020
51428680476
51428684931
51428688593
51428693415
51428697504
51428701533
51428705866
51428710261
51428713984
51428718806
51428722773
51428727167
51428732233
51428735773
51428740778
51428744501
51428748896
51428753046
51428756891
51428761408
51428765925
51428769587
51428774775
51428781244
51428785212
51428789484
51428793268
51428798700
51428803461
51428808527
51428812860
51428817072
51428821711
51428826044
51428830500
51428834223
51428838373
51428843561
51428847040
51428851984
51428855341
51428860285
51428865534
51428870233
51428874445
51428878839
51428883539
51428887872
51428892328
51428895807
51428900629
51428903619
51428907648
51428912653
51428917108
51428922052
51428926447
51428930475
51428934991
51428938532
51428942560
51428947198
51428951288
51428955804
51428960504
51428964899
51428969965
51428975153
51428979242
51428983819
51428988702
51428993219
51428997613
51429002008
51429006463
51429011774
51429015558
51429020013
51429023370
51429028131
51429032464
51429035821
51429040399
51429045892
51429049005
51429053460
51429058648
51429063287
51429066705
51429070794
51429075189
51429079400
51429083856
51429088311
51429093255
51429097589
51429101739
51429104608
51429108880
51429114373
51429118524
51429122979
51429126947
51429131341
51429134759
51429138055
51429144464
51429148248
51429153009
51429156426
51429159844
51429164178
51429169000
51429173821
51429178704
51429182977
51429187127
51429190972
51429194879
51429198846
51429202813
51429206963
51429210931
51429214776
51429218682
51429223199
51429228692
51429233086
51429238274
51429242608
51429247491
51429250542
51429254815
51429259759
51429264458
51429268182
51429273003
51429278802
51429283257
51429287530
51429293206
51429296685
51429301751
51429305779
51429310479
51429314812
51429320122
51429323968
51429329217
51429333306
51429336480
51429342095
51429345879
51429350091
51429354973
51429358330
51429363274
51429369072
51429373528
51429378106
51429382622
51429386589
51429390191
51429394707
51429399285
51429404229
51429408379
51429413262
51429417412
51429421013
51429425286
51429430107
51429434502
51429438347
51429442436
51429447075
51429450737
51429455437
51429461846
51429467217
51429470696
51429475823
51429478752
51429486199
51429490654
51429494621
51429499077
51429504204
51429507561
51429512932
51429517204
51429521660
51429526238
51429530205
51429535271
51429540092
51429545586
51429549980
51429554253
51429557793
51429561333
51429566521
51429571525
51429576775
51429580925
51429584709
51429589409
51429593620
51429597587
51429601616
51429605705
51429610649
51429614616
51429619499
51429624077
51429628654
51429633293
51429637687
51429641227
51429645256
51429649162
51429654350
51429657646
51429662101
51429666923
51429670402
51429675346
51429679741
51429684318
51429688530
51429692497
51429696464
51429700492
51429704704
51429710258
51429715568
51429718315
51429723320
51429727775
51429732292
51429737113
51429741142
51429745780
51429749931
51429753837
51429758048
51429761650
51429766166
51429771293
51429776481
51429781181
51429785697
51429789970
51429794730
51429798942
51429802909
51429807609
51429811942
51429815910
51429821159
51429824088
51429828788
51429833671
51429838371
51429842643
51429846915
51429851798
51429856010
51429859977
51429863761
51429867484
51429871513
51429877921
51429882438
51429887260
51429890678
51429894767
51429898429
51429901908
51429906180
51429911368
51429916007
51429920218
51429924003
51429928092
51429934867
51429938285
51429943656
51429946769
51429951346
51429955619
51429959891
51429963920
51429969046
51429973502
51429977042
51429981009
51429985770
51429990165
51429994620
51429999076
51430002799
51430006766
51430010306
51430013236
51430018424
51430023123
51430027152
51430031913
51430035453
51430040579
51430043936
51430047904
51430052176
51430056693
51430060172
51430064993
51430069754
51430074881
51430079947
51430084281
51430088797
51430093131
51430095938
51430102530
51430107169
51430111197
51430114859
51430118765
51430123221
51430128104
51430132376
51430136954
51430140738
51430144949
51430149405
51430153738
51430158072
51430162405
51430166800
51430171011
51430174429
51430179251
51430185477
51430189261
51430193411
51430198233
51430203482
51430208182
51430213858
51430217032
51430221731
51430226797
51430232474
51430236563
51430240469
51430243704
51430249991
51430253347
51430258169
51430262564
51430266470
51430272757
51430276419
51430279776
51430283621
51430287771
51430291250
51430295095
51430299307
51430302664
51430306387
51430309744
51430312979
51430316824
51430320669
51430323721
51430326651
51430330801
51430334829
51430337576
51430340261
51430345388
51430348440
51430352346
51430355154
51430358511
51430362356
51430365469
51430369314
51430372305
51430375173
51430379202
51430383108
51430385793
51430389150
51430392141
51430395376
51430398611
51430401479
51430404104
51430407339
51430411001
51430415029
51430417654
51430420766
51430424001
51430427358
51430431936
51430435171
51430437978
51430442190
51430445852
51430450307
51430454214
51430457387
51430460378
51430464162
51430468984
51430472829
51430475210
51430479116
51430482290
51430486562
51430490407
51430492666
51430496145
51430499624
51430503408
51430507009
51430510366
51430512868
51430516469
51430520070
51430522939
51430526662
51430530935
51430535085
51430538564
51430541250
51430545217
51430549062
51430552846
51430556691
51430559804
51430563222
51430566152
51430569326
51430572561
51430575734
51430579885
51430583913
51430587514
51430592092
51430594838
51430598012
51430601003
51430604299
51430607045
51430609853
51430613027
51430615834
51430619313
51430621755
51430624440
51430627553
51430630727
51430634511
51430637807
51430640615
51430643239
51430646230
51430648488
51430651845
51430654531
51430657704
51430661183
51430664174
51430667287
51430669789
51430672719
51430676259
51430678822
51430682118
51430685658
51430688771
51430691640
51430695241
51430697499
51430699941
51430703114
51430705373
51430707875
51430710194
51430712514
51430714772
51430717091
51430719472
51430721791
51430723744
51430725758
51430727712
51430729298
51430731496
51430733388
51430735036
51430737477
51430739369
51430741627
51430743886
51430745778
51430748036
51430749806
51430751820
51430753896
51430755910
51430758046
51430759938
51430761891
51430763722
51430765736
51430767811
51430769704
51430771290
51430773061
51430775014
51430777028
51430778920
51430780873
51430782826
51430784596
51430786366
51430788258
51430790455
51430792287
51430794179
51430796010
51430797841
51430799916
51430801808
51430803761
51430805775
51430807973
51430810048
51430812367
51430814625
51430816578
51430818471
51430820668
51430822560
51430824574
51430826710
51430828602
51430830372
51430832325
51430834340
51430836476
51430838246
51430840321
51430842335
51430844105
51430846058
51430848195
51430850026
51430852101
51430854237
51430856251
51430858265
51430860218
51430862050
51430864247
51430866139
51430868580
51430870594
51430872487
51430874318
51430876332
51430878468
51430880055
51430881886
51430883473
51430885304
51430887562
51430889454
51430891102
51430892933
51430895008
51430896778
51430898793
51430900502
51430902272
51430904164
51430905934
51430907948
51430909962
51430911793
51430913624
51430915821
51430917408
51430919239
51430921315
51430923207
51430925160
51430927052
51430929188
51430931019
51430932789
51430934864
51430936695
51430938648
51430940541
51430942433
51430944142
51430946156
51430948170
51430949879
51430951588
51430953541
51430955250
51430957020
51430958973
51430960743
51430962391
51430964283
51430966053
51430968128
51430969959
51430971852
51430973683
51430975880
51430977650
51430979603
51430981251
51430983021
51430985096
51430986805
51430988636
51430990406
51430992115
51430994007
51430995594
51430997730
51430999744
51431001515
51431003223
51431005177
51431007435
51431009327
51431010975
51431012806
51431014881
51431016773
51431018360
51431020008
51431022144
51431024036
51431025867
51431027943
51431029591
51431031483
51431033131
51431035511
51431037342
51431039173
51431041004
51431043323
51431045460
51431047291
51431049061
51431050953
51431054920
51431056751
51431058948
51431060535
51431062672
51431064686
51431067188
51431069141
51431070972
51431072864
51431075062
51431076954
51431078785
51431080494
51431082447
51431084278
51431086109
51431087757
51431089527
51431091175
51431093067
51431095142
51431096912
51431098804
51431100574
51431102527
51431104297
51431106129
51431107899
51431110035
51431112049
51431113941
51431115955
51431117908
51431119922
51431121631
51431124012
51431125904
51431127735
51431129505
51431131458
51431133228
51431134998
51431136829
51431138538
51431140552
51431142139
51431143909
51431145679
51431147388
51431149158
51431151050
51431153309
51431155018
51431156971
51431158924
51431160694
51431162647
51431164600
51431166309
51431168140
51431169910
51431172168
51431173999
51431175586
51431177295
51431179065
51431181079
51431182788
51431184681
51431186328
51431188099
51431189807
51431191822
51431193531
51431195240
51431197132
51431199268
51431200977
51431203113
51431205005
51431206958
51431208911
51431210559
51431212574
51431214283
51431215930
51431218006
51431219593
51431221546
51431223377
51431225147
51431226856
51431228870
51431230640
51431232532
51431234180
51431235950
51431237781
51431239612
51431241260
51431243274
51431244983
51431246570
51431248584
51431250476
51431252307
51431254077
51431255847
51431258045
51431259693
51431261402
51431263233
51431265003
51431266895
51431268909
51431270618
51431272327
51431274158
51431276294
51431278247
51431279773
51431281604
51431283313
51431285266
51431287463
51431289111
51431291065
51431292957
51431294910
51431296985
51431298816
51431300647
51431302356
51431304004
51431306445
51431308398
51431310291
51431312305
51431314563
51431316333
51431318652
51431320300
51431322131
51431323962
51431325610
51431327563
51431329272
51431331042
51431332935
51431335315
51431337085
51431338916
51431340747
51431342456
51431344409
51431346179
51431347827
51431349963
51431351794
51431353381
51431355090
51431357104
51431358997
51431360950
51431362537
51431364612
51431366687
51431368396
51431370227
51431371997
51431374011
51431375720
51431377673
51431379504
51431381396
51431383166
51431385119
51431386951
51431388660
51431390674
51431392566
51431394763
51431396533
51431398486
51431400195
51431401965
51431404101
51431405810
51431407886
51431409717
51431411548
51431413806
51431415637
51431417773
51431419482
51431421679
51431423266
51431424914
51431427051
51431428821
51431430652
51431432422
51431434436
51431436145
51431438037
51431440112
51431442126
51431443896
51431445727
51431447497
51431449206
51431450976
51431452990
51431454821
51431456530
51431458117
51431460132
51431461963
51431463916
51431465869
51431467639
51431469348
51431471362
51431473071
51431474902
51431477038
51431478747
51431480944
51431482531
51431484301
51431486377
51431488147
51431489856
51431491809
51431493884
51431495654
51431497485
51431499194
51431501086
51431502978
51431504931
51431506823
51431508532
51431510852
51431512438
51431514270
51431516284
51431518054
51431519946
51431521960
51431524218
51431525988
51431527636
51431530017
51431531603
51431533618
51431535510
51431537341
51431539050
51431540881
51431542651
51431544543
51431546252
51431548022
51431549731
51431551684
51431553515
51431555468
51431557116
51431559191
51431560839
51431562853
51431564684
51431566638
51431568408
51431570666
51431572497
51431574206
51431575915
51431577929
51431580065
51431581896
51431583788
51431585436
51431587328
51431589098
51431590746
51431592700
51431594531
51431596484
51431598315
51431600451
51431602038
51431604357
51431606616
51431608447
51431610339
51431612048
51431614001
51431615527
51431617358
51431619677
51431621386
51431623156
51431624987
51431627306
51431629259
51431631457
51431633044
51431634875
51431636706
51431638598
51431640612
51431642260
51431644152
51431645861
51431647875
51431649584
51431651354
51431652941
51431654833
51431656542
51431658495
51431660448
51431662157
51431663866
51431665819
51431667528
51431669482
51431671252
51431673205
51431675036
51431677111
51431679186
51431681139
51431683520
51431685351
51431687365
51431689196
51431691393
51431693041
51431694628
51431696764
51431698717
51431700670
51431702501
51431704333
51431706042
51431707873
51431709765
51431711474
51431713366
51431715075
51431717089
51431718920
51431720751
51431722704
51431724413
51431726732
51431728563
51431730456
51431732226
51431734423
51431736132
51431738085
51431740221
51431742113
51431744066
51431745958
51431747728
51431749437
51431751391
51431753222
51431754808
51431757189
51431758898
51431760668
51431762194
51431764086
51431765795
51431767687
51431769579
51431771410
51431773058
51431774950
51431777147
51431778795
51431780870
51431782763
51431784349
51431786547
51431788378
51431790453
51431792406
51431794420
51431796129
51431797838
51431799791
51431801683
51431803575
51431805284
51431807543
51431809374
51431811205
51431812792
51431814562
51431816515
51431818407
51431820299
51431821886
51431823595
51431825243
51431827196
51431829027
51431830797
51431832750
51431834520
51431836717
51431838365
51431840502
51431842516
51431844774
51431846483
51431848314
51431850267
51431852098
51431854112
51431855943
51431857713
51431859484
51431861009
51431862901
51431864855
51431866686
51431868395
51431870409
51431872179
51431874010
51431875902
51431877794
51431879808
51431881639
51431883898
51431885606
51431887743
51431889574
51431891588
51431893480
51431895311
51431897203
51431898790
51431900865
51431902391
51431904588
51431906297
51431908128
51431909837
51431911791
51431913805
51431915636
51431917406
51431919298
51431921190
51431922960
51431925035
51431927049
51431928819
51431930650
51431932359
51431934557
51431936449
51431938280
51431939989
51431941759
51431943834
51431945665
51431947679
51431949571
51431951646
51431953233
51431955247
51431957017
51431958787
51431960435
51431962266
51431963975
51431965684
51431967271
51431969285
51431971055
51431972764
51431974779
51431976610
51431978319
51431980516
51431982286
51431984117
51431985887
51431987535
51431989732
51431991502
51431993455
51431995164
51431997117
51431999193
51432000963
51432003160
51432004808
51432006761
51432008653
51432010667
51432012376
51432014207
51432015733
51432017381
51432019273
51432021348
51432022874
51432024522
51432026353
51432028062
51432029893
51432031907
51432033677
51432035508
51432037278
51432039354
51432041185
51432043138
51432044725
51432046678
51432048631
51432050462
51432052354
51432054124
51432056443
51432058152
51432059983
51432061570
51432063340
51432065294
51432066880
51432068589
51432070543
51432072435
51432074266
51432075914
51432077745
51432079332
51432081407
51432083055
51432085557
51432087266
51432089219
51432090989
51432092759
51432094712
51432096604
51432098619
51432100389
51432102342
51432104173
51432106004
51432108262
51432110093
51432111924
51432113694
51432115769
51432117723
51432119554
51432121446
51432123460
51432125230
51432127061
51432128892
51432130845
51432132432
51432134385
51432136094
51432138169
51432140122
51432141709
51432143540
51432145799
51432147508
51432149583
51432151231
51432152879
51432154771
51432156541
51432158433
51432160569
51432162888
51432164597
51432166367
51432168015
51432170030
51432171922
51432173814
51432175462
51432177415
51432179185
51432180772
51432182420
51432184617
51432186326
51432188340
51432190232
51432192368
51432194260
51432196214
51432197984
51432199998
51432202195
51432203965
51432206101
51432207749
51432209580
51432211533
51432213853
51432215806
51432217759
51432219590
51432221482
51432223130
51432224839
51432226853
51432228623
51432230271
51432231980
51432233872
51432235581
51432237595
51432239121
51432240769
51432242783
51432244431
51432246384
51432248032
51432250046
51432251939
51432253770
51432255662
51432257493
51432259507
51432261521
51432263352
51432265122
51432267258
51432269334
51432271104
51432273423
51432276841
51432278916
51432280869
51432282639
51432284470
51432286179
51432288132
51432289902
51432291916
51432293748
51432295457
51432297471
51432299058
51432301072
51432302964
51432305039
51432306748
51432308335
51432310227
51432311875
51432314072
51432315720
51432317551
51432319443
51432321091
51432323105
51432324875
51432326523
51432328232
51432330002
51432331711
51432333786
51432335251
51432336960
51432338608
51432340195
51432342270
51432344040
51432346116
51432347825
51432349472
51432351365
51432352951
51432355027
51432356736
51432359116
51432360947
51432362595
51432364792
51432366623
51432368760
51432370285
51432371994
51432373886
51432375657
51432377671
51432379502
51432381211
51432382920
51432384751
51432386704
51432388779
51432390549
51432392197
51432394089
51432395920
51432397934
51432399765
51432401841
51432403549
51432405197
51432407456
51432409226
51432411301
51432412949
51432415207
51432416916
51432419297
51432420883
51432422959
51432424729
51432426682
51432429367
51432431259
51432432968
51432434799
51432436692
51432438400
51432440354
51432442307
51432444077
51432446213
51432448044
51432449997
51432452194
51432454086
51432455918
51432457871
51432460007
51432462204
51432464157
51432466477
51432468491
51432470505
51432472580
51432474533
51432476364
51432478073
51432480209
51432481979
51432483994
51432485886
51432487717
51432489853
51432491623
51432493454
51432495529
51432497238
51432499130
51432501022
51432502914
51432504929
51432506699
51432508591
51432510544
51432512497
51432514511
51432516464
51432518845
51432520981
51432522873
51432524826
51432526779
51432529221
51432530930
51432532944
51432535019
51432536850
51432539230
51432541244
51432543014
51432544907
51432546738
51432548752
51432550583
51432552719
51432554550
51432556442
51432557968
51432559982
51432562057
51432563766
51432565964
51432568893
51432575302
51432577621
51432579697
51432581528
51432583114
51432585434
51432587204
51432588913
51432591171
51432592941
51432594772
51432596786
51432598617
51432600326
51432602218
51432604233
51432605819
51432607773
51432609726
51432611496
51432613449
51432615646
51432617355
51432619064
51432620956
51432622665
51432624801
51432626449
51432628586
51432630661
51432632370
51432634384
51432636398
51432638656
51432640426
51432642379
51432644516
51432646469
51432648849
51432650741
51432652816
51432654586
51432656418
51432658493
51432660263
51432662399
51432664413
51432666122
51432668075
51432669845
51432671798
51432674118
51432675766
51432677780
51432679550
51432681442
51432683517
51432685409
51432687606
51432689498
51432691391
51432693588
51432695602
51432697555
51432699325
51432701461
51432703659
51432705551
51432707748
51432709579
51432711776
51432713607
51432715499
51432717330
51432719161
51432721176
51432723129
51432725143
51432727462
51432729232
51432731124
51432732955
51432734970
51432737106
51432738815
51432740829
51432742538
51432744430
51432746444
51432748153
51432750533
51432752181
51432754318
51432756210
51432757980
51432760421
51432762496
51432764510
51432766525
51432768112
51432770309
51432772262
51432774154
51432775802
51432777572
51432779403
51432781417
51432783492
51432785262
51432787093
51432789047
51432790817
51432792953
51432794723
51432796737
51432798690
51432800399
51432802779
51432804733
51432806442
51432808578
51432810409
51432812789
51432814925
51432816634
51432818893
51432820968
51432823043
51432824813
51432827132
51432829208
51432831039
51432833053
51432834884
51432837020
51432839217
51432840926
51432842818
51432844833
51432846847
51432848861
51432850753
51432852645
51432854476
51432856979
51432858749
51432860519
51432862716
51432864669
51432866866
51432868758
51432870711
51432873092
51432874862
51432876937
51432878585
51432880965
51432882918
51432884933
51432886703
51432888656
51432890792
51432892379
51432894393
51432896224
51432897933
51432900191
51432902205
51432903914
51432905807
51432907699
51432909530
51432911544
51432913802
51432915389
51432917403
51432919173
51432921248
51432923568
51432925399
51432927413
51432929549
51432931441
51432933700
51432935714
51432937972
51432939742
51432941756
51432943526
51432945723
51432947738
51432949691
51432951583
51432953414
51432955367
51432957381
51432959273
51432961104
51432962874
51432964766
51432966597
51432968612
51432970504
51432972457
51432974410
51432976668
51432978560
51432980452
51432982589
51432984420
51432986434
51432988204
51432990523
51432992720
51432994490
51432996443
51432998336
51433000716
51433002913
51433004744
51433006636
51433008589
51433010726
51433012374
51433014388
51433016341
51433018050
51433019942
51433021773
51433023604
51433025618
51433027510
51433029097
51433030989
51433033003
51433035079
51433036910
51433038558
51433040572
51433043013
51433044844
51433046736
51433048873
51433050765
51433053084
51433055098
51433056929
51433059249
51433061019
51433063094
51433065108
51433067427
51433069258
51433071028
51433072798
51433075057
51433077132
51433079085
51433081099
51433083235
51433085066
51433087203
51433089339
51433091414
