51143049493
51143054193
51143058892
51143064874
51143069757
51143075677
51143080865
51143087396
51143093011
51143098199
51143104669
51143109490
51143114800
51143121636
51143126641
51143132745
51143139153
51143146477
51143152581
51143158990
51143165520
51143171624
51143178033
51143184380
51143192437
51143198846
51143206414
51143213006
51143218316
51143224969
51143231865
51143237786
51143245781
51143252739
51143259087
51143265740
51143272759
51143278313
51143284661
51143292717
51143298333
51143305046
51143312126
51143318474
51143325615
51143334160
51143340874
51143347527
51143353996
51143361138
51143368706
51143376274
51143383293
51143389519
51143396599
51143404350
51143412285
51143420158
51143427788
51143434868
51143442436
51143447807
51143457085
51143463249
51143470390
51143478081
51143484611
51143491752
51143499260
51143505852
51143512138
51143520195
51143528068
51143535393
51143542900
51143549431
51143556205
51143563591
51143570366
51143579521
51143585624
51143592643
51143600273
51143605949
51143612846
51143621208
51143628349
51143634513
51143640983
51143648673
51143654838
51143661857
51143669486
51143677543
51143682853
51143690482
51143697746
51143702873
51143710319
51143719108
51143724723
51143732475
51143739921
51143745475
51143752250
51143759574
51143767631
51143773185
51143780875
51143787955
51143795829
51143802543
51143809684
51143817313
51143824271
51143830741
51143838248
51143846610
51143853263
51143860404
51143868033
51143875541
51143884208
51143890616
51143899039
51143907157
51143915641
51143923209
51143929557
51143937857
51143943411
51143951895
51143957083
51143965445
51143973136
51143981375
51143989676
51143998099
51144005545
51144016348
51144026846
51144036185
51144043265
51144052176
51144059317
51144067801
51144073843
51144081961
51144090811
51144097159
51144106436
51144114126
51144121329
51144127310
51144136282
51144140066
51144152029
51144159353
51144167837
51144176870
51144182547
51144190664
51144200003
51144207266
51144214834
51144224111
51144230886
51144239431
51144246145
51144254629
51144263723
51144271841
51144279775
51144286794
51144296377
51144304067
51144311147
51144319509
51144327932
51144334768
51144343862
51144352346
51144358327
51144367666
51144377065
51144384878
51144391897
51144401418
51144409719
51144416982
51144424795
51144431997
51144440481
51144449514
51144458242
51144466787
51144475270
51144481801
51144490468
51144496633
51144507802
51144516286
51144525014
51144532521
51144541554
51144548329
51144556081
51144563039
51144573659
51144580556
51144588368
51144597218
51144604054
51144611195
51144618703
51144625905
51144635304
51144642018
51144648854
51144656117
51144665395
51144672352
51144679738
51144688283
51144697804
51144707265
51144715626
51144721058
51144730275
51144737965
51144746449
51144755665
51144762013
51144771473
51144778614
51144786488
51144795155
51144802906
51144807606
51144819569
51144828846
51144836048
51144844593
51144851734
51144860035
51144867726
51144875904
51144883289
51144890675
51144899952
51144907520
51144916676
51144924000
51144931446
51144940052
51144947926
51144955372
51144962879
51144970203
51144977589
51144984485
51144992969
51145000843
51145008899
51145015735
51145023121
51145030018
51145037952
51145045826
51145053028
51145061939
51145068592
51145077747
51145085132
51145093067
51145101368
51145111438
51145120838
51145128711
51145137256
51145144641
51145154163
51145161914
51145170947
51145180225
51145188281
51145197192
51145206348
51145214038
51145221973
51145229846
51145238452
51145244189
51145255298
51145264026
51145273730
51145283435
51145290637
51145298816
51145307605
51145314990
51145322986
51145330188
51145337573
51145344958
51145353564
51145359362
51145365344
51145370105
51145376941
51145383044
51145391406
51145396228
51145401477
51145407580
51145413012
51145417834
51145424487
51145428942
51145435900
51145440600
51145446704
51145452502
51145458178
51145464465
51145469042
51145476000
51145480578
51145486681
51145491259
51145497485
51145503954
51145508227
51145513903
51145519396
51145525500
51145530260
51145536852
51145542284
51145548144
51145553881
51145558886
51145563830
51145569994
51145576159
51145580797
51145587267
51145591967
51145597643
51145602953
51145608874
51145613268
51145618639
51145623644
51145628893
51145634874
51145639330
51145643725
51145650133
51145656298
51145661181
51145667467
51145671495
51145678331
51145683153
51145688890
51145693346
51145698717
51145704210
51145709032
51145714281
51145719225
51145725756
51145731615
51145736864
51145742174
51145746630
51145751695
51145758714
51145761095
51145768297
51145773119
51145778429
51145784105
51145789293
51145794725
51145800829
51145805895
51145812364
51145817491
51145822496
51145826830
51145832445
51145839037
51145843736
51145849351
51145854723
51145860033
51145864793
51145869981
51145877061
51145881944
51145888048
51145891954
51145897813
51145903612
51145908372
51145914781
51145919786
51145924241
51145929857
51145935594
51145940049
51145945237
51145951402
51145955796
51145961473
51145966539
51145972215
51145976915
51145982164
51145988023
51145992967
51145998826
51146004441
51146010179
51146013597
51146021714
51146027268
51146031663
51146038255
51146043138
51146048631
51146053269
51146057420
51146065659
51146070298
51146075852
51146081223
51146085801
51146090379
51146095750
51146101548
51146106492
51146112168
51146116257
51146122300
51146126939
51146132066
51146137315
51146142564
51146147752
51146152573
51146158494
51146162217
51146167771
51146173936
51146178940
51146185105
51146190232
51146194687
51146200120
51146205308
51146210373
51146216538
51146221116
51146226365
51146232895
51146237351
51146242783
51146249924
51146254319
51146260056
51146264328
51146270432
51146276657
51146281906
51146288132
51146292710
51146297959
51146303513
51146308762
51146314316
51146319870
51146324997
51146331223
51146336350
51146341477
51146346115
51146351608
51146357895
51146363693
51146369187
51146374069
51146379257
51146385788
51146391342
51146396652
51146402817
51146408310
51146414291
51146417831
51146424118
51146429733
51146435471
51146439926
51146445053
51146450546
51146455856
51146460617
51146465317
51146471115
51146476913
51146482223
51146486557
51146492111
51146497665
51146503952
51146509384
51146513656
51146519699
51146524826
51146530136
51146535690
51146541427
51146548446
51146553451
51146558334
51146563888
51146568405
51146573593
51146579879
51146584823
51146590255
51146595382
51146600387
51146605758
51146609664
51146616500
51146622604
51146627548
51146632064
51146637252
51146641830
51146647506
51146653365
51146657760
51146664474
51146668990
51146674056
51146679550
51146684005
51146690597
51146696151
51146699813
51146706405
51146711471
51146715804
51146720870
51146726669
51146732833
51146737960
51146743087
51146748763
51146755172
51146760848
51146765975
51146771956
51146776107
51146781722
51146786178
51146791610
51146797774
51146802718
51146808761
51146812667
51146819381
51146823897
51146829696
51146835921
51146841292
51146846969
51146850936
51146856429
51146862349
51146866317
51146873885
51146878341
51146883956
51146889449
51146894393
51146898848
51146904952
51146911177
51146917281
51146922347
51146926192
51146931807
51146937056
51146942671
51146947920
51146953169
51146959151
51146963851
51146969039
51146973921
51146978987
51146985457
51146990767
51146996382
51147001326
51147007063
51147011397
51147016585
51147023665
51147028853
51147034468
51147038863
51147043745
51147049910
51147053328
51147061018
51147064863
51147070418
51147074751
51147080000
51147086287
51147091536
51147095991
51147101423
51147106428
51147113142
51147116804
51147123213
51147128645
51147134260
51147139143
51147143904
51147149702
51147154097
51147159163
51147165083
51147169294
51147175337
51147180586
51147186140
51147189558
51147194685
51147201155
51147205061
51147212263
51147216658
51147221601
51147226850
51147231550
51147238203
51147243452
51147248945
51147253706
51147258955
51147264448
51147269758
51147275068
51147280927
51147284528
51147291547
51147294050
51147300947
51147306318
51147312177
51147319440
51147324262
51147331342
51147336896
51147341962
51147348310
51147353254
51147358747
51147363264
51147368391
51147374494
51147378217
51147384321
51147390180
51147394880
51147400800
51147405378
51147411847
51147417157
51147422468
51147428876
51147434430
51147440900
51147445356
51147450238
51147456586
51147460859
51147466779
51147471845
51147477399
51147482587
51147488874
51147495404
51147500775
51147506085
51147511212
51147516278
51147521771
51147526837
51147532147
51147537274
51147542157
51147547101
51147551984
51147557416
51147563397
51147569440
51147574323
51147579572
51147585004
51147589520
51147594098
51147600262
51147605573
51147610883
51147614850
51147620709
51147625897
51147631451
51147637799
51147641705
51147648968
51147653729
51147657818
51147664410
51147668072
51147675030
51147680096
51147685101
51147690411
51147695904
51147700238
51147705975
51147711224
51147716412
51147721966
51147727520
51147732037
51147738446
51147742596
51147748333
51147754620
51147758953
51147764630
51147769146
51147774334
51147781170
51147785260
51147791790
51147797283
51147802227
51147806927
51147813458
51147818280
51147824566
51147829632
51147834820
51147840252
51147845196
51147850994
51147856671
51147860882
51147867352
51147872418
51147877361
51147882732
51147888470
51147893475
51147899395
51147904156
51147909832
51147914776
51147919903
51147925152
51147930157
51147935100
51147940472
51147946270
51147951580
51147956768
51147961956
51147967083
51147972088
51147977398
51147981792
51147986431
51147992290
51147998089
51148003704
51148008648
51148013408
51148019268
51148023784
51148029583
51148035259
51148041301
51148046856
51148050762
51148057415
51148062786
51148066509
51148073955
51148080364
51148086040
51148090740
51148095623
51148100749
51148105815
51148112041
51148116863
51148122234
51148126140
51148131450
51148137493
51148143657
51148150310
51148154888
51148160564
51148164775
51148169963
51148174846
51148179973
51148186382
51148192424
51148196574
51148202373
51148207683
51148212321
51148217570
51148223186
51148227519
51148234050
51148239055
51148244914
51148249431
51148254985
51148260051
51148265666
51148271525
51148277507
51148281718
51148287456
51148292155
51148299296
51148303752
51148309367
51148314738
51148320903
51148326457
51148330912
51148336833
51148342997
51148347941
51148352885
51148358989
51148363627
51148369242
51148374980
51148380168
51148386271
51148390238
51148395365
51148401652
51148406291
51148412211
51148416789
51148421855
51148428202
51148433756
51148439494
51148444865
51148449992
51148455241
51148460368
51148465556
51148468913
51148476786
51148480936
51148487101
51148492289
51148496745
51148502177
51148507853
51148512980
51148519266
51148524515
51148529948
51148535807
51148540934
51148547587
51148552470
51148557902
51148562723
51148568339
51148573588
51148577067
51148584696
51148589945
51148594034
51148599405
51148604838
51148609110
51148614237
51148620768
51148625650
51148631571
51148636393
51148641886
51148646952
51148653177
51148658304
51148663614
51148669352
51148674234
51148679605
51148685526
51148689249
51148696268
51148700846
51148706461
51148711710
51148717020
51148721842
51148725504
51148732401
51148737955
51148742960
51148748392
51148752786
51148759134
51148763345
51148769449
51148774027
51148780313
51148785867
51148790018
51148795389
51148800882
51148807047
51148812845
51148817606
51148822671
51148828104
51148832925
51148838663
51148843484
51148849893
51148854532
51148859048
51148864541
51148870706
51148874490
51148880899
51148886819
51148891824
51148897195
51148903665
51148908426
51148913980
51148920083
51148924417
51148929605
51148934854
51148940347
51148946450
51148950967
51148956521
51148962197
51148967202
51148972695
51148978372
51148983621
51148988748
51148994058
51148999673
51149004739
51149010232
51149015786
51149020364
51149026406
51149031777
51149036965
51149043008
51149047341
51149053567
51149059609
51149064675
51149069924
51149076272
51149081155
51149086160
51149093057
51149097634
51149103493
51149109292
51149114541
51149120034
51149125405
51149131264
51149136269
51149141823
51149146950
51149152505
51149157937
51149164834
51149170144
51149175149
51149181618
51149186623
51149192421
51149199929
51149204873
51149209816
51149216042
51149220009
51149225014
51149230141
51149236000
51149241738
51149247841
51149252114
51149257668
51149261696
51149267434
51149272988
51149278969
51149284706
51149290566
51149296364
51149302284
51149307717
51149314003
51149317848
51149323830
51149329750
51149333412
51149340126
51149344399
51149350563
51149355019
51149360390
51149366005
51149370277
51149376564
51149381264
51149386574
51149391457
51149398293
51149402748
51149408424
51149413612
51149419350
51149425148
51149430702
51149435707
51149441078
51149446937
51149452492
51149457802
51149462746
51149468361
51149473305
51149479042
51149484596
51149490272
51149495460
51149501137
51149506080
51149512306
51149516517
51149522438
51149527137
51149532631
51149538917
51149543617
51149548561
51149553993
51149559242
51149565589
51149570594
51149576637
51149582191
51149588050
51149593727
51149597938
51149604835
51149610816
51149615882
51149620826
51149625465
51149631446
51149638038
51149643714
51149647315
51149652503
51149658546
51149662330
51149668739
51149674476
51149679603
51149685828
51149690528
51149696876
51149701392
51149707862
51149713660
51149718848
51149724891
51149729285
51149734779
51149740028
51149745154
51149751685
51149756568
51149761085
51149766883
51149771461
51149776649
51149781836
51149786841
51149792029
51149796607
51149801429
51149807349
51149811988
51149816382
51149822303
51149827857
51149832373
51149837561
51149841590
51149847205
51149853247
51149856787
51149864295
51149869117
51149874243
51149878028
51149883704
51149889685
51149895117
51149899451
51149905066
51149910254
51149914282
51149920630
51149925574
51149929602
51149935462
51149941687
51149946936
51149950476
51149957129
51149962500
51149967566
51149974585
51149979712
51149985449
51149989539
51149994788
51150000342
51150005713
51150011267
51150017187
51150022436
51150027380
51150032446
51150037451
51150043616
51150049231
51150055334
51150060644
51150066138
51150070715
51150076697
51150083227
51150087866
51150094092
51150099096
51150104651
51150110144
51150113928
51150120398
51150126318
51150131506
51150137121
51150142126
51150147863
51150151953
51150158483
51150164221
51150168127
51150175146
51150180517
51150186315
51150193029
51150197241
51150202734
51150206762
51150212805
51150217748
51150222936
51150229650
51150234960
51150239416
51150244665
51150249670
51150255224
51150260412
51150265905
51150271703
51150276403
51150281896
51150287389
51150292699
51150296606
51150304540
51150309362
51150314855
51150320531
51150325719
51150330297
51150334936
51150340795
51150346593
51150352575
51150357397
51150363134
51150368200
51150372899
51150378515
51150384496
51150389989
51150395177
51150401403
51150405492
51150412023
51150417333
51150423131
51150427953
51150433202
51150438390
51150444432
51150450597
51150455663
51150461156
51150466039
51150471471
51150477513
51150482701
51150488744
51150494420
51150498570
51150504003
51150508885
51150514867
51150520116
51150525548
51150529942
51150535130
51150541844
51150545995
51150552037
51150557591
51150563756
51150568517
51150574681
51150579198
51150584386
51150590306
51150595616
51150600926
51150604954
51150610631
51150615697
51150621312
51150626439
51150631932
51150638707
51150643101
51150648717
51150652989
51150658299
51150663853
51150669896
51150676793
51150681737
51150686497
51150692112
51150697361
51150701268
51150706517
51150712925
51150718419
51150723912
51150729588
51150735081
51150738987
51150744419
51150751866
51150754673
51150761937
51150767063
51150771580
51150776646
51150782261
51150787266
51150792637
51150798191
51150802342
51150808689
51150813755
51150819126
51150826023
51150832005
51150836765
51150841526
51150846775
51150852207
51150857884
51150864292
51150869846
51150875156
51150880222
51150885288
51150890842
51150896397
51150900974
51150906406
51150912693
51150917759
51150922642
51150928135
51150932407
51150937900
51150943821
51150949192
51150954258
51150958286
51150963840
51150968845
51150975193
51150980625
51150986606
51150992588
51150997287
51151002292
51151008640
51151014255
51151020420
51151025974
51151030491
51151036167
51151041355
51151047458
51151051731
51151058506
51151063877
51151068271
51151073764
51151079685
51151084751
51151089511
51151094638
51151100681
51151105197
51151111301
51151116123
51151121189
51151127963
51151133884
51151139255
51151145175
51151150913
51151168796
51151173740
51151178378
51151184665
51151189548
51151195651
51151200473
51151206088
51151212314
51151216830
51151223544
51151229648
51151234958
51151239963
51151244906
51151250705
51151255404
51151260654
51151266818
51151272067
51151277865
51151283114
51151289035
51151294040
51151298251
51151305209
51151310153
51151315890
51151320651
51151326388
51151331881
51151335971
51151343844
51151349826
51151355563
51151360446
51151364291
51151370394
51151376437
51151381930
51151387973
51151391696
51151398348
51151402438
51151407992
51151413546
51151420016
51151424655
51151431063
51151435092
51151440829
51151445651
51151451693
51151457613
51151462496
51151467989
51151473727
51151477694
51151482882
51151489657
51151494967
51151501131
51151505648
51151511507
51151516329
51151521151
51151527254
51151531405
51151535982
51151541231
51151546114
51151550875
51151556002
51151562227
51151567049
51151571993
51151577669
51151581820
51151586275
51151591768
51151598238
51151602266
51151607760
51151611788
51151617220
51151622042
51151627474
51151633821
51151638338
51151643892
51151649141
51151654512
51151659151
51151664034
51151670442
51151674959
51151680391
51151684908
51151690645
51151697115
51151700655
51151706026
51151711885
51151716890
51151721712
51151726106
51151731905
51151736177
51151742342
51151747163
51151752290
51151756014
51151762300
51151766206
51151771700
51151776582
51151782076
51151787263
51151791902
51151797456
51151801790
51151807222
51151812776
51151817415
51151821565
51151828218
51151833040
51151836519
51151842805
51151848237
51151852876
51151858125
51151863313
51151867647
51151873140
51151879732
51151883149
51151890230
51151894136
51151898652
51151905061
51151910676
51151916291
51151921724
51151928193
51151932527
51151937776
51151943513
51151948579
51151953950
51151958284
51151964082
51151968537
51151973786
51151979585
51151984590
51151989350
51151994905
51151999604
51152005097
51152009248
51152014497
51152020722
51152027131
51152031159
51152038056
51152042512
51152048127
51152052644
51152057954
51152064301
51152068147
51152074067
51152078889
51152084443
51152089936
51152094636
51152100739
51152105622
51152111298
51152117524
51152122468
51152127717
51152132783
51152139313
51152143525
51152148896
51152154938
51152160615
51152165070
51152170807
51152175995
51152182160
51152187836
51152193451
51152198334
51152204010
51152209259
51152215424
51152219819
51152226166
51152231293
51152236542
51152240204
51152246857
51152251557
51152258087
51152262787
51152268524
51152274933
51152279022
51152285370
51152292145
51152297516
51152302399
51152307892
51152313263
51152318573
51152322174
51152329559
51152335419
51152340668
51152345795
51152350433
51152357391
51152362518
51152368866
51152373444
51152378632
51152384186
51152388885
51152394989
51152399750
51152405365
51152410919
51152416534
51152421112
51152425323
51152431244
51152438934
51152443756
51152449127
51152454620
51152459808
51152466034
51152470428
51152476043
51152481048
51152486114
51152491852
51152497223
51152501739
51152506805
51152513031
51152517547
51152523101
51152529266
51152534881
51152539947
51152545440
51152551300
51152555633
51152561431
51152566009
51152571929
51152576446
51152581939
51152585723
51152592315
51152596588
51152602447
51152607452
51152611663
51152617156
51152622466
51152627410
51152632903
51152637176
51152642669
51152647613
51152653350
51152657439
51152663543
51152668060
51152674712
51152678863
51152684112
51152690215
51152696380
51152701568
51152706512
51152711761
51152717620
51152722076
51152728057
51152733001
51152738311
51152744170
51152749541
51152753997
51152760161
51152766082
51152770049
51152775664
51152781096
51152785918
51152792571
51152797027
51152803252
51152807891
51152813628
51152819182
51152824981
51152830352
51152836089
51152840117
51152847258
51152849822
51152857451
51152863860
51152868621
51152873564
51152878447
51152884673
51152890837
51152895964
51152901885
51152905486
51152913481
51152918364
51152924162
51152928435
51152933928
51152939787
51152944121
51152951628
51152956328
51152962492
51152968291
51152973235
51152977873
51152983183
51152988371
51152994109
51152998259
51153003935
51153008147
51153012846
51153018584
51153025603
51153031279
51153035795
51153039885
51153045500
51153050749
51153056120
51153062163
51153065947
51153072050
51153076750
51153081755
51153087187
51153091520
51153096464
51153101896
51153108671
51153114347
51153120268
51153126860
51153131193
51153137236
51153142302
51153148344
51153153532
51153159758
51153166288
51153172148
51153177153
51153182524
51153188261
51153193144
51153198820
51153204435
51153207060
51153214933
51153221159
51153225797
51153232145
51153237150
51153242155
51153246488
51153253446
51153257902
51153263944
51153269132
51153274870
51153279935
51153285490
51153290922
51153295377
51153301298
51153305448
51153310758
51153315946
51153323087
51153328214
51153332731
51153337797
51153342924
51153348356
51153353727
51153360135
51153365445
51153370328
51153375089
51153380643
51153385343
51153390592
51153397550
51153402799
51153407438
51153411710
51153417020
51153422818
51153426969
51153434110
51153438138
51153444669
51153449796
51153454373
51153458829
51153464566
51153470731
51153475736
51153480435
51153485806
51153490872
51153495389
51153501187
51153506803
51153513211
51153518826
51153522366
51153529385
51153534390
51153540128
51153546780
51153552457
51153556851
51153562100
51153567410
51153572781
51153577359
51153583829
51153588162
51153593228
51153598477
51153603970
51153608914
51153613126
51153618680
51153624112
51153629788
51153633267
51153639187
51153644253
51153649869
51153653348
51153660245
51153663846
51153669095
51153674588
51153680325
51153684842
51153689969
51153695767
51153700772
51153706631
51153711026
51153716092
51153722195
51153727200
51153732022
51153737881
51153742092
51153747708
51153753323
51153758023
51153762844
51153769009
51153772366
51153779324
51153784390
51153790676
51153795254
51153801174
51153805691
51153811245
51153816494
51153823147
51153827480
51153834194
51153836758
51153844143
51153849697
51153853298
51153859890
51153864285
51153870632
51153876247
51153879909
51153887051
51153891323
51153897366
51153902370
51153907009
51153913174
51153918117
51153923611
51153929714
51153933498
51153939541
51153943386
51153950954
51153956630
51153962002
51153966884
51153972011
51153976345
51153980129
51153987636
51153992336
51153999599
51154003933
51154008754
51154014370
51154020900
51154025783
51154031887
51154036708
51154042202
51154047023
51154053127
51154058132
51154063564
51154068569
51154074489
51154078395
51154084194
51154088283
51154096095
51154101833
51154107265
51154111354
51154116237
51154121730
51154125087
51154132655
51154138027
51154143153
51154148280
51154153224
51154159572
51154164455
51154169887
51154175502
51154179835
51154185207
51154190272
51154196681
51154201686
51154206935
51154212794
51154217982
51154222804
51154227504
51154233058
51154238917
51154244105
51154248561
51154254847
51154260035
51154266505
51154270228
51154277797
51154283839
51154289637
51154294398
51154298610
51154305323
51154309657
51154315882
51154321132
51154326747
51154332545
51154337184
51154342860
51154348597
51154353663
51154359217
51154363917
51154370143
51154374293
51154379969
51154386073
51154391261
51154396998
51154401759
51154407008
51154413050
51154416651
51154424342
51154428675
51154434535
51154439967
51154445094
51154449732
51154454981
51154461390
51154466639
51154471400
51154475794
51154481776
51154486964
51154492274
51154499171
51154504053
51154508631
51154514124
51154519312
51154523035
51154528712
51154534937
51154540064
51154545923
51154550501
51154556116
51154561121
51154566797
51154572779
51154578394
51154583521
51154589930
51154595545
51154601221
51154605677
51154611841
51154618250
51154622828
51154627466
51154632715
51154638147
51154642725
51154648035
51154654138
51154660364
51154666284
51154671045
51154676294
51154682398
51154687769
51154693201
51154697778
51154703028
51154708154
51154713526
51154719202
51154723779
51154729212
51154734949
51154738672
51154745142
51154749597
51154756616
51154761072
51154766565
51154771082
51154776208
51154781702
51154786340
51154791711
51154797205
51154802576
51154807947
51154812829
51154818506
51154822900
51154827905
51154833887
51154839013
51154844507
51154849450
51154854455
51154860864
51154865991
51154872461
51154877649
51154882226
51154888574
51154893396
51154899316
51154903405
51154908776
51154915857
51154918420
51154925134
51154930993
51154936059
51154942529
51154948144
51154953332
51154959008
51154962609
51154969445
51154974694
51154980126
51154984521
51154990380
51154996362
51155000695
51155007104
51155012109
51155019006
51155025170
51155029321
51155035668
51155040551
51155045922
51155052453
51155056847
51155063073
51155067590
51155072778
51155079797
51155084496
51155090722
51155096947
51155100487
51155106774
51155113122
51155118676
51155124474
51155129174
51155135277
51155139672
51155145104
51155152123
51155156823
51155162621
51155167931
51155172997
51155178368
51155183800
51155188927
51155194481
51155200402
51155204125
51155209679
51155214623
51155219933
51155225731
51155230919
51155235314
51155239830
51155245507
51155251061
51155256249
51155261132
51155266442
51155271324
51155276634
51155282189
51155286400
51155292198
51155297814
51155303856
51155308312
51155313622
51155319786
51155323448
51155328941
51155334068
51155339684
51155345482
51155350853
51155356529
51155361229
51155367088
51155372154
51155377525
51155383202
51155387962
51155393516
51155398765
51155404991
51155409630
51155415916
51155421226
51155425926
51155431297
51155436851
51155440452
51155447532
51155452904
51155457481
51155462486
51155467796
51155472862
51155478172
51155483909
51155489158
51155494774
51155498741
51155504356
51155508323
51155513816
51155520774
51155525657
51155531456
51155536460
51155542015
51155547813
51155552635
51155558189
51155563743
51155568992
51155575096
51155580345
51155585838
51155591331
51155596824
51155602683
51155607627
51155612083
51155616660
51155621970
51155628318
51155633628
51155639793
51155645896
51155651878
51155657310
51155661216
51155668601
51155673545
51155678733
51155685081
51155690147
51155695884
51155702293
51155707603
51155712668
51155717856
51155724143
51155729087
51155734092
51155739707
51155744040
51155750144
51155754294
51155760337
51155766135
51155771201
51155777305
51155782065
51155787803
51155793357
51155798362
51155803000
51155806479
51155813254
51155819052
51155823142
51155828086
51155833396
51155838217
51155842978
51155848838
51155854453
51155860129
51155865744
51155871237
51155875693
51155880637
51155887534
51155892600
51155896201
51155902670
51155907248
51155913718
51155919150
51155924338
51155930441
51155934836
51155940634
51155945456
51155951559
51155957785
51155962912
51155968527
51155973349
51155978354
51155984457
51155990622
51155996176
51156001974
51156006613
51156013388
51156016867
51156022543
51156029379
51156035299
51156039877
51156045431
51156051291
51156056418
51156060446
51156067892
51156073080
51156078634
51156082602
51156088461
51156094320
51156099142
51156107382
51156112814
51156118124
51156122824
51156128378
51156133688
51156137167
51156144918
51156149435
51156155294
51156161642
51156166647
51156172384
51156177877
51156183615
51156188619
51156193746
51156198141
51156204061
51156209249
51156215414
51156220968
51156225607
51156230611
51156236776
51156241842
51156246847
51156252035
51156257955
51156263631
51156268636
51156273275
51156278646
51156284017
51156289815
51156293966
51156299032
51156305013
51156309713
51156315511
51156321798
51156326559
51156331197
51156336263
51156341634
51156346700
51156351827
51156357625
51156362752
51156368184
51156373128
51156378927
51156384115
51156389669
51156395406
51156400838
51156406453
51156412679
51156416707
51156423238
51156427693
51156434590
51156438130
51156444661
51156449788
51156455159
51156459615
51156464925
51156470052
51156475057
51156480245
51156485433
51156491536
51156496602
51156501851
51156506123
51156512776
51156517415
51156523030
51156529256
51156534383
51156540974
51156545308
51156550313
51156555562
51156560628
51156566670
51156570454
51156576985
51156582417
51156588216
51156593831
51156599202
51156603779
51156609639
51156616841
51156622029
51156625508
51156631734
51156636921
51156641255
51156647175
51156652363
51156658101
51156663044
51156667500
51156673359
51156677937
51156684651
51156690571
51156697041
51156700703
51156706990
51156711750
51156717976
51156723103
51156728291
51156734944
51156739216
51156745381
51156750019
51156755329
51156761738
51156768086
51156774433
51156778828
51156784382
51156789753
51156795551
51156801533
51156807270
51156811726
51156817097
51156822529
51156827595
51156833027
51156838703
51156843098
51156848713
51156853046
51156858845
51156864582
51156868732
51156875629
51156881184
51156885822
51156890827
51156895710
51156900532
51156906208
51156912311
51156916889
51156922993
51156928364
51156933613
51156938251
51156943439
51156949970
51156955097
51156962421
51156967548
51156972370
51156978779
51156983234
51156989460
51156993976
51156999714
51157004718
51157009723
51157015583
51157020710
51157026203
51157032184
51157036762
51157042072
51157047565
51157052204
51157056781
51157062335
51157067768
51157073566
51157079059
51157083698
51157088764
51157093952
51157098651
51157105304
51157109638
51157115314
51157121539
51157125140
51157132404
51157136737
51157143085
51157147479
51157152606
51157157489
51157163409
51157167743
51157172870
51157178607
51157184344
51157190387
51157194842
51157201922
51157207110
51157212787
51157217975
51157223102
51157228595
51157234027
51157240191
51157246112
51157251483
51157256793
51157261798
51157266925
51157271747
51157278399
51157283892
51157288958
51157294146
51157297564
51157304278
51157308368
51157316180
51157321917
51157327349
51157330889
51157336627
51157343157
51157345965
51157353411
51157359942
51157364581
51157369769
51157373309
51157379962
51157385577
51157391375
51157397357
51157401385
51157407794
51157412371
51157418231
51157423480
51157429156
51157433917
51157438860
51157444415
51157449603
51157454852
51157459917
51157466021
51157470476
51157475970
51157482012
51157486712
51157492022
51157497820
51157501482
51157508501
51157513079
51157520281
51157525103
51157530779
51157537066
51157541277
51157546587
51157550860
51157556353
51157563067
51157568071
51157573259
51157578569
51157584124
51157589983
51157594316
51157599932
51157604937
51157610674
51157616228
51157620317
51157627153
51157632524
51157638323
51157643755
51157648760
51157654985
51157659990
51157665361
51157670488
51157676714
51157681291
51157687395
51157692827
51157698259
51157702898
51157709734
51157714433
51157720232
51157725053
51157730852
51157736711
51157741960
51157746660
51157752275
51157757402
51157762895
51157768205
51157772905
51157778520
51157783586
51157787614
51157793474
51157800065
51157805131
51157810869
51157815996
51157822587
51157827958
51157833513
51157838884
51157843339
51157848893
51157855241
51157860490
51157866349
51157870927
51157876115
51157882524
51157887956
51157894181
51157899247
51157905046
51157910295
51157916581
51157922074
51157927018
51157932328
51157938432
51157943132
51157948747
51157954911
51157959550
51157966081
51157971818
51157977738
51157982499
51157987748
51157993302
51157998124
51158003739
51158009599
51158013993
51158021073
51158026383
51158031449
51158037492
51158041215
51158047684
51158052079
51158058305
51158064408
51158069779
51158075333
51158080704
51158085709
51158090470
51158096818
51158102311
51158106888
51158112137
51158118363
51158124039
51158129166
51158132645
51158139603
51158144974
51158150345
51158154496
51158159867
51158166764
51158171097
51158177262
51158182572
51158186173
51158194901
51158200699
51158205826
51158210831
51158214615
51158221939
51158227616
51158233475
51158237992
51158243363
51158248368
51158253433
51158259659
51158265213
51158271073
51158276993
51158282120
51158287125
51158291824
51158298172
51158304886
51158310867
51158315323
51158319962
51158326248
51158332596
51158336929
51158343582
51158349014
51158354385
51158358353
51158364151
51158370560
51158375015
51158381241
51158387039
51158392227
51158398514
51158403519
51158408157
51158412979
51158418655
51158423538
51158429214
51158434463
51158438186
51158444473
51158449112
51158455215
51158460037
51158466385
51158469803
51158475418
51158481094
51158486709
51158491287
51158497085
51158502761
51158507278
51158512466
51158516677
51158521438
51158528335
51158533462
51158539321
51158544021
51158550064
51158554641
51158560134
51158565811
51158571426
51158577102
51158583022
51158588394
51158593215
51158598708
51158603408
51158609023
51158614333
51158620010
51158623550
51158628860
51158635757
51158640701
51158645644
51158650100
51158655654
51158659560
51158665176
51158670364
51158676467
51158681228
51158686660
51158691176
51158696548
51158701064
51158707900
51158713820
51158718459
51158725295
51158730422
51158735976
51158740127
51158747023
51158753737
51158757949
51158764052
51158768325
51158774367
51158780715
51158785720
51158792434
51158797560
51158802809
51158808303
51158813308
51158818312
51158825881
51158830947
51158836440
51158841323
51158846694
51158852187
51158857802
51158862013
51158868910
51158874526
51158880263
51158884169
51158889418
51158897109
51158901381
51158907485
51158912001
51158917494
51158923903
51158928236
51158935500
51158940443
51158946425
51158950941
51158956618
51158961867
51158969313
51158974806
51158979750
51158984267
51158989943
51158994520
51159000136
51159006117
51159011549
51159015944
51159020827
51159027296
51159033156
51159039076
51159044203
51159049635
51159055372
51159059523
51159064772
51159071241
51159075636
51159081800
51159086805
51159091932
51159098219
51159101698
51159108229
51159113478
51159118544
51159123487
51159129286
51159134657
51159139601
51159144728
51159150709
51159154188
51159160597
51159165602
51159171034
51159176405
51159180067
51159186353
51159192213
51159197340
51159201978
51159207349
51159212293
51159217725
51159223768
51159229261
51159234571
51159239515
51159244764
51159250379
51159254774
51159260633
51159266126
51159270765
51159276929
51159281873
51159286207
51159293165
51159298597
51159303541
51159309278
51159314466
51159320081
51159323743
51159331006
51159334913
51159341993
51159346814
51159351636
51159356580
51159362256
51159368482
51159374158
51159379163
51159383863
51159388868
51159394605
51159397290
51159405225
51159411084
51159416822
51159422010
51159426587
51159432019
51159437879
51159443860
51159448499
51159453687
51159459424
51159463635
51159469556
51159476270
51159481397
51159486951
51159491895
51159497693
51159503308
51159508557
51159514417
51159519116
51159524670
51159528760
51159534863
51159538770
51159544202
51159550732
51159554822
51159562085
51159566052
51159571606
51159576855
51159581616
51159586621
51159592663
51159599255
51159602307
51159610180
51159616284
51159622082
51159628186
51159632885
51159638501
51159644116
51159649609
51159654553
51159660473
51159666455
51159670910
51159676037
51159681469
51159686779
51159691174
51159697094
51159702099
51159707775
51159712963
51159718640
51159722912
51159728588
51159733349
51159738720
51159745190
51159750134
51159755627
51159761120
51159766369
51159771618
51159777294
51159782848
51159787548
51159792736
51159798596
51159802319
51159809765
51159814953
51159819531
51159824535
51159830334
51159834728
51159840099
51159846386
51159851513
51159855968
51159860668
51159865673
51159871532
51159876720
51159883312
51159889355
51159894298
51159899731
51159904735
51159910351
51159915539
51159921642
51159928051
51159932506
51159938549
51159943798
51159949047
51159954784
51159961010
51159966625
51159972545
51159979015
51159983776
51159989147
51159995128
51160000499
51160005992
51160009471
51160016246
51160020641
51160026012
51160031505
51160037670
51160043529
51160047496
51160051525
51160056346
51160061107
51160067027
51160075328
51160085704
51160089732
51160094249
51160098399
51160102000
51160106151
51160109630
51160114696
51160118541
51160122997
51160127635
51160131969
51160135936
51160141856
51160146129
51160149608
51160155040
51160159068
51160163158
51160167064
51160170787
51160175731
51160179881
51160185435
51160188426
51160194835
51160199168
51160203319
51160208140
51160213328
51160217845
51160221385
51160225413
51160230357
51160234446
51160238658
51160243907
51160246959
51160252147
51160256602
51160259837
51160264964
51160268565
51160272960
51160277842
51160281443
51160285411
51160289195
51160293162
51160296397
51160300975
51160304270
51160309214
51160312998
51160317759
51160321788
51160326304
51160330699
51160334727
51160339060
51160343455
51160348399
51160352610
51160356700
51160360850
51160365061
51160369944
51160374705
51160379893
51160384348
51160388987
51160393931
51160395640
51160402964
51160407481
51160411936
51160415904
51160419871
51160424387
51160429453
51160432566
51160437632
51160443003
51160447520
51160450632
51160454722
51160460398
51160465525
51160469858
51160473704
51160478220
51160482615
51160485789
51160491221
51160496348
51160500193
51160505137
51160508677
51160512888
51160517954
51160524058
51160528879
51160532236
51160536631
51160539316
51160544565
51160549021
51160552195
51160557627
51160561838
51160566172
51160571421
51160575388
51160579966
51160584726
51160588877
51160592417
51160596689
51160601267
51160607004
51160610422
51160614450
51160618784
51160623484
51160628366
51160632883
51160636911
51160641001
51160644113
51160648508
51160653818
51160659067
51160662607
51160666635
51160671091
51160675058
51160679453
51160684091
51160688303
51160692514
51160697031
51160699716
51160705759
51160711252
51160715219
51160719858
51160724741
51160727792
51160731577
51160735788
51160740366
51160744333
51160748971
51160754404
51160757516
51160761850
51160766428
51160770639
51160776071
51160779977
51160783884
51160788278
51160791391
51160797189
51160800607
51160805124
51160810495
51160815133
51160818551
51160825937
51160829782
51160833749
51160839120
51160842416
51160847116
51160852426
51160856942
51160861215
51160865976
51160868722
51160874337
51160878122
51160883248
51160888192
51160891915
51160896005
51160900277
51160904184
51160909860
51160913644
51160918099
51160923104
51160927316
51160930734
51160935922
51160940133
51160943795
51160948007
51160953134
51160958810
51160963021
51160966927
51160970773
51160974923
51160979623
51160983834
51160986886
51160992501
51160996713
51161000985
51161005318
51161009042
51161013009
51161016549
51161021310
51161026925
51161031014
51161034798
51161038644
51161042306
51161047494
51161051949
51161056222
51161059945
51161063546
51161067330
51161070809
51161075631
51161079659
51161082467
51161087533
51161091622
51161095589
51161100045
51161103951
51161107979
51161112740
51161116585
51161121224
51161126046
51161130806
51161133919
51161138558
51161142769
51161147835
51161152413
51161156990
51161162850
51161166024
51161170235
51161174569
51161177132
51161183236
51161189095
51161193001
51161197396
51161200997
51161205269
51161211556
51161217049
51161221504
51161225655
51161229805
51161233223
51161238045
51161241890
51161246407
51161250191
51161255684
51161259529
51161263924
51161268868
51161273201
51161277657
51161282112
51161286324
51161290779
51161294502
51161298714
51161304329
51161308174
51161313484
51161317696
51161322151
51161326179
51161329903
51161333809
51161338203
51161341499
51161345772
51161351570
51161356331
51161361214
51161366035
51161370979
51161375374
51161379829
51161384224
51161389168
51161392952
51161397163
51161402839
51161406807
51161410896
51161415107
51161419624
51161424141
51161428657
51161431953
51161436897
51161441475
51161445503
51161449836
51161453682
51161457954
51161461799
51161465950
51161470710
51161475471
51161479988
51161485542
51161489692
51161494636
51161499763
51161504219
51161507698
51161511177
51161514900
51161519660
51161524177
51161528388
51161534431
51161538398
51161542976
51161547798
51161551887
51161557258
51161563606
51161572883
51161580207
51161587287
51161589240
51161600288
51161608711
51161614204
51161619453
51161627326
51161633674
51161640266
51161647040
51161649116
51161662482
51161669623
51161677680
51161684089
51161689887
51161696174
51161701728
51161710639
51161718024
51161725226
51161734504
51161742621
51161749945
51161757880
51161764777
51161773200
51161777900
51161786139
51161796637
51161802924
51161809088
51161815497
51161822211
51161827033
51161833808
51161841803
51161848090
51161857428
51161862982
51161869086
51161875556
51161883002
51161888556
51161895453
51161904547
51161910895
51161919135
51161926947
51161931158
51161941107
51161947394
51161953131
51161959967
51161966009
51161974798
51161984686
51161990240
51161997198
51162002997
51162011480
51162016729
51162023565
51162030829
51162038214
51162046454
51162052374
51162060308
51162066107
51162072515
51162080694
51162086859
51162094000
51162103887
51162111334
51162116522
51162122747
51162131292
51162137823
51162143011
51162151006
51162155462
51162163702
51162170660
51162178045
51162184881
51162189031
51162196539
51162202154
51162207037
51162213811
51162217657
51162231329
51162238348
51162243413
51162250494
51162257696
51162262639
51162268865
51162274480
51162280950
51162288640
51162295354
51162302862
51162309331
51162315374
51162324895
51162332891
51162338628
51162345159
51162354253
51162362188
51162367070
51162376226
51162380559
51162387944
51162395452
51162399724
51162406194
51162413884
51162423406
51162429204
51162435430
51162443913
51162449773
51162454473
51162461369
51162465154
51162474797
51162483342
51162490300
51162496343
51162503606
51162509587
51162515874
51162522893
51162526799
51162537907
51162545232
51162553410
51162560063
51162565739
51162571782
51162576787
51162585759
51162593022
51162600407
51162609074
51162613713
51162620610
51162628361
51162634892
51162639958
51162647343
51162657902
51162664799
51162671086
51162678959
51162685612
51162694279
51162698429
51162707829
51162714115
51162721684
51162728337
51162734867
51162742008
51162747685
51162752995
51162758854
51162765446
51162771977
51162773991
51162788578
51162794743
51162800968
51162806705
51162813419
51162820072
51162825077
51162832645
51162838383
51162843937
51162854130
51162858768
51162866337
51162872501
51162876957
51162883854
51162888614
51162895939
51162900089
51162912235
51162918644
51162924869
51162931400
51162937809
51162945377
51162951053
51162955631
51162962772
51162966617
51162976932
51162984134
51162990604
51162996280
51163001163
51163009220
51163012882
51163019290
51163026370
51163035221
51163042240
51163047794
51163055545
51163059512
51163067996
51163076907
51163081485
51163088077
51163092227
51163104922
51163111331
51163117191
51163123904
51163129031
51163136417
51163142276
51163149173
51163155154
51163160098
51163167666
51163176272
51163182071
51163188235
51163194583
51163203860
51163208621
51163215457
51163220584
51163228946
51163237124
51163244204
51163248538
51163255618
51163263491
51163269473
51163274356
51163278323
51163287905
51163294070
51163300418
51163307009
51163314578
51163319277
51163326235
51163332461
51163339175
51163344851
51163355044
51163359866
51163367434
51163375918
51163382510
51163388796
51163395937
51163400149
51163410097
51163414919
51163424746
51163430605
51163436220
51163443301
51163450381
51163455324
51163461794
51163473574
51163483278
51163489016
51163494936
51163500490
51163509096
51163515627
51163520449
51163529055
51163537355
51163545168
51163552736
51163556826
51163565676
51163571169
51163578127
51163583254
51163592470
51163601869
51163608583
51163616884
51163620973
51163630434
51163636598
51163643678
51163650697
51163656435
51163665102
51163673158
51163679811
51163686098
51163693239
51163700014
51163702211
51163712343
51163716310
51163728944
51163736513
51163743593
51163750185
51163755678
51163763917
51163770997
51163776246
51163783571
51163792726
51163800783
51163809327
51163815980
51163822450
51163829347
51163836793
51163842530
51163848878
51163857423
51163862367
51163872926
51163875367
51163887025
51163894349
51163900941
51163907533
51163914186
51163919618
51163926515
51163934144
51163944642
51163951356
51163956910
51163963319
51163971497
51163978211
51163985169
51163990540
51163998658
51164004700
51164011414
51164017701
51164025330
51164029725
51164039551
51164046082
51164053223
51164060547
51164066712
51164072938
51164079590
51164087464
51164094971
51164103150
51164108338
51164114869
51164123169
51164129883
51164138123
51164143372
51164151246
51164158387
51164164795
51164171692
51164178772
51164185608
51164191712
51164197754
51164205078
51164212281
51164219849
51164226502
51164230408
51164238159
51164243836
51164247986
51164255310
51164262512
51164268616
51164274963
51164281311
51164289673
51164294128
51164301636
51164307312
51164311707
51164319702
51164323608
51164333252
51164340515
51164346130
51164351745
51164358276
51164363342
51164368835
51164376892
51164382995
51164384887
51164395752
51164404846
51164411133
51164417114
51164422790
51164429626
51164433532
51164440796
51164446777
51164455749
51164462158
51164467895
51164475463
51164479370
51164487976
51164493469
51164499877
51164504943
51164510803
51164520690
51164526977
51164533630
51164540649
51164545532
51164552978
51164559142
51164564086
51164570922
51164575439
51164585937
51164592223
51164600219
51164606139
51164612121
51164616820
51164624145
51164630309
51164636047
51164644897
51164652038
51164658507
51164664367
51164670043
51164676574
51164685607
51164687316
51164696593
51164702941
51164711913
51164720336
51164725402
51164731994
51164735839
51164745055
51164750975
51164757262
51164762084
51164769469
51164778441
51164785033
51164790526
51164797545
51164803343
51164810179
51164815917
51164822569
51164829344
51164839415
51164846434
51164853087
51164859007
51164864745
51164870848
51164877379
51164883238
51164890562
51164896849
51164902098
51164912169
51164918761
51164923704
51164931883
51164937132
51164943175
51164948973
51164955992
51164962767
51164972166
51164976988
51164982969
51164989683
51164995421
51165002684
51165008665
51165014525
51165021055
51165025999
51165033995
51165041441
51165047850
51165055296
51165060789
51165065916
51165072630
51165078123
51165084227
51165092588
51165101744
51165107908
51165112974
51165121885
51165127317
51165133238
51165138792
51165145994
51165149900
51165159422
51165165830
51165172971
51165179258
51165185056
51165192319
51165196287
51165202756
51165209348
51165217405
51165224485
51165231382
51165239561
51165244871
51165251401
51165258542
51165266660
51165271238
51165280576
51165290769
51165296872
51165303220
51165309690
51165316037
51165322995
51165327817
51165334653
51165342832
51165349485
51165359006
51165365476
51165370175
51165379148
51165384946
51165391538
51165397885
51165406552
51165413266
51165422177
51165428830
51165434079
51165441098
51165446774
51165454404
51165461789
51165467831
51165476987
51165483884
51165489743
51165497861
51165504208
51165509824
51165516659
51165522336
51165533932
51165540463
51165548154
51165552548
51165561642
51165567990
51165575070
51165581112
51165590878
51165598080
51165605587
51165615353
51165622250
51165630612
51165638119
51165645321
51165652340
51165660946
51165665829
51165674130
51165681210
51165687741
51165697628
51165703732
51165708126
51165717587
51165723934
51165732968
51165738400
51165744442
51165750240
51165759579
51165764401
51165770504
51165775082
51165784420
51165792110
51165798397
51165806942
51165812801
51165820309
51165826656
51165832699
51165838924
51165849178
51165855953
51165864559
51165869747
51165877010
51165885372
51165891903
51165897152
51165904476
51165909054
51165920955
51165927669
51165933956
51165940731
51165945675
51165955135
51165960872
51165966915
51165973506
51165982601
51165989864
51165997859
51166005489
51166010982
51166019527
51166025997
51166032771
51166038509
51166042781
51166053035
51166060298
51166065425
51166073238
51166080928
51166087215
51166093745
51166099788
51166107173
51166111568
51166122737
51166130000
51166135615
51166143184
51166149043
51166157161
51166164851
51166171321
51166177913
51166183894
51166192439
51166197383
51166207515
51166213984
51166221186
51166226680
51166234553
51166240474
51166247065
51166254390
51166262751
51166268428
51166274043
51166279536
51166285578
51166293757
51166300227
51166307551
51166313960
51166319148
51166328303
51166334223
51166340693
51166347041
51166352656
51166358637
51166365046
51166369990
51166376276
51166384211
51166391047
51166397028
51166405634
51166412409
51166417841
51166424250
51166429072
51166435725
51166442194
51166450617
51166458857
51166464655
51166470392
51166476008
51166483088
51166486750
51166496210
51166502192
51166510614
51166516718
51166523676
51166530146
51166535212
51166542841
51166548822
51166554804
51166561579
51166563410
51166577143
51166586298
51166592584
51166598749
51166604181
51166610956
51166615106
51166622309
51166628168
51166635919
51166645563
51166652277
51166657404
51166663080
51166670526
51166676630
51166681940
51166687433
51166693597
51166704156
51166710626
51166717035
51166723627
51166727533
51166735040
51166741510
51166747308
51166754327
51166763788
51166769891
51166777032
51166782586
51166791559
51166797906
51166802789
51166808648
51166813653
51166822625
51166828302
51166835443
51166839898
51166849603
51166855279
51166859735
51166866510
51166873773
51166878472
51166884515
51166894830
51166902947
51166910760
51166917413
51166922540
51166930169
51166935845
51166941888
51166947869
51166955560
51166963128
51166970818
51166975823
51166984673
51166988580
51166996148
51166999871
51167007684
51167013787
51167022393
51167029595
51167036431
51167041741
51167047600
51167055840
51167061822
51167067071
51167072808
51167078545
51167088189
51167094536
51167100029
51167107110
51167112847
51167118523
51167124138
51167130791
51167137810
51167141716
51167152397
51167156914
51167163994
51167171135
51167177544
51167184563
51167188652
51167196160
51167202019
51167209404
51167217278
51167223076
51167230644
51167236382
51167241692
51167248406
51167254753
51167260185
51167266045
51167273491
51167282890
51167288811
51167295586
51167301018
51167306572
51167312675
51167318535
51167325554
51167329582
51167340202
51167345024
51167355095
51167360893
51167365104
51167372246
51167376152
51167383232
51167391716
51167396110
51167403679
51167412223
51167418327
51167424675
51167433403
51167438224
51167449394
51167455986
51167466789
51167473564
51167481681
51167487785
51167494438
51167501090
51167507072
51167514152
51167518485
51167528983
51167535758
51167541923
51167551139
51167556632
51167563773
51167570365
51167576163
51167582389
51167593070
51167599723
51167605888
51167615043
51167621574
51167626212
51167634574
51167640372
51167646659
51167653495
51167663871
51167671073
51167677360
51167684684
51167689444
51167696891
51167702506
51167708732
51167719107
51167725821
51167733451
51167740714
51167746024
51167753836
51167761039
51167766837
51167773307
51167780753
51167790946
51167796622
51167803641
51167810294
51167817435
51167823477
51167829276
51167835440
51167844534
51167851492
51167858328
51167865347
51167872366
51167876761
51167886526
51167892081
51167898917
51167908682
51167915884
51167923270
51167930716
51167937918
51167944266
51167950613
51167957510
51167965506
51167970266
51167979788
51167987906
51167994375
51168000906
51168010061
51168016226
51168023733
51168030203
51168036978
51168044851
51168052481
51168059500
51168066641
51168072866
51168080191
51168087515
51168089590
51168100942
51168107290
51168112661
51168121999
51168127432
51168133962
51168137808
51168144399
51168153188
51168156667
51168164114
51168168203
51168178823
51168185110
51168191152
51168198171
51168203970
51168211538
51168215444
51168223501
51168229299
51168235097
51168242910
51168250234
51168258108
51168264211
51168269155
51168276052
51168282033
51168287587
51168293386
51168299367
51168308706
51168315175
51168321279
51168326894
51168334462
51168340322
51168345937
51168353749
51168359120
51168367116
51168374684
51168379689
51168386769
51168394032
51168399098
51168404958
51168411366
51168418019
51168419911
51168431081
51168439931
51168446034
51168452138
51168460622
51168469106
51168474965
51168481496
51168492116
51168498463
51168507069
51168513295
51168520192
51168524647
51168528554
51168538746
51168542958
51168553883
51168561146
51168570973
51168576893
51168581715
51168588673
51168593800
51168601613
51168609913
51168617237
51168623890
51168633351
51168639454
51168643910
51168651966
51168659169
51168664845
51168671437
51168681141
51168688038
51168694081
51168701222
51168709034
51168714039
51168720509
51168728565
51168734669
51168743519
51168750050
51168756214
51168762745
51168770374
51168775318
51168782642
51168788319
51168796802
51168805836
51168812305
51168818043
51168825245
51168830494
51168838245
51168842396
51168852344
51168858753
51168865406
51168874622
51168880420
51168886646
51168892627
51168900013
51168906299
51168914295
51168918384
51168929187
51168937610
51168943347
51168949329
51168955677
51168962085
51168970325
51168975452
51168984302
51168990161
51168996875
51169003528
51169012927
51169018726
51169024341
51169031055
51169038623
51169044971
51169054248
51169060779
51169067371
51169074451
51169080859
51169088733
51169095447
51169101428
51169108020
51169114245
51169123706
51169130115
51169136584
51169144153
51169151355
51169158801
51169164416
51169170764
51169178821
51169185717
51169194201
51169200244
51169205859
51169213122
51169218921
51169226611
51169233142
51169239062
51169248095
51169253955
51169260363
51169267871
51169274768
51169276904
51169286242
51169290576
51169300463
51169307299
51169314379
51169321459
51169329333
51169334643
51169342028
51169349902
51169353930
51169364855
51169371935
51169378527
51169385790
51169393053
51169398302
51169406115
51169411852
51169417895
51169426256
51169432543
51169440172
51169447558
51169454333
51169461535
51169468004
51169474047
51169480455
51169489489
51169499254
51169504503
51169513781
51169519274
51169526171
51169531420
51169539354
51169546190
51169554186
51169559313
51169569322
51169575548
51169581285
51169589281
51169594652
51169602648
51169609239
51169619554
51169626817
51169634081
51169642259
51169649889
51169655626
51169662035
51169670824
51169677965
51169685899
51169695970
51169703294
51169710680
51169716234
51169723985
51169728013
51169736497
51169742174
51169748704
51169758348
51169764512
51169771165
51169777269
51169783067
51169790818
51169796617
51169802720
51169811265
51169822190
51169828416
51169837327
51169843492
51169850938
51169856492
51169862229
51169868516
51169875718
51169885728
51169892686
51169898972
51169905625
51169913011
51169917344
51169925157
51169929490
51169940720
51169948289
51169956284
51169962388
51169966965
51169974961
51169979172
51169988572
51169994981
51170002732
51170009751
51170017380
51170023667
51170029099
51170036362
51170042649
51170050644
51170059556
51170066208
51170073349
51170081833
51170088059
51170094956
51170103684
51170109726
51170115158
51170119553
51170130051
51170136887
51170145127
51170151413
51170157028
51170167954
51170174790
51170182358
51170188706
51170197251
51170202439
51170212082
51170219284
51170225388
51170231857
51170239182
51170246323
51170250534
51170261215
51170268478
51170273972
51170280991
51170287765
51170293442
51170299301
51170304916
51170311996
51170318283
51170326095
51170332870
51170338608
51170344406
51170351242
51170357773
51170364181
51170370102
51170375778
51170383224
51170390060
51170396042
51170403793
51170410141
51170416977
51170423202
51170429306
51170435958
51170440048
51170450119
51170454147
51170463485
51170469528
51170473861
51170481124
51170484970
51170491928
51170500656
51170509322
51170516464
51170524581
51170532577
51170537154
51170544479
51170553512
51170561202
51170565963
51170576949
51170584762
51170590377
51170596786
51170603194
51170610702
51170617538
51170623946
51170628402
51170640059
51170647323
51170654464
51170660628
51170666671
51170673751
51170680648
51170688277
51170692672
51170702498
51170709822
51170717452
51170724654
51170731734
51170739485
51170746016
51170751021
51170757491
51170764327
51170774459
51170780257
51170786727
51170794356
51170799605
51170803694
51170813460
51170821333
51170829634
51170836165
51170843123
51170850508
51170858076
51170865767
51170869856
51170877974
51170883589
51170889754
51170899397
51170906477
51170912886
51170918745
51170926863
51170931196
51170941023
51170947188
51170954268
51170964460
51170969526
51170978804
51170983931
51170991194
51170997725
51171003645
51171010237
51171018537
51171025618
51171032331
51171038679
51171046125
51171051435
51171058882
51171066511
51171070722
51171081159
51171085493
51171095991
51171102033
51171107893
51171114912
51171120283
51171128156
51171131879
51171141157
51171150556
51171156721
51171164228
51171169172
51171177412
51171184064
51171189985
51171197919
51171203168
51171212629
51171219404
51171227033
51171231489
51171239057
51171245893
51171250959
51171257245
51171264386
51171273786
51171281842
51171287946
51171293317
51171301435
51171307965
51171313886
51171319623
51171327924
51171334272
51171341718
51171348188
51171353498
51171360761
51171368573
51171374494
51171380719
51171390851
51171397260
51171403974
51171410443
51171417523
51171424298
51171431378
51171437116
51171443524
51171452130
51171459515
51171467023
51171476178
51171481244
51171488324
51171493573
51171501446
51171509625
51171517132
51171526959
51171533612
51171539471
51171546002
51171553204
51171558575
51171566144
51171570416
51171581463
51171589886
51171595990
51171602215
51171610150
51171616192
51171623089
51171627545
51171631695
51171642865
51171651226
51171658001
51171664837
51171673138
51171678692
51171686260
51171692669
51171699322
51171708477
51171716107
51171724163
51171730145
51171736736
51171743206
51171750591
51171758282
51171764873
51171771282
51171778912
51171786968
51171789287
51171800274
51171806805
51171813274
51171820720
51171826275
51171834881
51171841656
51171851360
51171858562
51171866131
51171872112
51171879619
51171885784
51171892681
51171899456
51171907024
51171911846
51171921550
51171928875
51171935039
51171943035
51171948528
51171957012
51171963848
51171970500
51171975933
51171984661
51171991313
51171997905
51172005412
51172013347
51172019878
51172028056
51172032573
51172039165
51172047893
51172053874
51172062358
51172068584
51172077129
51172083842
51172090617
51172098125
51172102641
51172112346
51172118815
51172126140
51172131511
51172138713
51172148845
51172155436
51172162150
51172167460
51172171733
51172182170
51172188762
51172194316
51172201640
51172208781
51172214640
51172221171
51172227092
51172233805
51172239604
51172244853
51172250712
51172257121
51172266459
51172271342
51172278544
51172284464
51172292033
51172298075
51172304484
51172309306
51172315287
51172324992
51172332072
51172337016
51172345683
51172350016
51172357340
51172361491
51172367350
51172374369
51172380411
51172388346
51172396097
51172401774
51172407694
51172413126
51172420450
51172424296
51172431132
51172437845
51172446573
51172453837
51172461161
51172467020
51172472818
51172479410
51172486185
51172490946
51172498880
51172504923
51172512613
51172518900
51172524759
51172532328
51172539469
51172544901
51172550821
51172556986
51172562052
51172569986
51172580545
51172585123
51172594217
51172600198
51172605142
51172612650
51172616556
51172623087
51172629861
51172639566
51172646890
51172652872
51172660928
