51121502124
51121509082
51121514758
51121519519
51121525805
51121531115
51121537585
51121543505
51121549243
51121554309
51121561511
51121567675
51121573474
51121578967
51121584033
51121589221
51121596301
51121603625
51121608935
51121616137
51121623278
51121629870
51121636523
51121644824
51121650012
51121657275
51121663012
51121669604
51121677355
51121683398
51121691271
51121697924
51121702685
51121710375
51121715990
51121724718
51121733019
51121741381
51121749621
51121756945
51121765124
51121771105
51121778673
51121784044
51121791552
51121798632
51121805651
51121812548
51121821825
51121827990
51121835497
51121845324
51121851854
51121859117
51121868029
51121874254
51121881334
51121890062
51121895983
51121905992
51121912157
51121919908
51121926500
51121932176
51121941271
51121951341
51121956590
51121965379
51121971788
51121979173
51121986375
51121994676
51122001817
51122009691
51122016405
51122024522
51122031419
51122039049
51122046129
51122052965
51122061571
51122067186
51122074693
51122083787
51122092210
51122098558
51122106553
51122112535
51122119920
51122126146
51122135606
51122142564
51122150193
51122158006
51122165879
51122171861
51122181077
51122188890
51122195603
51122204087
51122210618
51122217698
51122225022
51122231736
51122240037
51122247117
51122254319
51122261399
51122268296
51122276475
51122286179
51122293137
51122298630
51122309128
51122316331
51122324143
51122332383
51122341538
51122349778
51122356675
51122364976
51122372849
51122378342
51122387192
51122395554
51122403489
51122411240
51122419358
51122426804
51122433945
51122443467
51122454514
51122462021
51122470566
51122476486
51122481919
51122492478
51122501938
51122508713
51122518051
51122527268
51122533127
51122542282
51122550705
51122558579
51122566269
51122573044
51122584579
51122591843
51122600510
51122607834
51122615097
51122622421
51122632919
51122641037
51122647140
51122656296
51122664902
51122671249
51122679733
51122687423
51122694748
51122703293
51122712143
51122719833
51122726791
51122731979
51122743331
51122751449
51122758773
51122767196
51122774459
51122782699
51122789779
51122798202
51122804916
51122813094
51122824508
51122832870
51122840194
51122849227
51122856246
51122863754
51122869674
51122880050
51122888290
51122896651
51122907088
51122915328
51122923080
51122930465
51122938460
51122946944
51122956710
51122963424
51122971724
51122978377
51122986800
51122995467
51123003219
51123009932
51123019454
51123029158
51123036666
51123042830
51123050765
51123059493
51123065413
51123071822
51123082930
51123090071
51123098128
51123104231
51123112593
51123119185
51123129317
51123136519
51123146773
51123154829
51123162764
51123171553
51123179243
51123189131
51123196272
51123207075
51123213789
51123223433
51123230391
51123238753
51123244734
51123254988
51123262556
51123270552
51123277510
51123285383
51123292036
51123300825
51123307417
51123316999
51123324568
51123332685
51123341597
51123348127
51123357038
51123364180
51123371626
51123379621
51123386335
51123396467
51123403730
51123411848
51123419477
51123426557
51123433515
51123441084
51123448469
51123456220
51123463728
51123470747
51123477644
51123485395
51123492719
51123501813
51123509565
51123518476
51123525617
51123533185
51123540510
51123548078
51123557538
51123566999
51123576703
51123584272
51123591718
51123599286
51123606977
51123615705
51123623578
51123631208
51123640607
51123647687
51123655377
51123665753
51123673444
51123682050
51123688825
51123697553
51123704267
51123714154
51123722394
51123732343
51123738324
51123747174
51123753217
51123760846
51123766522
51123778058
51123785260
51123795087
51123801312
51123807782
51123815167
51123822430
51123829571
51123834576
51123839947
51123845563
51123852948
51123858014
51123864850
51123871075
51123877240
51123883648
51123890179
51123897320
51123905011
51123910748
51123916790
51123923199
51123928692
51123934430
51123940838
51123946148
51123952069
51123957440
51123963482
51123968853
51123973980
51123980877
51123986798
51123993511
51123999371
51124005657
51124011212
51124016033
51124021832
51124028301
51124032513
51124038860
51124043438
51124048626
51124055035
51124061810
51124067791
51124072613
51124078350
51124084270
51124088848
51124094463
51124099468
51124106304
51124110882
51124117046
51124122295
51124127239
51124133037
51124137981
51124144451
51124149273
51124154278
51124159893
51124165020
51124171734
51124177166
51124183086
51124187298
51124193584
51124198284
51124204815
51124212383
51124217998
51124222454
51124227336
51124233196
51124239360
51124245586
51124251689
51124257549
51124262371
51124268535
51124275188
51124280132
51124287029
51124291301
51124296672
51124301372
51124306621
51124310832
51124316448
51124322429
51124328960
51124333659
51124338481
51124343303
51124349040
51124353435
51124359355
51124365581
51124369853
51124374187
51124379802
51124386455
51124391460
51124396587
51124402385
51124409038
51124415385
51124421611
51124425944
51124433146
51124438029
51124443828
51124451945
51124457683
51124462993
51124468730
51124474467
51124479655
51124485881
51124491374
51124497416
51124503703
51124508281
51124513530
51124519999
51124524455
51124530253
51124535197
51124540934
51124547038
51124552714
51124557597
51124562297
51124568827
51124574504
51124579142
51124585490
51124591837
51124596720
51124601969
51124607523
51124613871
51124619120
51124623576
51124629923
51124636637
51124642191
51124647929
51124653605
51124658488
51124664042
51124669535
51124674174
51124679789
51124686320
51124691264
51124697184
51124703104
51124708781
51124714457
51124721171
51124725992
51124731913
51124735941
51124742228
51124748881
51124754313
51124759073
51124765604
51124770365
51124776102
51124781717
51124786722
51124791483
51124798014
51124803995
51124808390
51124813822
51124820292
51124825357
51124830545
51124835550
51124842142
51124846048
51124852518
51124857279
51124862711
51124868448
51124874185
51124879679
51124884928
51124890787
51124895792
51124901895
51124906900
51124912332
51124918070
51124923563
51124928507
51124933511
51124939493
51124944559
51124949014
51124955118
51124961099
51124966165
51124972147
51124977212
51124982400
51124987955
51124992776
51124998819
51125004373
51125009073
51125014749
51125018655
51125024698
51125028848
51125035379
51125039407
51125045877
51125050271
51125055032
51125058450
51125065408
51125070840
51125075601
51125081155
51125086709
51125091226
51125096109
51125099771
51125106240
51125111856
51125116861
51125121377
51125127175
51125132486
51125136392
51125142739
51125147988
51125152505
51125158486
51125162759
51125168557
51125173562
51125178628
51125183694
51125189675
51125194314
51125199136
51125203347
51125209023
51125215493
51125219644
51125226846
51125231484
51125235879
51125241006
51125246682
51125252175
51125258096
51125262917
51125267434
51125272378
51125278054
51125284096
51125290505
51125295815
51125302224
51125308266
51125314248
51125319070
51125325295
51125331399
51125336831
51125342690
51125347207
51125353127
51125359780
51125365334
51125370278
51125376503
51125381997
51125387795
51125393044
51125398598
51125404885
51125410195
51125414284
51125420266
51125427346
51125432778
51125438149
51125442787
51125449501
51125454384
51125460243
51125465920
51125470375
51125476601
51125482155
51125487709
51125492897
51125498757
51125503334
51125510475
51125515480
51125521584
51125527504
51125532448
51125538734
51125543922
51125550453
51125554970
51125560646
51125564919
51125571327
51125577553
51125582680
51125588478
51125594398
51125599586
51125606422
51125611671
51125615333
51125621498
51125627662
51125633278
51125637855
51125645118
51125650856
51125656471
51125662147
51125668678
51125675087
51125681373
51125686866
51125692726
51125698829
51125703712
51125709327
51125715553
51125721046
51125726844
51125731727
51125737281
51125741920
51125748085
51125754554
51125758705
51125764564
51125769874
51125775367
51125781776
51125786048
51125792640
51125797279
51125802284
51125808509
51125813209
51125819557
51125827125
51125832679
51125837440
51125842323
51125848121
51125854041
51125859046
51125864967
51125872047
51125876868
51125881873
51125887611
51125893226
51125898780
51125904822
51125910621
51125915443
51125920203
51125925879
51125932593
51125937354
51125942481
51125948157
51125954444
51125960059
51125965552
51125970923
51125976661
51125981360
51125987708
51125993750
51126001685
51126007178
51126012854
51126017676
51126023291
51126029700
51126036780
51126041846
51126047339
51126052710
51126058936
51126063391
51126068640
51126074317
51126080176
51126085242
51126091284
51126096167
51126101965
51126107581
51126113196
51126119483
51126125586
51126130957
51126137061
51126141943
51126148169
51126154700
51126159521
51126164465
51126170325
51126175574
51126181189
51126186377
51126192847
51126197790
51126202734
51126209509
51126214392
51126221045
51126225928
51126230810
51126236853
51126240820
51126246496
51126251501
51126256811
51126261938
51126267065
51126272253
51126276098
51126282263
51126288000
51126294958
51126299780
51126303625
51126310095
51126314550
51126320959
51126325720
51126331457
51126336462
51126341772
51126346716
51126352636
51126357519
51126363745
51126369299
51126373266
51126378637
51126384069
51126389562
51126395056
51126401464
51126406347
51126412145
51126416113
51126421911
51126426977
51126432836
51126438390
51126443273
51126448095
51126453527
51126458288
51126462743
51126469274
51126474096
51126479589
51126486059
51126490514
51126496618
51126502477
51126506994
51126512487
51126518590
51126522619
51126528661
51126534459
51126540197
51126545934
51126550878
51126555333
51126559118
51126565770
51126570470
51126575536
51126582250
51126586095
51126591832
51126597875
51126603368
51126609471
51126615148
51126619420
51126624852
51126629613
51126635228
51126640782
51126644994
51126650487
51126655980
51126660558
51126665502
51126671056
51126677037
51126683141
51126687657
51126692906
51126697301
51126703343
51126707799
51126713780
51126719579
51126724461
51126729466
51126735570
51126740575
51126744420
51126751012
51126757176
51126762181
51126767735
51126775059
51126780003
51126786351
51126791722
51126797398
51126803319
51126810887
51126816807
51126822301
51126828160
51126833226
51126839634
51126845128
51126851231
51126857213
51126863011
51126868504
51126873631
51126879734
51126884312
51126889744
51126895665
51126900792
51126906529
51126911595
51126917515
51126923252
51126928379
51126934544
51126941014
51126946812
51126951878
51126958348
51126962864
51126969029
51126974522
51126979649
51126985691
51126991306
51126996433
51127002171
51127007176
51127013523
51127018528
51127023533
51127029453
51127035862
51127041721
51127045200
51127051670
51127057346
51127061802
51127067295
51127073337
51127079746
51127085667
51127089756
51127095676
51127101841
51127106724
51127112644
51127118870
51127123142
51127128086
51127133396
51127138828
51127144382
51127150669
51127155491
51127160190
51127165134
51127171238
51127176304
51127182651
51127188938
51127193149
51127199070
51127203952
51127209079
51127214084
51127219883
51127226230
51127232517
51127237644
51127242221
51127247531
51127252597
51127260044
51127264682
51127270786
51127275119
51127281223
51127286044
51127290866
51127296604
51127302158
51127307834
51127313083
51127317233
51127323215
51127328281
51127334811
51127339999
51127345554
51127351352
51127355563
51127360995
51127366977
51127372165
51127378329
51127382175
51127388522
51127392856
51127398715
51127403354
51127408847
51127415072
51127420993
51127425632
51127430942
51127436374
51127440768
51127446261
51127452365
51127457065
51127463107
51127468722
51127474032
51127478244
51127484591
51127489413
51127495211
51127501132
51127506686
51127512057
51127516085
51127521884
51127529025
51127533602
51127538424
51127543307
51127549777
51127553500
51127560153
51127564608
51127570529
51127575411
51127582308
51127588107
51127593783
51127599215
51127604037
51127610751
51127615633
51127620760
51127625399
51127630465
51127635104
51127640597
51127646090
51127651644
51127656649
51127661898
51127667086
51127670992
51127676913
51127682345
51127688265
51127693026
51127698092
51127702791
51127707735
51127713656
51127717440
51127724520
51127728914
51127733858
51127737826
51127743502
51127747591
51127754244
51127759249
51127764620
51127769259
51127774935
51127780367
51127783968
51127788668
51127794832
51127801607
51127806002
51127811617
51127815584
51127821138
51127825228
51127829988
51127836031
51127841646
51127846285
51127851717
51127857027
51127861788
51127866731
51127870699
51127877596
51127883089
51127888643
51127892671
51127897981
51127901949
51127908296
51127913240
51127919405
51127924410
51127929598
51127934724
51127938142
51127943330
51127948885
51127955232
51127960054
51127964204
51127970003
51127974214
51127978670
51127983736
51127990510
51127995820
51128000703
51128004304
51128010652
51128014619
51128019563
51128024934
51128030366
51128036531
51128042329
51128045991
51128052583
51128058259
51128064912
51128070283
51128075166
51128080720
51128087068
51128091035
51128096528
51128102693
51128108430
51128113862
51128119538
51128124421
51128129731
51128136079
51128141084
51128146821
51128152314
51128157563
51128162507
51128166841
51128172578
51128177339
51128183808
51128190278
51128194306
51128199738
51128204072
51128210786
51128217622
51128221894
51128227876
51128233186
51128238252
51128243501
51128249543
51128254975
51128260407
51128265290
51128270722
51128276154
51128281647
51128286713
51128292573
51128298188
51128303132
51128308381
51128313813
51128319184
51128324372
51128330292
51128335969
51128342255
51128346589
51128351471
51128357026
51128362275
51128367829
51128373810
51128380036
51128384308
51128389069
51128394440
51128399262
51128406159
51128412934
51128417755
51128423371
51128428009
51128432953
51128438202
51128443939
51128449616
51128454254
51128460053
51128466034
51128470307
51128475189
51128481476
51128487579
51128492096
51128497467
51128503388
51128508576
51128513519
51128518890
51128524017
51128529755
51128535309
51128539398
51128544891
51128550751
51128556305
51128561493
51128566742
51128571686
51128577057
51128583038
51128587921
51128592865
51128597748
51128603546
51128608124
51128613800
51128620147
51128624298
51128630218
51128636139
51128640655
51128645416
51128650909
51128657196
51128661041
51128667450
51128674225
51128679535
51128684234
51128689911
51128695098
51128700775
51128705963
51128710601
51128716766
51128722991
51128727752
51128733184
51128738006
51128743194
51128749481
51128754424
51128760772
51128765777
51128770477
51128776214
51128782012
51128786224
51128792571
51128797027
51128803497
51128808318
51128814178
51128817779
51128824249
51128831084
51128835540
51128841460
51128846404
51128852203
51128857146
51128862884
51128869048
51128873199
51128880035
51128884124
51128889373
51128895354
51128901031
51128907073
51128910979
51128916533
51128921966
51128927031
51128933074
51128937163
51128943938
51128948821
51128953948
51128959075
51128964141
51128969451
51128975371
51128979888
51128985503
51128991484
51128996367
51129001494
51129006987
51129011626
51129017607
51129023040
51129029387
51129035124
51129041045
51129046477
51129051787
51129056304
51129063628
51129068572
51129074492
51129078276
51129084197
51129088957
51129094817
51129101958
51129107695
51129114775
51129120818
51129125090
51129131682
51129138029
51129143462
51129148283
51129154082
51129159026
51129164885
51129168669
51129175017
51129180022
51129185454
51129191008
51129196623
51129202482
51129206694
51129212675
51129219389
51129223784
51129227812
51129233915
51129238554
51129244352
51129248869
51129254179
51129257658
51129263151
51129267607
51129273283
51129278105
51129283232
51129287809
51129293486
51129299589
51129304655
51129309782
51129314543
51129319120
51129324797
51129328520
51129335478
51129339140
51129345243
51129350370
51129355070
51129360258
51129364652
51129371427
51129377531
51129382597
51129387052
51129392790
51129397001
51129402860
51129407926
51129411588
51129417570
51129422636
51129427457
51129432951
51129436369
51129442472
51129448270
51129453947
51129459074
51129464201
51129468900
51129473844
51129479581
51129484464
51129489103
51129493925
51129498502
51129503690
51129508390
51129514005
51129518827
51129524930
51129529996
51129535428
51129540677
51129544584
51129550077
51129555814
51129560880
51129565274
51129570523
51129576810
51129580899
51129586759
51129590848
51129596341
51129602689
51129607938
51129613065
51129617765
51129622464
51129628873
51129633573
51129637296
51129644498
51129648892
51129654264
51129658292
51129664029
51129668118
51129673978
51129680020
51129684964
51129689481
51129694852
51129699735
51129704800
51129709622
51129714749
51129721280
51129725674
51129731473
51129735501
51129740933
51129745023
51129750638
51129756863
51129762479
51129767544
51129772671
51129777371
51129782925
51129787747
51129793790
51129799710
51129804288
51129809720
51129813748
51129820096
51129825589
51129830105
51129836575
51129841580
51129846219
51129852139
51129855740
51129861050
51129866787
51129870694
51129877957
51129882290
51129887173
51129891018
51129896878
51129900906
51129906277
51129913296
51129917446
51129922329
51129927761
51129932278
51129937893
51129942837
51129948513
51129954861
51129959500
51129964688
51129968594
51129974148
51129978848
51129984158
51129989956
51129995571
51130000088
51130005642
51130009182
51130014980
51130019863
51130024990
51130031887
51130036465
51130041653
51130045559
51130051418
51130055263
51130060940
51130065884
51130071010
51130076809
51130081570
51130086086
51130090420
51130094997
51130100979
51130106838
51130112819
51130116787
51130121975
51130127041
51130131008
51130136501
51130142605
51130147121
51130153774
51130158596
51130163173
51130167934
51130172512
51130178249
51130184719
51130189235
51130194484
51130198574
51130204311
51130208339
51130214809
51130219692
51130225612
51130230312
51130235439
51130240016
51130245143
51130250087
51130255092
51130261318
51130265712
51130272121
51130276149
51130281093
51130286769
51130291896
51130296718
51130302211
51130307155
51130312770
51130316249
51130322292
51130326930
51130332057
51130339198
51130343593
51130349818
51130353786
51130358791
51130364589
51130369044
51130373866
51130379603
51130384242
51130389857
51130395106
51130399928
51130405238
51130411586
51130417506
51130421901
51130426539
51130432338
51130437159
51130441798
51130446376
51130453334
51130458522
51130462977
51130467860
51130472499
51130477320
51130483241
51130488856
51130493373
51130498500
51130502833
51130507899
51130513331
51130517298
51130523158
51130528407
51130533839
51130538539
51130543116
51130547816
51130553675
51130558192
51130563929
51130569911
51130574061
51130579554
51130584742
51130589320
51130594508
51130598902
51130604578
51130610133
51130616541
51130622462
51130628260
51130634058
51130639735
51130644190
51130650660
51130655421
51130659876
51130665491
51130669703
51130675562
51130680506
51130686121
51130690150
51130695337
51130700464
51130705164
51130710230
51130715418
51130721522
51130726648
51130732020
51130737391
51130744532
51130748804
51130755518
51130760340
51130765223
51130771204
51130775904
51130780970
51130785730
51130790674
51130796839
51130803186
51130808252
51130812830
51130816919
51130822351
51130827967
51130832361
51130837549
51130843775
51130848779
51130853784
51130856897
51130863367
51130868128
51130874353
51130879541
51130884180
51130889612
51130896204
51130900964
51130905359
51130910730
51130916895
51130920740
51130926538
51130931848
51130936182
51130941370
51130946069
51130952722
51130958093
51130964075
51130969446
51130975732
51130981164
51130986413
51130993005
51130997339
51131003198
51131007837
51131012231
51131018030
51131021570
51131027368
51131033777
51131039392
51131043786
51131048913
51131053674
51131058923
51131064355
51131071252
51131076379
51131081018
51131086328
51131089685
51131095300
51131099939
51131105554
51131112390
51131116906
51131122582
51131126733
51131132287
51131136437
51131142114
51131149072
51131154321
51131158898
51131163598
51131168115
51131173181
51131177880
51131183312
51131189416
51131193993
51131199731
51131205468
51131209557
51131215295
51131220544
51131225549
51131230737
51131235192
51131240197
51131244714
51131249718
51131255822
51131259728
51131266564
51131270837
51131275902
51131281579
51131286400
51131291039
51131296532
51131301537
51131306664
51131311242
51131316735
51131322411
51131326073
51131332177
51131336205
51131343102
51131347619
51131353905
51131358483
51131363976
51131368737
51131373131
51131380028
51131384911
51131390343
51131393822
51131399865
51131405052
51131409935
51131415673
51131421227
51131426232
51131431969
51131436913
51131442894
51131447594
51131452599
51131459129
51131463524
51131468407
51131473595
51131479149
51131483055
51131488060
51131495140
51131500511
51131504967
51131510094
51131514732
51131520287
51131525352
51131531273
51131535912
51131541649
51131546410
51131552086
51131555992
51131561668
51131566612
51131572899
51131578087
51131582847
51131587608
51131593651
51131597130
51131603111
51131607261
51131613243
51131617820
51131624901
51131629600
51131634178
51131639976
51131643882
51131650657
51131654747
51131660850
51131666038
51131670433
51131675499
51131679954
51131685264
51131692283
51131697288
51131702781
51131709190
51131714866
51131720237
51131726524
51131732261
51131737144
51131742332
51131748496
51131754234
51131758628
51131764732
51131770530
51131776328
51131781760
51131787803
51131793357
51131799705
51131804893
51131809898
51131816062
51131820762
51131825767
51131831931
51131837608
51131843040
51131849021
51131853232
51131859458
51131863425
51131868186
51131873557
51131878562
51131884910
51131889915
51131894370
51131900168
51131903708
51131909385
51131914023
51131920127
51131925864
51131931601
51131937034
51131940940
51131946250
51131950339
51131956015
51131962851
51131968283
51131972739
51131977011
51131982810
51131987693
51131992392
51131997458
51132004233
51132008750
51132014548
51132018454
51132023947
51132028098
51132033530
51132040732
51132045798
51132050314
51132055564
51132060507
51132065756
51132071250
51132075034
51132082297
51132086997
51132093771
51132097739
51132102805
51132106955
51132113120
51132118613
51132125021
51132128561
51132134543
51132140585
51132144186
51132150412
51132154562
51132161276
51132166098
51132171164
51132175558
51132180990
51132185690
51132191061
51132197348
51132201376
51132206930
51132212057
51132217367
51132221457
51132226889
51132233175
51132238791
51132243307
51132248373
51132253256
51132257650
51132262289
51132267477
51132274313
51132278707
51132283529
51132288656
51132293295
51132298422
51132303183
51132309469
51132314901
51132319418
51132323812
51132328512
51132333700
51132338278
51132344808
51132350302
51132354757
51132360677
51132364767
51132370748
51132374960
51132380819
51132386129
51132392110
51132396810
51132402242
51132406698
51132411581
51132417257
51132422750
51132428243
51132432760
51132438375
51132442464
51132449178
51132454610
51132459615
51132465169
51132471090
51132476217
51132481038
51132484395
51132490438
51132496175
51132502035
51132508077
51132513082
51132518148
51132522909
51132527547
51132532125
51132537618
51132544820
51132548665
51132554586
51132558126
51132564412
51132568563
51132573507
51132580159
51132585714
51132590840
51132596883
51132603353
51132608724
51132614644
51132619649
51132625264
51132630574
51132636189
51132641011
51132646932
51132652547
51132657674
51132663411
51132667989
51132673726
51132677754
51132683064
51132688802
51132692952
51132699605
51132704305
51132708821
51132714864
51132718098
51132724385
51132729512
51132735249
51132740498
51132745076
51132751057
51132755086
51132760945
51132764973
51132770650
51132776753
51132781514
51132786152
51132792073
51132795369
51132801167
51132804524
51132811848
51132816792
51132821370
51132827656
51132831685
51132836628
51132842427
51132847554
51132852559
51132857930
51132862629
51132868306
51132873310
51132878376
51132883442
51132887837
51132894245
51132899250
51132904072
51132908039
51132912983
51132918843
51132923054
51132929524
51132934529
51132939228
51132944538
51132949665
51132954731
51132959675
51132963703
51132970539
51132974995
51132980671
51132985249
51132990498
51132995014
51133000813
51133007404
51133011494
51133016804
51133021625
51133027058
51133030537
51133036762
51133041523
51133047565
51133052204
51133057697
51133063557
51133067768
51133072346
51133078876
51133084919
51133089008
51133093647
51133099384
51133105182
51133108722
51133114399
51133119709
51133124775
51133131122
51133135761
51133140644
51133146076
51133150653
51133156879
51133161945
51133167194
51133172260
51133177448
51133181842
51133186969
51133192218
51133196491
51133203266
51133208393
51133213275
51133217914
51133222980
51133227558
51133233783
51133239154
51133243366
51133248065
51133253803
51133258807
51133263995
51133268939
51133274493
51133280109
51133284320
51133290424
51133295001
51133300433
51133305194
51133310809
51133316364
51133320636
51133326373
51133330279
51133335773
51133340900
51133345965
51133350543
51133357318
51133362201
51133366351
51133371966
51133376605
51133381305
51133387347
51133392962
51133396991
51133403155
51133406939
51133412921
51133418170
51133422870
51133429461
51133433551
51133439471
51133444842
51133449542
51133455218
51133459857
51133465594
51133468951
51133474505
51133480304
51133483844
51133489581
51133494647
51133498858
51133505023
51133510516
51133516741
51133520709
51133526751
51133531207
51133535723
51133541094
51133548052
51133552081
51133557269
51133562335
51133566912
51133572161
51133577532
51133582415
51133588213
51133594378
51133599810
51133606768
51133612200
51133617815
51133622271
51133628191
51133632586
51133639178
51133644182
51133648943
51133655108
51133660723
51133666277
51133670489
51133675799
51133680498
51133686297
51133691485
51133696367
51133701372
51133707781
51133714129
51133719011
51133724749
51133730364
51133734270
51133740252
51133745989
51133750933
51133755632
51133760881
51133766130
51133770952
51133775286
51133782732
51133787493
51133791887
51133796648
51133802385
51133807024
51133812578
51133818804
51133823870
51133829058
51133832964
51133839006
51133843645
51133849260
51133854143
51133860735
51133866045
51133871294
51133878313
51133883928
51133889360
51133894548
51133899858
51133906023
51133911882
51133917436
51133922197
51133927751
51133934343
51133939409
51133945940
51133951433
51133956987
51133963090
51133968706
51133974565
51133979692
51133985612
51133990800
51133996293
51134002275
51134006975
51134013200
51134018754
51134024614
51134029741
51134035600
51134042802
51134048051
51134054582
51134060197
51134065385
51134070817
51134076860
51134083879
51134088273
51134092973
51134099015
51134104936
51134109819
51134116654
51134122026
51134127336
51134131730
51134137101
51134144364
51134148332
51134154618
51134161149
51134166032
51134171403
51134177079
51134182145
51134189164
51134195023
51134199113
51134204850
51134208878
51134214738
51134220902
51134225724
51134231339
51134236832
51134241593
51134246476
51134251969
51134255936
51134261918
51134267594
51134272172
51134277970
51134281815
51134288285
51134293046
51134298539
51134303849
51134308854
51134314530
51134318802
51134324601
51134330582
51134334610
51134341080
51134345536
51134350357
51134356217
51134360489
51134367142
51134371842
51134376419
51134382340
51134387162
51134391556
51134396927
51134402420
51134408158
51134412735
51134418228
51134422379
51134428909
51134433426
51134438248
51134444657
51134448502
51134454544
51134459000
51134464493
51134469437
51134474991
51134478470
51134485306
51134490311
51134495804
51134500443
51134504959
51134510574
51134515640
51134521072
51134526016
51134531570
51134537064
51134542251
51134548721
51134554214
51134558426
51134563736
51134568374
51134574478
51134580337
51134586563
51134590530
51134595169
51134600723
51134606827
51134611892
51134617874
51134623123
51134629837
51134636306
51134641189
51134648147
51134654739
51134660171
51134665176
51134671035
51134675552
51134682388
51134689590
51134693496
51134700576
51134706497
51134710952
51134717666
51134721939
51134729324
51134734878
51134740005
51134746108
51134752029
51134757278
51134762710
51134769180
51134774734
51134779983
51134786025
51134791274
51134796584
51134802322
51134808242
51134814223
51134817886
51134824538
51134830459
51134835036
51134841445
51134845351
51134851272
51134857131
51134862624
51134868850
51134873305
51134880507
51134885207
51134890822
51134896560
51134901137
51134907058
51134913161
51134918105
51134923476
51134928115
51134933913
51134940749
51134945571
51134951918
51134956557
51134962661
51134969130
51134974318
51134978957
51134985427
51134989211
51134995253
51135001479
51135005629
51135012404
51135018508
51135024123
51135029555
51135034865
51135039626
51135046217
51135050734
51135056715
51135060683
51135066359
51135072646
51135078017
51135082900
51135087965
51135094496
51135099196
51135104567
51135111647
51135117506
51135122694
51135127394
51135133131
51135138258
51135143996
51135149428
51135154371
51135159926
51135164870
51135169508
51135175001
51135181776
51135187880
51135192701
51135197950
51135204298
51135208510
51135214674
51135219130
51135225477
51135229384
51135236036
51135240980
51135246107
51135252516
51135257154
51135262526
51135268263
51135273207
51135278883
51135286634
51135292372
51135298048
51135302503
51135308546
51135314283
51135318922
51135324842
51135330457
51135335523
51135341505
51135346327
51135351331
51135356703
51135364454
51135369825
51135374647
51135380018
51135385572
51135391126
51135396192
51135402540
51135406629
51135413404
51135417799
51135423597
51135428907
51135435316
51135440076
51135444837
51135450025
51135456556
51135460462
51135467359
51135471815
51135478589
51135482923
51135488904
51135493604
51135498121
51135503553
51135510877
51135515455
51135520887
51135526990
51135530469
51135536695
51135541700
51135548536
51135553968
51135558545
51135564893
51135568738
51135574414
51135581555
51135586499
51135591931
51135596570
51135601331
51135605664
51135612134
51135617139
51135624280
51135629224
51135634595
51135638135
51135644055
51135649671
51135656629
51135661389
51135665906
51135671765
51135676282
51135682813
51135687756
51135693372
51135699109
51135703748
51135708997
51135714978
51135719372
51135725598
51135732556
51135738537
51135744214
51135749035
51135755261
51135760266
51135765759
51135770825
51135776623
51135783337
51135787732
51135794446
51135800427
51135805249
51135811657
51135817212
51135822583
51135827710
51135832714
51135838330
51135842907
51135850048
51135854016
51135859753
51135864392
51135869702
51135875073
51135881054
51135885815
51135891979
51135896313
51135902844
51135907543
51135913586
51135918163
51135923840
51135928112
51135935742
51135940807
51135945324
51135951061
51135956066
51135961926
51135967907
51135972240
51135978039
51135983532
51135989758
51135994274
51135999950
51136007275
51136011669
51136018139
51136023083
51136028881
51136034496
51136041088
51136046337
51136051586
51136056652
51136063366
51136067882
51136074230
51136080761
51136085399
51136092174
51136099315
51136103893
51136109996
51136115612
51136122265
51136128063
51136133007
51136138439
51136144237
51136150096
51136155040
51136160106
51136166515
51136172802
51136177196
51136184581
51136190563
51136194957
51136200939
51136205028
51136211131
51136217784
51136223277
51136228282
51136234203
51136240184
51136244762
51136250255
51136255748
51136262218
51136266856
51136272838
51136276500
51136282665
51136289439
51136294994
51136300426
51136305980
51136312083
51136316905
51136321788
51136327098
51136332713
51136337657
51136343516
51136350596
51136356517
51136360850
51136368602
51136372508
51136379283
51136384959
51136389110
51136395213
51136402110
51136406993
51136412730
51136417674
51136422984
51136429393
51136436045
51136441600
51136447154
51136452220
51136457469
51136463694
51136469493
51136474925
51136480662
51136485789
51136492442
51136496348
51136502452
51136508128
51136513560
51136520457
51136526438
51136531504
51136537730
51136542429
51136548899
51136553538
51136558970
51136564829
51136569163
51136574839
51136581736
51136586314
51136592661
51136597361
51136603587
51136608836
51136613535
51136619761
51136624888
51136630259
51136636545
51136642344
51136646555
51136653635
51136658579
51136664194
51136669748
51136675425
51136680796
51136686777
51136691904
51136697580
51136703013
51136707468
51136713999
51136719797
51136725229
51136729319
51136736765
51136740244
51136746103
51136752085
51136757883
51136763498
51136768320
51136773996
51136779001
51136785898
51136791696
51136796884
51136802622
51136807871
51136813608
51136817697
51136823435
51136831186
51136835642
51136841257
51136847788
51136851267
51136858041
51136862924
51136868478
51136873544
51136878915
51136885568
51136890268
51136896677
51136903085
51136907541
51136913095
51136918344
51136924753
51136930246
51136936166
51136940805
51136946542
51136952890
51136957406
51136963815
51136969980
51136976144
51136980905
51136986093
51136991647
51136995675
51137001535
51137008004
51137013253
51137018991
51137024728
51137030526
51137036813
51137042001
51137047860
51137053598
51137059152
51137064584
51137068795
51137075997
51137081796
51137086679
51137092721
51137097177
51137101632
51137107980
51137114449
51137119760
51137125497
51137130868
51137135812
51137142404
51137147469
51137154122
51137159310
51137164437
51137170419
51137175362
51137178719
51137185128
51137191537
51137196236
51137201730
51137206246
51137210946
51137216805
51137221932
51137228097
51137232552
51137238289
51137242867
51137248421
51137253426
51137258919
51137264596
51137269234
51137273751
51137278512
51137284127
51137289132
51137293099
51137299080
51137304696
51137310433
51137313790
51137319649
51137326302
51137332833
51137338082
51137343941
51137349923
51137356026
51137361885
51137366219
51137373665
51137378426
51137382942
51137389595
51137395943
51137401375
51137406685
51137412178
51137418526
51137423714
51137429268
51137434212
51137439827
51137444954
51137452217
51137456856
51137462776
51137469185
51137475349
51137480782
51137485420
51137492500
51137497505
51137503853
51137509468
51137515388
51137519356
51137525520
51137531441
51137537361
51137542732
51137549019
51137553474
51137559273
51137564888
51137570381
51137576851
51137583015
51137587959
51137593696
51137599495
51137604622
51137610786
51137616279
51137621589
51137626594
51137632392
51137638496
51137643135
51137648262
51137654487
51137660285
51137664863
51137671150
51137677497
51137681953
51137689155
51137694099
51137699836
51137705085
51137711311
51137715400
51137719917
51137726020
51137731574
51137737373
51137743354
51137747932
51137753791
51137759284
51137764716
51137769660
51137776008
51137779914
51137786506
51137791022
51137796210
51137801826
51137808478
51137813544
51137819465
51137824287
51137829230
51137835029
51137841315
51137847053
51137850898
51137856635
51137862617
51137867988
51137872443
51137877814
51137883429
51137887702
51137892646
51137899299
51137903205
51137909858
51137916388
51137922065
51137928046
51137932013
51137937629
51137942878
51137949042
51137954474
51137959113
51137965094
51137970221
51137976569
51137982428
51137989020
51137994025
51137999640
51138008002
51138021185
51138027228
51138032843
51138038641
51138044257
51138049445
51138054266
51138060492
51138064948
51138070807
51138076422
51138081610
51138086798
51138092230
51138098334
51138104010
51138108893
51138114874
51138119208
51138124640
51138129278
51138135382
51138140753
51138145270
51138151373
51138155279
51138160895
51138166083
51138171332
51138177496
51138182135
51138186224
51138192328
51138197821
51138204107
51138210150
51138215521
51138220343
51138225103
51138231024
51138236273
51138242132
51138246344
51138252081
51138256536
51138262335
51138268255
51138273626
51138277899
51138282537
51138288336
51138294195
51138299688
51138305853
51138310980
51138316351
51138320745
51138325628
51138330511
51138335333
51138339971
51138343511
51138348028
51138352789
51138357244
51138361700
51138365545
51138370428
51138374029
51138378118
51138381963
51138386663
51138391546
51138395025
51138398626
51138402349
51138407049
51138410039
51138414190
51138418890
51138422124
51138427007
51138432867
51138437261
51138440740
51138445196
51138449651
51138454046
51138458867
51138463506
51138467718
51138472112
51138475835
51138479986
51138485296
51138489751
51138493963
51138498540
51138503972
51138507940
51138512151
51138517278
51138521672
51138525640
51138530278
51138533940
51138537969
51138542485
51138547612
51138552251
51138556035
51138560430
51138563970
51138569158
51138573796
51138578130
51138582891
51138586125
51138590337
51138594060
51138599004
51138604009
51138608342
51138612615
51138616277
51138620488
51138624211
51138629765
51138634648
51138638616
51138643010
51138647527
51138650700
51138655522
51138659551
51138663640
51138668767
51138672063
51138676396
51138681096
51138684819
51138689091
51138693425
51138697575
51138702153
51138706486
51138710576
51138714116
51138718999
51138721928
51138726384
51138733098
51138736699
51138741276
51138745915
51138749638
51138754399
51138758366
51138762700
51138767766
51138771977
51138776005
51138781071
51138784611
51138789433
51138793766
51138797245
51138801396
51138805424
51138809330
51138812504
51138816227
51138819340
51138822636
51138825261
51138828862
51138832219
51138835148
51138837529
51138841496
51138844487
51138847294
51138850590
51138853031
51138855778
51138858403
51138861149
51138863407
51138866154
51138868656
51138870732
51138872929
51138875309
51138877140
51138879154
51138881108
51138883183
51138884953
51138886723
51138888493
51138890385
51138892216
51138894291
51138896122
51138897892
51138899845
51138901676
51138903813
51138905766
51138907536
51138909367
51138911381
51138913761
51138915531
51138917545
51138919621
51138921513
51138923649
51138925541
51138927494
51138929203
51138931217
51138933354
51138935246
51138936955
51138938847
51138940861
51138942753
51138944767
51138946964
51138948856
51138950565
51138952396
51138954227
51138956120
51138958134
51138959843
51138961918
51138964054
51138966190
51138968143
51138970402
51138972294
51138974125
51138976566
51138978458
51138980534
51138982548
51138984684
51138986698
51138988651
51138990726
51138992802
51138994938
51138996708
51138998478
51139000919
51139002689
51139004398
51139006168
51139008121
51139010197
51139012150
51139013859
51139015995
51139017887
51139019840
51139021915
51139024113
51139026188
51139028019
51139029911
51139032108
51139033939
51139035953
51139037906
51139039738
51139042057
51139043949
51139045841
51139047977
51139049869
51139052128
51139054081
51139056156
51139058231
51139060245
51139062137
51139064579
51139066898
51139068973
51139070926
51139072574
51139074405
51139076420
51139078251
51139080021
51139081974
51139083805
51139085819
51139087528
51139089542
51139091434
51139093143
51139094913
51139096622
51139098758
51139100589
51139102482
51139104557
51139106327
51139108524
51139110416
51139112308
51139114017
51139115970
51139118290
51139120121
51139121891
51139123905
51139125736
51139127750
51139129459
51139131290
51139133121
51139135196
51139136844
51139138614
51139140628
51139142581
51139144474
51139146366
51139148136
51139150333
51139152164
51139153995
51139155948
51139157718
51139159915
51139162113
51139164127
51139166080
51139168033
51139169925
51139171939
51139174137
51139175907
51139177982
51139179935
51139181766
51139184024
51139185855
51139187992
51139189701
51139191776
51139193973
51139195987
51139197757
51139199710
51139201724
51139203311
51139205264
51139207340
51139209049
51139211124
51139212894
51139214847
51139216983
51139218936
51139220706
51139222476
51139224490
51139226505
51139228397
51139230777
51139232547
51139234378
51139236820
51139238712
51139240482
51139242313
51139244388
51139246158
51139248111
51139250186
51139252078
51139253970
51139255862
51139257999
51139260013
51139262088
51139263919
51139265689
51139267581
51139269778
51139271609
51139273318
51139275394
51139277042
51139279056
51139280704
51139282901
51139284610
51139286380
51139288272
51139289981
51139291995
51139294070
51139295962
51139297671
51139299625
51139302188
51139304080
51139305789
51139307681
51139309512
51139311893
51139313968
51139315921
51139317813
51139320010
51139321902
51139323550
51139325809
51139327701
51139329715
51139331607
51139333560
51139335391
51139337222
51139339175
51139341006
51139343326
51139345401
51139347110
51139349246
51139351077
51139353335
51139355105
51139356875
51139359012
51139361575
51139363650
51139365664
51139367434
51139369815
51139371768
51139373721
51139375613
51139377749
51139379580
51139381534
51139383243
51139385135
51139387271
51139389102
51139391116
51139392947
51139394778
51139396914
51139398745
51139400821
51139402774
51139404483
51139406253
51139408084
51139410281
51139412173
51139414065
51139416323
51139418032
51139420413
51139422244
51139424258
51139426394
51139428103
51139430362
51139432132
51139434085
51139436282
51139438418
51139440249
51139442080
51139443972
51139446048
51139447879
51139449710
51139451602
51139453860
51139455630
51139457583
51139459353
51139461184
51139463076
51139464907
51139466738
51139468692
51139470400
51139472476
51139474612
51139476504
51139478640
51139480471
51139481997
51139483889
51139486331
51139488284
51139489993
51139492068
51139494082
51139496279
51139498355
51139500308
51139502383
51139504153
51139506228
51139508120
51139510134
51139512209
51139514041
51139515872
51139517520
51139519717
51139521670
51139523501
51139525088
51139527041
51139528994
51139530947
51139532900
51139534731
51139536623
51139539309
51139541018
51139543032
51139545107
51139547060
51139549014
51139550845
51139553164
51139554873
51139556765
51139558840
51139560610
51139562807
51139564700
51139566592
51139568423
51139570498
51139572817
51139574648
51139576418
51139578249
51139579958
51139582156
51139584109
51139585879
51139587649
51139589419
51139591067
51139592959
51139595156
51139597048
51139599001
51139600710
51139602602
51139604739
51139606570
51139608401
51139610354
51139612185
51139614382
51139616335
51139618227
51139620608
51139622439
51139624636
51139626589
51139628908
51139630861
51139632815
51139634707
51139636965
51139639101
51139640932
51139643007
51139644839
51139646609
51139648379
51139650393
51139652041
51139654177
51139656191
51139658083
51139659975
51139662050
51139664065
51139665774
51139667482
51139669436
51139671572
51139673220
51139675173
51139677065
51139678957
51139681032
51139683046
51139685061
51139687014
51139689150
51139691103
51139692995
51139695070
51139696962
51139698732
51139700747
51139702456
51139704409
51139706423
51139708132
51139710085
51139711916
51139713564
51139715456
51139717287
51139719057
51139720827
51139723085
51139724855
51139726747
51139728579
51139730471
51139732668
51139734438
51139736635
51139738649
51139740908
51139742495
51139744448
51139746340
51139748232
51139750246
51139752016
51139753786
51139756105
51139757875
51139759706
51139761660
51139763918
51139765810
51139767519
51139769167
51139771120
51139772951
51139774965
51139776857
51139778627
51139780641
51139782778
51139784548
51139786440
51139788698
51139790529
51139792360
51139794374
51139796755
51139798464
51139800478
51139802675
51139804567
51139806581
51139808412
51139810304
51139812990
51139814760
51139816713
51139818422
51139820802
51139822756
51139824587
51139826296
51139828066
51139830141
51139832155
51139833925
51139835695
51139837587
51139839296
51139841066
51139843080
51139844972
51139846986
51139848573
51139850832
51139852785
51139854860
51139856874
51139858827
51139860658
51139862794
51139864687
51139866640
51139868776
51139870485
51139872804
51139874635
51139876833
51139878786
51139880495
51139882326
51139884035
51139886537
51139888185
51139890199
51139892091
51139893922
51139895875
51139897584
51139899782
51139901552
51139903505
51139905641
51139907411
51139909486
51139911256
51139913087
51139915346
51139917238
51139919069
51139920961
51139922670
51139924928
51139926942
51139929017
51139930971
51139932863
51139934877
51139936769
51139938966
51139940736
51139942689
51139944581
51139946535
51139948427
51139950502
51139952150
51139953981
51139955995
51139957948
51139960023
51139962159
51139964052
51139965822
51139967653
51139969667
51139972047
51139973878
51139975587
51139977418
51139979371
51139981324
51139983339
51139985658
51139987367
51139989320
51139991700
51139993531
51139995546
51139997194
51139999452
51140001527
51140003175
51140005433
51140007447
51140009523
51140011476
51140013429
51140015443
51140017396
51140019227
51140021180
51140023133
51140025026
51140026673
51140028749
51140030702
51140032289
51140034181
51140036012
51140038026
51140039857
51140041566
51140043641
51140045472
51140047608
51140049623
51140051698
51140053529
51140055787
51140057862
51140059571
51140061647
51140063600
51140065736
51140067750
51140069520
51140071717
51140073548
51140075563
51140077516
51140079591
51140081849
51140084046
51140085877
51140087892
51140089723
51140091737
51140093629
51140095460
51140097108
51140099366
51140101319
51140103394
51140105226
51140107179
51140109010
51140110963
51140113160
51140115113
51140116822
51140119080
51140120667
51140122743
51140124574
51140126405
51140128541
51140130372
51140132325
51140134400
51140136109
51140137879
51140139771
51140141602
51140143494
51140145326
51140147034
51140148927
51140150758
51140152711
51140154481
51140156434
51140158082
51140159852
51140161805
51140163941
51140165955
51140167847
51140169556
51140171693
51140174073
51140175599
51140177796
51140179627
51140181885
51140183533
51140185426
51140187562
51140189393
51140191407
51140193360
51140195374
51140197571
51140199525
51140201478
51140203431
51140205384
51140207398
51140209473
51140211121
51140213074
51140215027
51140216736
51140218629
51140220582
51140222535
51140224549
51140226502
51140228760
51140230591
51140232422
51140234376
51140236207
51140238648
51140240174
51140242432
51140244690
51140246461
51140248658
51140251038
51140253174
51140255189
51140257142
51140258973
51140260926
51140263123
51140265137
51140266968
51140268860
51140270752
51140272828
51140274659
51140276368
51140278138
51140280152
51140282227
51140284119
51140286011
51140287903
51140289856
51140292115
51140294007
51140296204
51140298035
51140300049
51140302063
51140304139
51140306214
51140308167
51140310303
51140312195
51140313843
51140316040
51140317932
51140319825
51140321595
51140323914
51140325867
51140327515
51140329407
51140331299
51140333069
51140335144
51140337159
51140338867
51140340882
51140342469
51140344300
51140346314
51140348450
51140350159
51140352051
51140353943
51140355957
51140358094
51140360108
51140362122
51140363892
51140366150
51140367920
51140370056
51140372071
51140374024
51140376343
51140378174
51140380188
51140382446
51140384278
51140385987
51140388001
51140389832
51140392029
51140393738
51140395508
51140397278
51140399292
51140401184
51140403137
51140405152
51140407105
51140408508
51140410401
51140412232
51140414551
51140416443
51140418274
51140420166
51140422180
51140424194
51140426209
51140428284
51140430054
51140432312
51140434143
51140436096
51140438171
51140440308
51140442566
51140444275
51140446350
51140448364
51140450073
51140451843
51140453613
51140455994
51140457947
51140459961
51140461853
51140463867
51140465820
51140467712
51140469727
51140471558
51140473511
51140475342
51140477112
51140478882
51140480774
51140482666
51140484375
51140486511
51140488647
51140490417
51140492615
51140494934
51140496765
51140498962
51140500732
51140502746
51140504333
51140506287
51140508362
51140510498
51140512451
51140514282
51140516357
51140518249
51140520019
51140521728
51140523743
51140525635
51140527405
51140529297
51140531250
51140533203
51140534851
51140536682
51140538879
51140540954
51140542785
51140545166
51140546936
51140549011
51140550964
51140552856
51140554992
51140556885
51140559204
51140561096
51140562988
51140565246
51140567138
51140569092
51140571167
51140573486
51140575195
51140577148
51140579101
51140581054
51140583313
51140585083
51140586914
51140588745
51140590820
51140592651
51140594482
51140596374
51140598327
51140600158
51140601928
51140604004
51140606140
51140607910
51140609985
51140611999
51140613891
51140616150
51140617981
51140619751
51140621582
51140623474
51140625488
51140627380
51140629699
51140631469
51140633300
51140635253
51140637146
51140639404
51140641113
51140642944
51140644775
51140646728
51140648742
51140650390
51140652526
51140654479
51140656372
51140658081
51140659973
51140661804
51140663757
51140665466
51140667236
51140669189
51140671081
51140672912
51140675292
51140677062
51140678893
51140681030
51140682800
51140684814
51140686767
51140688659
51140690856
51140692748
51140694518
51140696288
51140698120
51140700317
51140702148
51140704040
51140706054
51140708007
51140709777
51140711669
51140713806
51140715759
51140717529
51140719482
51140721557
51140723693
51140725585
51140727416
51140729308
51140731200
51140733337
51140735229
51140737426
51140739196
51140741027
51140743530
51140745483
51140747558
51140749450
51140751525
51140753295
51140755248
51140757384
51140759460
51140761413
51140763244
51140765014
51140767455
51140769347
51140771239
51140772948
51140774841
51140776916
51140778808
51140780395
51140782287
51140784240
51140785949
51140787902
51140789855
51140791625
51140793578
51140795409
51140797179
51140799499
51140801330
51140802978
51140804931
51140807372
51140809264
51140811156
51140813415
51140815307
51140817443
51140819396
51140821105
51140823363
51140825194
51140826781
51140829223
51140831603
51140833617
51140835509
51140837279
51140839293
51140841369
51140843505
51140845336
51140847289
51140849059
51140851073
51140853148
51140855163
51140856872
51140858642
51140860473
51140862243
51140864501
51140866393
51140868346
51140870116
51140872130
51140874267
51140876037
51140878051
51140880126
51140881713
51140883971
51140885802
51140888121
51140889769
51140891784
51140893493
51140895385
51140897704
51140899413
51140901366
51140903441
51140905333
51140907531
51140909301
51140911315
51140913268
51140915038
51140916930
51140918944
51140920836
51140922667
51140924559
51140926512
51140928405
51140930175
51140931945
51140933776
51140935607
51140937438
51140939452
51140941405
51140943358
51140945189
51140947142
51140949279
51140951293
51140952941
51140954772
51140956664
51140958861
51140960814
51140962706
51140964537
51140966490
51140968321
51140970214
51140971984
51140973815
51140975829
51140977721
51140979674
51140981505
51140983458
51140985289
51140987242
51140989134
51140991149
51140992980
51140994872
51140996825
51140998717
51141000853
51141002806
51141004942
51141006651
51141008544
51141011046
51141012633
51141014830
51141016783
51141018919
51141020812
51141022765
51141024779
51141026610
51141028746
51141030760
51141032652
51141034728
51141036620
51141038451
51141040221
51141042235
51141044127
51141046019
51141047972
51141049864
51141051756
51141053648
51141055724
51141057433
51141059447
51141061400
51141063353
51141065550
51141067503
51141069456
51141071532
51141073729
51141075926
51141077879
51141079954
51141081847
51141083800
51141085692
51141087645
51141089842
51141091795
51141093626
51141095518
51141097533
51141099486
51141101256
51141103270
51141105162
51141106932
51141108824
51141110716
51141112669
51141114256
51141116392
51141118101
51141119932
51141121947
51141123778
51141125975
51141127928
51141129820
51141132139
51141133970
51141135863
51141137572
51141139586
51141141539
51141143675
51141145933
51141147886
51141149901
51141151854
51141153807
51141155638
51141157286
51141159544
51141161497
51141163328
51141165342
51141167235
51141168760
51141170591
51141172606
51141174193
51141176024
51141177733
51141179625
51141181578
51141184019
51141185911
51141188108
51141190062
51141192320
51141194212
51141196165
51141198362
51141200315
51141205748
51141207701
51141209593
51141211302
51141213255
51141215269
51141217100
51141218748
51141220518
51141222471
51141224241
51141226133
51141227964
51141229917
51141231932
51141233885
51141235716
51141237486
51141239439
51141241636
51141243406
51141245848
51141247740
51141249693
51141251768
51141253599
51141255857
51141257627
51141259764
51141261412
51141263365
51141265196
51141266905
51141268858
51141270872
51141272581
51141274412
51141276182
51141278013
51141279905
51141282041
51141283750
51141285642
51141287535
51141289243
51141291563
51141293333
51141295164
51141297361
51141299436
51141301389
51141303159
51141304868
51141306883
51141308897
51141310972
51141312864
51141314756
51141316953
51141318723
51141321043
51141323057
51141324888
51141327024
51141328916
51141330747
51141332639
51141334470
51141336363
51141338316
51141340391
51141342222
51141343931
51141345823
51141347715
51141350034
51141351865
51141353941
51141355650
51141357725
51141359922
51141361875
51141364133
51141366087
51141368345
51141370054
51141372190
51141374387
51141376340
51141378233
51141380064
51141382017
51141384397
51141386289
51141388059
51141389890
51141391904
51141393980
51141395933
51141397581
51141399839
51141401853
51141404050
51141405942
51141407896
51141409727
51141411497
51141413389
51141415159
51141416929
51141419004
51141420896
51141422788
51141424619
51141426999
51141428647
51141430723
51141432859
51141435361
51141437070
51141438779
51141440854
51141442808
51141445127
51141446775
51141448667
51141450742
51141452451
51141454343
51141456296
51141458127
51141460203
51141461911
51141463804
51141465635
51141467527
51141469358
51141471311
51141473020
51141474973
51141476804
51141478574
51141480344
51141482602
51141484311
51141486020
51141487851
51141489682
51141491941
51141493833
51141496152
51141497983
51141499997
51141502439
51141504331
51141506345
51141508176
51141510312
51141512021
51141513913
51141515744
51141517636
51141519773
51141521604
51141523618
51141525754
51141527707
51141529477
51141531369
51141533445
51141535092
51141537046
51141538938
51141540647
51141542844
51141544858
51141546567
51141548459
51141550412
51141552610
51141554624
51141556699
51141558713
51141560666
51141562680
51141564572
51141566953
51141568723
51141570554
51141572385
51141574521
51141576596
51141578427
51141580258
51141581967
51141583798
51141585752
51141587705
51141589231
51141590939
51141592893
51141594602
51141596555
51141598813
51141600644
51141602536
51141604306
51141606259
51141608457
51141610043
51141612180
51141614072
51141615781
51141617612
51141619504
51141621823
51141623837
51141625668
51141628049
51141629880
51141632138
51141633847
51141635678
51141637814
51141639706
51141641660
51141643857
51141645810
51141647519
51141649655
51141651486
51141653378
51141655087
51141657101
51141658932
51141660825
51141662656
51141664670
51141666501
51141668393
51141670346
51141671994
51141674130
51141676022
51141677853
51141679745
51141681699
51141683652
51141685544
51141687375
51141689328
51141691159
51141693173
51141695431
51141697690
51141699277
51141700986
51141703183
51141704770
51141706540
51141708432
51141710446
51141712216
51141714352
51141716305
51141717892
51141719601
51141721371
51141723324
51141725033
51141726803
51141728818
51141730649
51141732541
51141734250
51141736203
51141737851
51141739621
51141741330
51141743344
51141745175
51141747006
51141749020
51141750851
51141752804
51141754635
51141756588
51141758297
51141759762
51141762082
51141763791
51141765500
51141767209
51141769467
51141771054
51141772885
51141774655
51141776486
51141778073
51141779843
51141781918
51141783566
51141785214
51141787167
51141789059
51141791073
51141792843
51141794613
51141796322
51141798397
51141800167
51141802304
51141804196
51141806027
51141808041
51141809628
51141811703
51141813595
51141815365
51141817196
51141818966
51141821164
51141823117
51141824826
51141826535
51141828549
51141830197
51141832272
51141833798
51141835629
51141837338
51141839047
51141840878
51141842892
51141844540
51141846188
51141848019
51141850094
51141851742
51141853451
51141855282
51141857235
51141859066
51141861141
51141862789
51141864742
51141866818
51141868588
51141870602
51141872433
51141874264
51141876034
51141878231
51141880001
51141881710
51141883358
51141885128
51141887264
51141888973
51141890621
51141892330
51141894161
51141896176
51141897823
51141899532
51141901180
51141902828
51141904659
51141906857
51141908566
51141910214
51141911923
51141913693
51141916073
51141917904
51141919857
51141921505
51141923336
51141926022
51141927670
51141929440
51141931210
51141932980
51141934628
51141936337
51141938107
51141939755
51141941463
51141943722
51141945553
51141947262
51141948849
51141950436
51141952328
51141954281
51141956234
51141958492
51141960445
51141962398
51141964291
51141966183
51141967892
51141969540
51141971676
51141973324
51141975216
51141977169
51141979122
51141980770
51141983150
51141984920
51141986446
51141988277
51141989864
51141991939
51141993709
51141995479
51141997127
51141999203
51142001217
51142002865
51142004574
51142006283
51142007992
51142009762
51142011837
51142013607
51142015377
51142017086
51142018978
51142021175
51142022762
51142024654
51142026607
51142028866
51142030636
51142032528
51142034481
51142036373
51142038448
51142040279
51142042232
51142044124
51142046016
51142047725
51142049373
51142051510
51142053402
51142055172
51142056881
51142058834
51142060787
51142062374
51142063900
51142065792
51142067501
51142069332
51142071102
51142072933
51142074764
51142076534
51142078243
51142080257
51142081966
51142083797
51142085750
51142087825
51142089595
51142091365
51142092952
51142094783
51142096920
51142098507
51142100887
51142102535
51142104122
51142105831
51142107906
51142109676
51142111629
51142113277
51142115108
51142117183
51142119075
51142120906
51142122554
51142124324
51142126094
51142127925
51142129634
51142131710
51142133907
51142135860
51142137935
51142139705
51142141719
51142143672
51142145198
51142147396
51142149288
51142151058
51142152828
51142155147
51142156795
51142158626
51142160396
51142162105
51142164058
51142165828
51142167781
51142169368
51142171199
51142172908
51142174861
51142176692
51142178462
51142180354
51142182491
51142184566
51142186214
51142188045
51142189693
51142191646
51142193599
51142195491
51142197322
51142199092
51142201289
51142202998
51142204891
51142206905
51142208736
51142210445
51142212398
51142214717
51142216365
51142218196
51142219844
51142221492
51142223262
51142224849
51142226558
51142228328
51142230159
51142231990
51142233699
51142235591
51142237300
51142238948
51142240657
51142242549
51142244502
51142246089
51142247920
51142249812
51142251826
51142253719
51142258601
51142262996
51142265132
51142266780
51142268367
51142270442
51142272212
51142274165
51142275996
51142278072
51142280208
51142282161
51142283992
51142285884
51142287898
51142289790
51142291560
51142293208
51142294917
51142296687
51142298579
51142300410
51142301997
51142303889
51142305720
51142307673
51142309871
51142311946
51142313533
51142315486
51142317378
51142319148
51142320918
51142322627
51142324641
51142326533
51142328425
51142329951
51142331782
51142333858
51142335566
51142337398
51142339229
51142341121
51142342891
51142344600
51142346126
51142347896
51142349971
51142351741
51142353450
51142355098
51142356990
51142358760
51142360591
51142362422
51142364131
51142366023
51142368098
51142370234
51142371882
51142374080
51142375850
51142377559
51142379451
51142381099
51142383418
51142384822
51142387263
51142389216
51142391047
51142392817
51142394343
51142395930
51142397639
51142399470
51142401240
51142402949
51142404780
51142406306
51142408015
51142409846
51142411616
51142413203
51142414851
51142416499
51142418269
51142420161
51142421992
51142423823
51142425654
51142427729
51142429805
51142431819
51142433589
51142435298
51142437434
51142439204
51142441523
51142443171
51142445063
51142447138
51142449092
51142451045
51142452815
51142454524
51142456355
51142458491
51142460017
51142462031
51142463679
51142465327
51142467463
51142469294
51142471186
51142473017
51142474848
51142476801
51142478388
51142479914
51142481928
51142483637
