51067739993
51067748538
51067754398
51067761233
51067766116
51067774173
51067783877
51067790835
51067797122
51067804812
51067812198
51067818667
51067826907
51067832278
51067840213
51067848086
51067855227
51067862063
51067869693
51067876468
51067883914
51067888064
51067897342
51067904483
51067911196
51067919192
51067926028
51067933230
51067940066
51067950137
51067956118
51067963687
51067970706
51067977725
51067985537
51067992434
51067998660
51068007266
51068013796
51068022829
51068029787
51068036440
51068044375
51068049929
51068058840
51068067019
51068073550
51068080752
51068086977
51068096560
51068103457
51068110048
51068119509
51068125551
51068133730
51068141176
51068148440
51068155703
51068161562
51068171145
51068178835
51068185732
51068193056
51068200014
51068206545
51068213930
51068221865
51068229311
51068236025
51068242739
51068251222
51068256532
51068265016
51068271852
51068280275
51068286623
51068294069
51068301637
51068308839
51068315920
51068323854
51068331850
51068338930
51068345399
51068352418
51068360841
51068366151
51068374086
51068382204
51068387269
51068395875
51068400392
51068410646
51068418214
51068426698
51068434327
51068442628
51068450074
51068458741
51068466554
51068474000
51068483705
51068488221
51068499574
51068507386
51068514833
51068523316
51068529725
51068538636
51068547669
51068554750
51068564576
51068571961
51068581849
51068591676
51068598267
51068607057
51068615907
51068623780
51068630250
51068640137
51068648560
51068656800
51068667115
51068674439
51068686280
51068691407
51068704285
51068712952
51068721985
51068731446
51068737671
51068747925
51068754090
51068764039
51068773133
51068781556
51068790284
51068797058
51068809021
51068816346
51068825257
51068832825
51068843323
51068849243
51068862427
51068870728
51068879822
51068888184
51068897888
51068906372
51068914246
51068925049
51068935181
51068942749
51068950806
51068959534
51068967163
51068976013
51068984558
51068994324
51069003967
51069011963
51069020141
51069030395
51069035400
51069045654
51069050964
51069062500
51069070678
51069078979
51069087280
51069093750
51069102722
51069110839
51069114440
51069127746
51069135742
51069143859
51069151489
51069159728
51069167114
51069175109
51069180114
51069190734
51069199706
51069208007
51069214782
51069223144
51069232360
51069240478
51069248168
51069257201
51069267272
51069273986
51069283385
51069290404
51069297912
51069305907
51069320250
51069330138
51069341796
51069351684
51069364562
51069375975
51069386534
51069396788
51069407347
51069418395
51069428466
51069438475
51069447203
51069458495
51069468810
51069478758
51069490416
51069499571
51069509459
51069516112
51069524046
51069531981
51069539061
51069547179
51069554015
51069561949
51069567503
51069575621
51069584044
51069591795
51069600828
51069607725
51069615538
51069622801
51069629942
51069637816
51069644652
51069654234
51069659483
51069667784
51069673460
51069679991
51069687620
51069696043
51069702635
51069708494
51069715269
51069721739
51069729612
51069737913
51069745664
51069752989
51069759153
51069766233
51069772520
51069780088
51069786924
51069795713
51069803343
51069809934
51069818601
51069824827
51069832761
51069841306
51069848081
51069856077
51069863584
51069869932
51069878049
51069884580
51069893430
51069901121
51069907407
51069915586
51069922300
51069929258
51069937558
51069944639
51069953550
51069961301
51069968625
51069976621
51069981870
51069989682
51069997007
51070004453
51070012998
51070020566
51070028379
51070036252
51070040586
51070050107
51070057797
51070065305
51070072812
51070079343
51070087827
51070095273
51070102292
51070109616
51070116208
51070122617
51070129147
51070133298
51070138913
51070144345
51070150815
51070155575
51070161923
51070167966
51070173031
51070179135
51070185422
51070191281
51070196713
51070201962
51070207699
51070213254
51070219784
51070225338
51070231320
51070237362
51070241696
51070247616
51070252560
51070259152
51070265927
51070270260
51070277340
51070282772
51070288693
51070294735
51070299496
51070306759
51070311825
51070317135
51070322750
51070328305
51070333309
51070340634
51070345638
51070350399
51070356869
51070360714
51070367550
51070373165
51070379696
51070385250
51070390743
51070395626
51070401424
51070406796
51070411800
51070418392
51070424435
51070429073
51070434566
51070439388
51070447201
51070451900
51070458858
51070464291
51070467708
51070475033
51070482296
51070489254
51070494381
51070500973
51070504879
51070510921
51070518612
51070523128
51070530330
51070535640
51070541256
51070547603
51070553707
51070559627
51070565181
51070570369
51070575069
51070581112
51070586605
51070592464
51070599117
51070604244
51070609615
51070615169
51070620357
51070627071
51070630123
51070636714
51070642757
51070647945
51070654109
51070659603
51070664485
51070669612
51070675350
51070681270
51070686763
51070691707
51070697994
51070702083
51070708614
51070714839
51070719905
51070725887
51070732173
51070736812
51070743037
51070747676
51070752986
51070757991
51070763484
51070769404
51070774226
51070781001
51070786189
51070790217
51070797603
51070803035
51070807002
51070814265
51070819453
51070824580
51070830439
51070837214
51070842830
51070848323
51070854243
51070859370
51070864070
51070870601
51070876399
51070881404
51070886287
51070891230
51070896723
51070902583
51070907222
51070912226
51070919062
51070924739
51070929621
51070935786
51070940425
51070946772
51070952632
51070958369
51070963557
51070968562
51070973506
51070979731
51070984309
51070991572
51070996333
51071001887
51071007319
51071012873
51071018183
51071024348
51071028681
51071035456
51071040400
51071046198
51071051630
51071056391
51071061091
51071067560
51071072504
51071079035
51071085749
51071090510
51071095514
51071101618
51071106379
51071112360
51071116877
51071123285
51071128290
51071134089
51071139521
51071144159
51071151178
51071156794
51071160517
51071167597
51071172785
51071177484
51071184320
51071189203
51071197260
51071201349
51071205316
51071212091
51071217096
51071223017
51071230036
51071234247
51071240534
51071245600
51071251215
51071256708
51071262933
51071268060
51071273737
51071279352
51071283930
51071290338
51071295404
51071303949
51071308710
51071314813
51071320245
51071326044
51071330926
51071337396
51071341486
51071347894
51071353021
51071358514
51071364374
51071370477
51071375421
51071380548
51071386285
51071391900
51071397516
51071402521
51071409845
51071414728
51071419427
51071425470
51071429681
51071435479
51071442071
51071447870
51071452813
51071457025
51071464288
51071470025
51071474176
51071480828
51071487115
51071491937
51071496820
51071501824
51071507196
51071510064
51071517938
51071522882
51071528070
51071533074
51071537408
51071544122
51071547173
51071554803
51071559564
51071564691
51071569695
51071574639
51071579705
51071584832
51071590142
51071597100
51071602288
51071607110
51071613519
51071617791
51071623772
51071630852
51071636040
51071640679
51071644707
51071651177
51071656670
51071663262
51071669549
51071675530
51071681756
51071688225
51071691033
51071698601
51071703728
51071708855
51071714287
51071719414
51071724114
51071729729
51071734368
51071740532
51071745537
51071750725
51071756768
51071761528
51071766472
51071771233
51071777459
51071782463
51071787773
51071791802
51071797661
51071801873
51071808831
51071814568
51071819268
51071823906
51071828728
51071833672
51071838371
51071845085
51071849602
51071854912
51071861015
51071865715
51071870110
51071874748
51071881462
51071886528
51071892510
51071897636
51071902641
51071906120
51071912041
51071917717
51071923149
51071929131
51071933891
51071939262
51071944084
51071949516
51071954216
51071960441
51071964836
51071970512
51071974357
51071979973
51071984001
51071990104
51071995903
51072000969
51072006889
51072011528
51072015922
51072020744
51072025932
51072031303
51072036613
51072041374
51072047294
51072051384
51072057487
51072062553
51072067314
51072072990
51072078117
51072083549
51072088310
51072093437
51072098686
51072103691
51072109123
51072115409
51072118827
51072125663
51072131828
51072137077
51072142631
51072148185
51072152824
51072158744
51072163444
51072169730
51072174857
51072180351
51072184562
51072190849
51072196525
51072201347
51072206962
51072211539
51072216544
51072221183
51072226737
51072232291
51072237052
51072241019
51072247428
51072251273
51072256644
51072261039
51072267875
51072273490
51072278129
51072282706
51072287467
51072292167
51072296805
51072303885
51072308097
51072313712
51072318107
51072323111
51072328238
51072333121
51072339774
51072344718
51072350089
51072354789
51072360404
51072365409
51072370108
51072374137
51072380545
51072386161
51072391043
51072395865
51072400626
51072406790
51072411551
51072418204
51072422476
51072429373
51072434500
51072440604
51072447257
51072453177
51072458487
51072463797
51072469840
51072474967
51072479300
51072485831
51072490408
51072496329
51072502127
51072507437
51072513113
51072518240
51072524466
51072529654
51072534842
51072541251
51072546866
51072551810
51072557669
51072563162
51072569266
51072572439
51072579764
51072584646
51072589468
51072594290
51072598623
51072606558
51072612784
51072616263
51072621817
51072627310
51072632254
51072636770
51072643606
51072648855
51072653433
51072658682
51072663870
51072668997
51072675222
51072680471
51072687185
51072693228
51072698416
51072703421
51072708609
51072714773
51072720999
51072726248
51072731191
51072736379
51072741934
51072747671
51072752798
51072759084
51072762930
51072768728
51072773916
51072778921
51072785207
51072790273
51072795889
51072801015
51072806692
51072811086
51072815908
51072822134
51072827871
51072832449
51072837881
51072842886
51072848928
51072853200
51072859853
51072866079
51072872182
51072877798
51072880910
51072888357
51072894155
51072898427
51072905629
51072910940
51072915883
51072922048
51072926687
51072935048
51072940847
51072946401
51072951223
51072956044
51072961293
51072968373
51072972341
51072978627
51072983266
51072989370
51072994557
51073000600
51073007009
51073013112
51073018727
51073023244
51073027211
51073033864
51073038991
51073044972
51073051381
51073056691
51073061513
51073066396
51073071523
51073076283
51073083119
51073088185
51073093251
51073098195
51073103444
51073108022
51073114308
51073120290
51073125294
51073130849
51073134938
51073140858
51073146107
51073150929
51073157338
51073161671
51073167775
51073172597
51073177662
51073180714
51073188832
51073193654
51073199818
51073204457
51073210072
51073214345
51073221119
51073228749
51073234303
51073238636
51073242421
51073249012
51073254383
51073259449
51073265614
51073270131
51073275868
51073280873
51073287037
51073291310
51073297169
51073303517
51073308766
51073313832
51073319813
51073324146
51073333302
51073338917
51073342884
51073348927
51073352894
51073360096
51073364918
51073370106
51073376331
51073380299
51073387318
51073392933
51073398243
51073404163
51073408741
51073414844
51073418934
51073425281
51073430164
51073434986
51073441029
51073445911
51073450855
51073455738
51073462025
51073465870
51073471912
51073476246
51073482166
51073487415
51073493335
51073497669
51073502308
51073507801
51073512623
51073518726
51073524158
51073528492
51073533497
51073538623
51073542713
51073549427
51073552234
51073560108
51073565296
51073569934
51073575672
51073579334
51073585742
51073589405
51073595874
51073600513
51073606494
51073610462
51073616626
51073621814
51073626514
51073631214
51073637439
51073642505
51073647693
51073652149
51073657337
51073662830
51073666919
51073672962
51073677905
51073682727
51073687549
51073693347
51073697864
51073702686
51073707996
51073713306
51073718921
51073724597
51073731433
51073734607
51073743030
51073748279
51073753772
51073758838
51073765063
51073770251
51073775989
51073781054
51073786487
51073791553
51073797168
51073802417
51073807544
51073812243
51073818530
51073823718
51073829882
51073834460
51073839404
51073845996
51073850268
51073855883
51073860095
51073867419
51073870776
51073877917
51073882983
51073887866
51073893054
51073898242
51073903247
51073907580
51073914050
51073918872
51073923693
51073928393
51073934313
51073939929
51073944811
51073950182
51073955126
51073960253
51073965441
51073970446
51073974658
51073982165
51073986987
51073991808
51073996325
51074002123
51074006579
51074011340
51074018359
51074022997
51074028551
51074032702
51074039355
51074044298
51074049059
51074052294
51074060107
51074064867
51074069689
51074075731
51074080980
51074085070
51074090380
51074097155
51074100451
51074106981
51074111803
51074116381
51074121264
51074126207
51074133898
51074138109
51074143114
51074148180
51074153612
51074157640
51074163622
51074169054
51074173937
51074179674
51074184557
51074189318
51074194139
51074199755
51074205126
51074210924
51074215380
51074220812
51074224779
51074230272
51074236009
51074240709
51074245531
51074252306
51074257372
51074262987
51074267809
51074272813
51074277940
51074282213
51074288316
51074293810
51074298448
51074303392
51074308214
51074313524
51074318285
51074324266
51074329820
51074334947
51074338853
51074344163
51074350206
51074355455
51074358507
51074365587
51074370836
51074375596
51074380723
51074385362
51074391038
51074394578
51074401414
51074405687
51074411302
51074415269
51074421006
51074427110
51074431749
51074436448
51074441514
51074447557
51074452562
51074457261
51074462510
51074466539
51074471971
51074478562
51074481980
51074489854
51074494493
51074499070
51074504319
51074509202
51074515611
51074520005
51074525743
51074529832
51074535813
51074539781
51074545701
51074552354
51074557237
51074563706
51074567368
51074573533
51074578477
51074582810
51074588425
51074594346
51074597703
51074604295
51074610215
51074615037
51074619920
51074624741
51074631150
51074636704
51074641221
51074646287
51074651780
51074656541
51074661606
51074667405
51074672410
51074677476
51074683457
51074688523
51074692063
51074697190
51074702073
51074709153
51074713852
51074719773
51074725083
51074729844
51074734299
51074739121
51074745713
51074750534
51074757126
51074761216
51074768113
51074772934
51074779404
51074784775
51074789963
51074795944
51074801010
51074806137
51074810166
51074815720
51074819687
51074825791
51074831833
51074836472
51074841477
51074846298
51074850632
51074855576
51074861984
51074867661
51074872543
51074876572
51074882187
51074886093
51074892746
51074897934
51074903122
51074908920
51074913681
51074918076
51074922836
51074928635
51074933700
51074939072
51074943405
51074949631
51074953476
51074959030
51074964279
51074968918
51074973861
51074979904
51074985458
51074988937
51074994125
51074999191
51075004745
51075008957
51075015365
51075021286
51075026168
51075031051
51075035812
51075040817
51075045639
51075052353
51075056015
51075061996
51075066024
51075071762
51075075729
51075082321
51075088119
51075093063
51075098251
51075103073
51075108871
51075113510
51075118575
51075123947
51075129318
51075134933
51075140121
51075143966
51075149642
51075155685
51075160507
51075165389
51075171615
51075176742
51075181503
51075187118
51075192367
51075197066
51075202987
51075209212
51075212203
51075218063
51075221969
51075228866
51075233382
51075238387
51075244002
51075248702
51075255111
51075259261
51075265731
51075271468
51075276351
51075282149
51075287581
51075293075
51075299056
51075303695
51075309005
51075313826
51075320174
51075325667
51075331527
51075336531
51075342086
51075348189
51075353560
51075359053
51075364547
51075370101
51075373030
51075379317
51075383162
51075390181
51075395308
51075401839
51075406783
51075410994
51075416976
51075421004
51075427046
51075432784
51075437727
51075443099
51075447920
51075453841
51075457442
51075463240
51075468489
51075474654
51075478987
51075483809
51075489485
51075494368
51075499678
51075504561
51075507613
51075515364
51075520918
51075524458
51075530501
51075534285
51075539900
51075545393
51075550642
51075555403
51075561140
51075567061
51075571943
51075576033
51075582075
51075587202
51075592329
51075597639
51075601790
51075608809
51075613936
51075618940
51075622175
51075630232
51075635176
51075639936
51075645063
51075650190
51075656050
51075660505
51075666365
51075669538
51075677412
51075681990
51075686628
51075691938
51075697187
51075703901
51075708296
51075713484
51075719526
51075724348
51075729597
51075734358
51075737592
51075746076
51075750898
51075756269
51075760786
51075766035
51075770795
51075775129
51075782697
51075787580
51075792280
51075797041
51075801923
51075807478
51075812299
51075818769
51075822919
51075827741
51075832929
51075838727
51075843976
51075848859
51075853864
51075858930
51075864179
51075868879
51075874799
51075880048
51075884748
51075890180
51075896283
51075899335
51075905561
51075910444
51075915326
51075920331
51075926435
51075932599
51075936994
51075941877
51075947004
51075952314
51075956830
51075962934
51075968061
51075974225
51075979535
51075984357
51075988935
51075994184
51075998883
51076004193
51076009992
51076016095
51076020978
51076023786
51076030316
51076036420
51076042401
51076048200
51076054242
51076058759
51076062726
51076069196
51076072186
51076079388
51076084393
51076089276
51076095135
51076099957
51076106122
51076111249
51076115765
51076120038
51076126935
51076131879
51076137799
51076142987
51076146832
51076153119
51076158429
51076164776
51076169232
51076174176
51076180218
51076185101
51076190106
51076195111
51076201519
51076206463
51076212506
51076217205
51076223858
51076230023
51076235272
51076240765
51076246075
51076253277
51076258587
51076263653
51076269696
51076274761
51076281842
51076285748
51076291973
51076298565
51076303448
51076308575
51076313336
51076320477
51076324688
51076330853
51076335980
51076340801
51076343548
51076350994
51076355267
51076361614
51076366863
51076372234
51076376629
51076381756
51076387066
51076391277
51076397869
51076403301
51076408123
51076413128
51076418072
51076423260
51076428203
51076434612
51076439251
51076444256
51076449444
51076454571
51076458782
51076464580
51076468853
51076475017
51076480572
51076485454
51076490581
51076495403
51076500469
51076505230
51076511699
51076516033
51076521953
51076526165
51076532634
51076537456
51076542278
51076548564
51076554424
51076559124
51076563091
51076569622
51076572429
51076579082
51076584636
51076589641
51076594890
51076599163
51076605144
51076610820
51076615459
51076621196
51076626628
51076631450
51076636150
51076642253
51076647563
51076652080
51076659282
51076664104
51076669902
51076674236
51076680644
51076685283
51076690349
51076695720
51076701396
51076706035
51076711528
51076716594
51076719462
51076726848
51076732341
51076736430
51076744060
51076749919
51076755900
51076763103
51076770061
51076773967
51076780864
51076786662
51076793071
51076797770
51076803691
51076809550
51076815532
51076821147
51076826762
51076832927
51076837382
51076844523
51076849345
51076854533
51076859965
51076864909
51076869425
51076875163
51076881022
51076886759
51076891825
51076896769
51076903300
51076909464
51076914652
51076919962
51076925395
51076930949
51076936625
51076942606
51076947428
51076954325
51076958903
51076965922
51076970988
51076976420
51076982279
51076986491
51076992167
51076996561
51077002299
51077005106
51077011698
51077018351
51077022745
51077028788
51077033732
51077038553
51077044474
51077048441
51077055216
51077061564
51077066569
51077070902
51077076334
51077081522
51077087870
51077094767
51077099833
51077106241
51077110148
51077117533
51077122904
51077127665
51077134073
51077140177
51077145182
51077150553
51077155985
51077162455
51077166544
51077172403
51077176554
51077182291
51077187662
51077192301
51077198831
51077203470
51077209635
51077215006
51077220377
51077227274
51077232767
51077238016
51077242899
51077247110
51077253580
51077258951
51077264383
51077270364
51077275797
51077282571
51077287942
51077290689
51077298685
51077304178
51077309427
51077314981
51077320718
51077325418
51077331460
51077337686
51077343545
51077348550
51077354898
51077360147
51077364725
51077371377
51077377786
51077381631
51077387307
51077392068
51077397012
51077403116
51077407388
51077414834
51077419473
51077424539
51077431558
51077436441
51077441384
51077447427
51077451516
51077458474
51077462930
51077467996
51077474160
51077480752
51077485879
51077491006
51077495828
51077501626
51077506997
51077511636
51077517739
51077523477
51077528115
51077533547
51077539346
51077546059
51077551125
51077555825
51077561501
51077568093
51077572854
51077578042
51077582986
51077588174
51077592690
51077598977
51077605202
51077609170
51077615517
51077620217
51077624734
51077630837
51077635415
51077642129
51077647317
51077652505
51077657143
51077663857
51077668618
51077673745
51077679238
51077684121
51077689187
51077693947
51077701333
51077707375
51077712380
51077718422
51077724099
51077730202
51077736245
51077741799
51077747109
51077751442
51077757119
51077760109
51077768105
51077774575
51077780495
51077786843
51077792702
51077798928
51077803627
51077809303
51077813454
51077820778
51077827187
51077833473
51077839577
51077844765
51077849587
51077856056
51077862587
51077868752
51077873695
51077880470
51077885353
51077891273
51077897072
51077902077
51077910377
51077916115
51077919960
51077926124
51077931496
51077936378
51077942848
51077947304
51077953407
51077958473
51077964454
51077970558
51077976295
51077981666
51077987770
51077992653
51077999122
51078004005
51078008949
51078016273
51078020668
51078025428
51078031715
51078035560
51078041786
51078047401
51078053993
51078058509
51078062843
51078068885
51078075416
51078080909
51078085914
51078091163
51078096534
51078103980
51078108863
51078113868
51078120582
51078125770
51078131629
51078137061
51078142066
51078146888
51078151649
51078158546
51078163184
51078168922
51078174903
51078179664
51078185950
51078191871
51078195838
51078201759
51078207435
51078212073
51078219276
51078224097
51078230079
51078236060
51078240943
51078247840
51078252845
51078257972
51078264747
51078270240
51078274878
51078280616
51078285743
51078291053
51078297522
51078302344
51078308692
51078313758
51078321021
51078325660
51078331153
51078335913
51078341712
51078347998
51078353797
51078358069
51078363806
51078370398
51078374976
51078381995
51078387976
51078392981
51078399512
51078403174
51078410437
51078416785
51078421240
51078427710
51078432837
51078439124
51078445532
51078451514
51078457373
51078463538
51078468298
51078473364
51078481482
51078486731
51078491614
51078497229
51078501990
51078507727
51078512183
51078519568
51078525244
51078529150
51078535193
51078540320
51078545386
51078551794
51078556311
51078564062
51078568945
51078574194
51078579748
51078585608
51078590857
51078595800
51078601477
51078606726
51078611609
51078616858
51078624060
51078628332
51078634314
51078640051
51078645971
51078651831
51078657812
51078662817
51078669287
51078673193
51078679968
51078684912
51078689611
51078696508
51078700353
51078706945
51078711462
51078716467
51078722387
51078728307
51078732946
51078738867
51078743444
51078749426
51078753271
51078758947
51078764257
51078770422
51078775121
51078781042
51078785924
51078791601
51078796423
51078801733
51078806371
51078813940
51078818273
51078823949
51078828710
51078834020
51078840124
51078846471
51078851110
51078856420
51078861303
51078866308
51078870641
51078877904
51078882421
51078887487
51078893102
51078897496
51078904271
51078910375
51078915441
51078921300
51078927343
51078934056
51078940038
51078946202
51078951451
51078957189
51078962377
51078968602
51078973851
51078978795
51078985814
51078990941
51078997655
51079003209
51079007970
51079012608
51079019811
51079023656
51079030736
51079036107
51079042088
51079048314
51079054112
51079059239
51079065953
51079071080
51079076024
51079082738
51079087193
51079093358
51079099950
51079104893
51079109532
51079114964
51079119725
51079124058
51079131444
51079136571
51079142125
51079146763
51079150426
51079156956
51079159886
51079167882
51079172764
51079178196
51079182957
51079187291
51079194432
51079199864
51079206517
51079211094
51079216710
51079221287
51079227330
51079231419
51079238377
51079242832
51079247837
51079253086
51079258030
51079263096
51079267246
51079275364
51079280674
51079285618
51079289768
51079295017
51079300511
51079304722
51079311497
51079316746
51079321812
51079326389
51079331760
51079337864
51079343662
51079348362
51079354404
51079358860
51079364536
51079368809
51079375584
51079381565
51079387546
51079392857
51079398960
51079403538
51079408176
51079413364
51079418430
51079424351
51079429478
51079434116
51079438877
51079445652
51079449131
51079456882
51079461765
51079467808
51079472263
51079476780
51079482578
51079487705
51079493747
51079499424
51079503940
51079508884
51079514011
51079520359
51079525486
51079532199
51079537021
51079541538
51079547031
51079552768
51079557651
51079562473
51079569309
51079573886
51079578891
51079584873
51079589939
51079594516
51079599277
51079605197
51079611179
51079615756
51079621799
51079625827
51079631259
51079635593
51079642368
51079647128
51079652377
51079657016
51079661960
51079668002
51079673129
51079678378
51079685153
51079691684
51079696933
51079702487
51079705234
51079714572
51079720798
51079725925
51079730624
51079737277
51079743319
51079748019
51079754611
51079761142
51079766696
51079772311
51079778048
51079784152
51079789279
51079794345
51079801364
51079806491
51079812228
51079818820
51079824069
51079829257
51079836337
51079840121
51079846225
51079853244
51079857760
51079864352
51079869479
51079875033
51079880587
51079886141
51079893099
51079897982
51079902926
51079908175
51079913607
51079919283
51079926486
51079932284
51079938204
51079943453
51079947543
51079955355
51079961520
51079967623
51079973421
51079978793
51079984225
51079989413
51079993624
51080000094
51080005953
51080012728
51080017306
51080022310
51080027621
51080034640
51080038607
51080045382
51080051058
51080056185
51080061922
51080068636
51080073763
51080079561
51080084261
51080089449
51080095247
51080100801
51080105623
51080111544
51080116121
51080122042
51080126558
51080133089
51080139254
51080143160
51080150545
51080155977
51080162386
51080168550
51080171663
51080179109
51080184236
51080190584
51080195284
51080200899
51080206270
51080212373
51080217378
51080224275
51080228792
51080234651
51080239900
51080246248
51080250398
51080257784
51080263948
51080269258
51080274873
51080280305
51080285066
51080290987
51080296052
51080302400
51080307039
51080313447
51080319002
51080322969
51080329683
51080334077
51080339998
51080346528
51080352327
51080357515
51080362886
51080368684
51080373811
51080380159
51080384431
51080389863
51080396577
51080401155
51080407319
51080412141
51080417390
51080425203
51080431001
51080435640
51080441682
51080446015
51080452668
51080457978
51080462983
51080469636
51080474885
51080480134
51080485200
51080490510
51080497285
51080502900
51080507539
51080513215
51080518342
51080523347
51080527802
51080534455
51080540131
51080546174
51080550629
51080554719
51080562531
51080567902
51080571992
51080579255
51080584626
51080589570
51080595978
51080602570
51080608308
51080613801
51080619416
51080625092
51080634614
51080647370
51080656037
51080661896
51080668549
51080674042
51080681916
51080688569
51080694489
51080700104
51080705719
51080710663
51080717377
51080722199
51080729035
51080733734
51080740937
51080745331
51080752472
51080757965
51080763520
51080768830
51080773590
51080781037
51080786041
51080792633
51080799530
51080804962
51080810272
51080816925
51080821869
51080827179
51080833099
51080838654
51080842743
51080848969
51080853912
51080858673
51080865143
51080869659
51080877655
51080882477
51080887970
51080892731
51080898956
51080902984
51080910126
51080915802
51080919586
51080926056
51080932648
51080938629
51080943695
51080949127
51080956146
51080961883
51080966888
51080972870
51080978607
51080984405
51080989593
51080995819
51080999359
51081007782
51081013092
51081017974
51081023590
51081027618
51081034576
51081040863
51081044891
51081051544
51081057525
51081061431
51081068756
51081074920
51081079803
51081084747
51081090423
51081095916
51081102447
51081107208
51081114776
51081119232
51081124236
51081132110
51081135589
51081142059
51081147674
51081152679
51081159209
51081165191
51081169219
51081174834
51081180755
51081186248
51081192535
51081197051
51081202300
51081208343
51081212981
51081218902
51081223296
51081230193
51081236541
51081241240
51081247283
51081253814
51081258696
51081263945
51081270110
51081274566
51081279815
51081285308
51081291228
51081298369
51081304473
51081308745
51081314910
51081320037
51081325530
51081329863
51081337065
51081342620
51081346221
51081352080
51081356108
51081364226
51081370452
51081375273
51081380400
51081384307
51081390105
51081395964
51081401701
51081407622
51081413298
51081418059
51081423003
51081429045
51081434721
51081440947
51081446318
51081450713
51081455595
51081460966
51081465056
51081472319
51081476164
51081480803
51081486479
51081491301
51081496550
51081502531
51081508574
51081514616
51081519926
51081525114
51081530302
51081536711
51081541105
51081547148
51081552763
51081558256
51081562162
51081567534
51081573881
51081578825
51081584074
51081590300
51081594511
51081599638
51081605192
51081610319
51081617399
51081622099
51081627897
51081632292
51081639311
51081643705
51081649198
51081653959
51081658842
51081663969
51081668852
51081673429
51081678861
51081683500
51081690519
51081695280
51081700651
51081706144
51081711149
51081716581
51081721098
51081727201
51081733732
51081738310
51081742948
51081747831
51081753080
51081758695
51081765470
51081770414
51081774992
51081779630
51081785734
51081789762
51081794523
51081801298
51081807218
51081812223
51081816862
51081821500
51081826749
51081831510
51081837797
51081842496
51081848966
51081853483
51081857999
51081864042
51081867704
51081873929
51081878019
51081885038
51081890714
51081895353
51081899869
51081904447
51081911161
51081916715
51081921720
51081927030
51081931546
51081936429
51081941007
51081947660
51081952176
51081958463
51081963162
51081967557
51081972928
51081978116
51081983365
51081988614
51081993497
51081999295
51082004056
51082009610
51082016690
51082021390
51082027249
51082032254
51082037198
51082042203
51082047696
51082054410
51082058804
51082065396
51082070828
51082075284
51082081387
51082085599
51082092740
51082095914
51082103665
51082108060
51082112637
51082117825
51082123440
51082129056
51082136197
51082141690
51082145962
51082150296
51082157254
51082162320
51082167325
51082174283
51082180447
51082183987
51082190396
51082195034
51082202664
51082207852
51082213467
51082219448
51082224331
51082229214
51082235318
51082240811
51082246792
51082251553
51082256985
51082263211
51082269863
51082275662
51082280300
51082284634
51082291897
51082296597
51082302639
51082308865
51082314297
51082319058
51082324612
51082330349
51082335720
51082341885
51082347134
51082352749
51082358974
51082364162
51082369045
51082375088
51082381008
51082384670
51082391323
51082397182
51082403408
51082409267
51082415615
51082421413
51082427944
51082433315
51082438564
51082444668
51082449062
51082455105
51082461574
51082466640
51082471218
51082477504
51082482265
51082489162
51082492946
51082499477
51082503933
51082508876
51082514553
51082520961
51082526210
51082531398
51082537746
51082542995
51082548244
51082554164
51082560024
51082566005
51082571254
51082576137
51082581142
51082587612
51082592983
51082598903
51082603908
51082610256
51082614284
51082621669
51082627101
51082631801
51082637721
51082643153
51082647853
51082653651
51082658900
51082665492
51082670314
51082675197
51082682216
51082686183
51082692409
51082698024
51082703273
51082709193
51082715419
51082719264
51082726405
51082731166
51082736049
51082742152
51082746425
51082752711
51082757777
51082762355
51082768885
51082773341
51082780360
51082785548
51082790919
51082796595
51082801905
51082807460
51082813380
51082819117
51082824427
51082829737
51082834498
51082840968
51082845301
51082851710
51082856654
51082862330
51082867884
51082872828
51082879725
51082885096
51082889185
51082895350
51082901392
51082906825
51082912623
51082917750
51082922938
51082928980
51082932887
51082939356
51082945460
51082949244
51082956263
51082962550
51082967554
51082974207
51082980067
51082986231
51082989344
51082997278
51083002344
51083006373
51083012476
51083016077
51083023035
51083027674
51083033960
51083040064
51083044397
51083049585
51083056543
51083061731
51083067347
51083072474
51083077173
51083082483
51083087061
51083094385
51083099817
51083104883
51083110437
51083115381
51083120691
51083128443
51083133387
51083139551
51083145105
51083150476
51083155481
51083159693
51083167261
51083173792
51083177637
51083184595
51083187464
51083194177
51083198877
51083203882
51083210046
51083214990
51083220300
51083226587
51083231958
51083237512
51083243066
51083248560
51083253809
51083260095
51083264429
51083270410
51083276025
51083280542
51083286340
51083291833
51083297327
51083303308
51083308130
51083313623
51083320886
51083324426
51083332971
51083338281
51083342492
51083349145
51083355066
51083359399
51083365869
51083370569
51083376855
51083382592
51083389001
51083394128
51083399743
51083403955
51083410852
51083416223
51083421411
51083428063
51083430932
51083437524
51083443994
51083448266
51083454675
51083460717
51083464746
51083471459
51083475671
51083483788
51083488061
51083492333
51083499169
51083504846
51083508447
51083515282
51083520837
51083525536
51083530724
51083536401
51083542077
51083547936
51083553124
51083559350
51083563317
51083569970
51083574792
51083579980
51083586266
51083590661
51083596459
51083602074
51083606103
51083613122
51083617882
51083623131
51083629906
51083634911
51083640526
51083646142
51083651513
51083657189
51083663109
51083668236
51083673119
51083677086
51083683983
51083689598
51083694664
51083700585
51083706627
51083712487
51083719384
51083725548
51083730675
51083738365
51083743737
51083747521
51083754173
51083758751
51083764488
51083771752
51083776573
51083781456
51083786095
51083790672
51083796898
51083803246
51083807701
51083814293
51083819359
51083824120
51083831017
51083837120
51083841759
51083848228
51083852135
51083857933
51083861107
51083868797
51083875511
51083879295
51083884971
51083890037
51083895164
51083901207
51083907860
51083912498
51083918663
51083922691
51083928123
51083933006
51083939476
51083944236
51083949974
51083954429
51083958091
51083964317
51083969871
51083974754
51083981773
51083988243
51083993431
51084000389
51084006370
51084010215
51084016746
51084022850
51084026695
51084034690
51084040306
51084046287
51084050804
51084057395
51084062034
51084068565
51084073875
51084078880
51084085288
51084089500
51084096092
51084100913
51084106345
51084112571
51084117820
51084124717
51084130149
51084134788
51084140769
51084146445
51084151328
51084156821
51084162315
51084166953
51084172141
51084177573
51084185386
51084189841
51084195762
51084203086
51084207725
51084212668
51084220481
51084225059
51084231406
51084237082
51084242148
51084247886
51084252890
51084258201
51084264426
51084270163
51084275779
51084281211
51084285849
51084293113
51084297202
51084302390
51084309531
51084313437
51084319785
51084326010
51084330649
51084336508
51084341635
51084346884
51084351889
51084356101
51084361960
51084368552
51084372885
51084379477
51084383872
51084388815
51084394736
51084399252
51084406821
51084411826
51084415732
51084421652
51084428366
51084433493
51084439352
51084443442
51084449606
51084455099
51084460226
51084466330
51084472128
51084477682
51084482687
51084486716
51084490805
51084494467
51084499594
51084504538
51084509604
51084514059
51084517599
51084522238
51084526632
51084530661
51084535055
51084538290
51084543112
51084547873
51084551352
51084554709
51084558737
51084561606
51084566122
51084570700
51084574789
51084579611
51084584066
51084590231
51084594809
51084599935
51084603598
51084607565
51084611654
51084616354
51084620382
51084623739
51084630453
51084634237
51084638082
51084643392
51084647604
51084651449
51084657125
51084660909
51084665060
51084670553
51084675009
51084678610
51084684774
51084688986
51084694357
51084697897
51084702535
51084706930
51084712789
51084717184
51084721151
51084724935
51084729269
51084732748
51084737325
51084742269
51084746297
51084750326
51084755025
51084759603
51084764059
51084768331
51084772848
51084777364
51084781515
51084785299
51084790670
51084794942
51084799520
51084803121
51084807088
51084811910
51084817342
51084820760
51084826253
51084830160
51084834493
51084838949
51084841329
51084846822
51084851705
51084855550
51084860738
51084865682
51084871114
51084874776
51084878865
51084883931
51084887960
51084893087
51084896566
51084903829
51084910176
51084915120
51084920430
51084925252
51084928243
51084933492
51084937337
51084942098
51084947225
51084952474
51084959798
51084964559
51084971761
51084977498
51084984639
51084991963
51084997762
51085005635
51085010640
51085018330
51085024617
51085030232
51085035786
51085039021
51085049031
51085054280
51085062703
51085069173
51085074971
51085082600
51085089741
51085095296
51085100545
51085110127
51085117390
51085125264
51085131306
51085137593
51085143513
51085147847
51085157551
51085162556
51085170796
51085178242
51085185383
51085190937
51085196247
51085202412
51085208760
51085215107
51085220845
51085230000
51085236408
51085241719
51085252583
51085257466
51085266621
51085273579
51085280476
51085286884
51085291218
51085301899
51085309345
51085316059
51085322895
51085329975
51085336140
51085344013
51085350239
51085355488
51085364826
51085371784
51085377888
51085385334
51085388080
51085396137
51085402851
51085409748
51085415302
51085418781
51085429828
51085436359
51085444904
51085451923
51085459858
51085466571
51085473774
51085480426
51085483661
51085495319
51085500934
51085508502
51085515338
51085522174
51085528461
51085533344
51085541522
51085549091
51085556171
51085562396
51085569415
51085575458
51085579852
51085586444
51085592731
51085599201
51085607318
51085612262
51085620441
51085627643
51085633380
51085639239
51085645770
51085651507
51085658160
51085664325
51085670184
51085678302
51085684222
51085691241
51085696857
51085703509
51085708758
51085716449
51085719073
51085726947
51085734332
51085740863
51085748492
51085755328
51085761004
51085768451
51085774493
51085781024
51085787432
51085793109
51085801593
51085807696
51085810687
51085821673
51085826617
51085835833
51085844317
51085850421
51085857562
51085865069
51085871661
51085874102
51085883868
51085887652
51085894427
51085900347
51085904681
51085913287
51085917437
51085926348
51085933306
51085940264
51085948016
51085950457
51085959185
51085965777
51085973467
51085989702
51085998919
51086006975
51086016314
51086021074
51086030108
51086037310
51086042803
51086049395
51086057390
51086064165
51086068621
51086076982
51086083818
51086090227
51086096147
51086100664
51086107683
51086114702
51086124956
51086130876
51086133501
51086143694
51086148149
51086154436
51086160478
51086166826
51086172991
51086179765
51086187395
51086194658
51086200151
51086206194
51086210588
51086217790
51086224016
51086231340
51086237138
51086242998
51086252031
51086258928
51086264848
51086270769
51086277299
51086283403
51086289750
51086296831
51086302934
51086311540
51086317949
51086320451
51086329179
51086335588
51086342607
51086348771
51086354936
51086360795
51086365129
51086374528
51086381242
51086389115
51086394975
51086399675
51086408219
51086414628
51086420060
51086425675
51086430924
51086439836
51086444840
51086453507
51086460038
51086466264
51086471940
51086474564
51086483170
51086489884
51086499284
51086506059
51086513139
51086521378
51086526078
51086534806
51086541459
51086546647
51086552323
51086557389
51086568009
51086572953
51086582596
51086588212
51086597428
51086604142
51086611466
51086618180
51086625626
51086631974
51086637284
51086648575
51086651383
51086661881
51086666153
51086674088
51086680741
51086686051
51086695145
51086702652
51086710282
51086716507
51086723099
51086729386
51086731888
51086741593
51086745255
51086755692
51086762772
51086767838
51086773575
51086778336
51086787491
51086791641
51086798477
51086804337
51086809280
51086820023
51086828018
51086834976
51086841141
51086848038
51086854080
51086858414
51086866531
51086870682
51086880691
51086886856
51086889847
51086899917
51086904617
51086913284
51086917190
51086925918
51086931900
51086937149
51086948135
51086953201
51086961197
51086967178
51086973037
51086978775
51086986465
51086992202
51086998916
51087006729
51087013565
51087021255
51087026992
51087031509
51087038467
51087044143
51087051467
51087058486
51087064041
51087075210
51087082290
51087088393
51087096145
51087098830
51087107375
51087113723
51087120742
51087126418
51087137038
51087143935
51087152358
51087157973
51087162551
51087169448
51087175185
51087183791
51087189589
51087194594
51087204543
51087209426
51087217116
51087223586
51087226210
51087236709
51087241286
51087248427
51087254531
51087264479
51087271498
51087278762
51087284804
51087291091
51087296401
51087302260
51087309401
51087315505
51087323317
51087329726
51087336928
51087344863
51087348647
51087356337
51087361952
51087366469
51087375075
51087383498
51087390273
51087398451
51087401320
51087409804
51087416090
51087422438
51087428664
51087435561
51087441542
51087446425
51087455214
51087462294
51087468397
51087474135
51087481520
51087487379
51087491957
51087500807
51087504591
51087513868
51087520277
51087526564
51087534559
51087539320
51087546400
51087553175
51087559156
51087565138
51087570021
51087580213
51087586012
51087593458
51087599378
51087607069
51087612684
51087617262
51087625868
51087629591
51087638685
51087645094
51087652906
51087659071
51087663465
51087671583
51087677931
51087682691
51087690504
51087693739
51087707227
51087713148
51087721754
51087725843
51087734510
51087740247
51087742872
51087751295
51087757886
51087766675
51087774549
51087779249
51087787183
51087792676
51087798536
51087804944
51087811170
51087817334
51087825879
51087834790
51087840406
51087850660
51087856580
51087864942
51087871595
51087879163
51087885450
51087894239
51087901013
51087906568
51087914258
51087920789
51087928174
51087934400
51087939404
51087946790
51087953320
51087956799
51087969067
51087977612
51087983472
51087988294
51087995190
51088001172
51088008679
51088014478
51088020520
51088030957
51088035962
51088044018
51088050000
51088056653
51088062329
51088066846
51088075574
51088079358
51088090283
51088097424
51088100232
51088112072
51088117260
51088124035
51088129956
51088137646
51088143444
51088149670
51088160107
51088165173
51088173352
51088179089
51088186230
51088192639
51088197155
51088205761
51088212414
51088219372
51088227612
51088230480
51088239941
51088244457
51088251660
51088257519
51088264477
51088270702
51088276074
51088286572
51088292553
51088300610
51088306835
51088313427
51088319591
51088325878
51088331493
51088337658
51088347240
51088353710
51088356640
51088367626
51088372143
51088378002
51088383739
51088389171
51088398205
51088403148
51088411449
51088419262
51088426342
51088432384
51088439098
51088444896
51088449962
51088457531
51088463451
51088471202
51088478099
51088485668
51088491344
51088497692
51088503490
51088510448
51088517284
51088523082
51088528087
51088536571
51088543407
51088550487
51088556224
51088563060
51088568858
51088575328
51088581615
51088587474
51088596629
51088603831
51088606700
51088617808
51088622935
51088633067
51088637889
51088644847
51088651378
51088659862
51088666942
51088671702
51088680064
51088686412
51088691417
51088697215
51088701549
51088710277
51088717112
51088725352
51088731700
51088738536
51088746043
51088748668
51088757029
51088762645
51088769847
51088775950
51088780955
51088790477
51088795481
51088803050
51088808787
51088815257
51088821238
51088825877
51088833811
51088839671
51088850230
51088859141
51088861887
51088871958
51088876414
51088882395
51088888255
51088894846
51088902720
51088908396
51088916148
51088923899
51088931101
51088936777
51088944590
51088950754
51088955210
51088962839
51088968516
51088977427
51088983469
51088988474
51088996958
51089003550
51089009165
51089014841
51089020762
51089026987
51089034372
51089042612
51089048471
51089058176
51089064890
51089072336
51089078745
51089084055
51089092722
51089100351
51089107004
51089113962
51089121469
51089127268
51089134043
51089140390
51089145883
51089152170
51089159738
51089163950
51089175668
51089178537
51089186899
51089193735
51089200876
51089206674
51089209360
51089218881
51089222848
51089231271
51089238229
51089246957
51089252572
51089255197
51089265573
51089269601
51089277231
51089283090
51089288949
51089299814
51089305246
51089312936
51089318795
51089325876
51089331674
51089336190
51089344369
51089350961
51089358468
51089364816
51089367746
51089376229
51089383065
51089389108
51089394967
51089401925
51089408029
51089412850
51089422372
51089430428
51089436471
51089442452
51089449593
51089455453
51089460641
51089469796
51089476815
51089485970
51089491830
51089499520
51089507882
51089515267
51089521676
51089526864
51089535897
51089544137
51089551400
51089559090
51089565682
51089572152
51089580269
51089586495
51089594002
51089600594
51089608346
51089617318
51089622139
51089630745
51089638680
51089645577
51089652657
51089659615
51089665902
51089672127
51089676216
51089688423
51089691231
51089702461
51089707772
51089716561
51089721260
51089729195
51089735603
51089741951
51089752022
51089759468
51089765511
51089772041
51089780769
51089787178
51089791389
51089800301
51089808601
51089815987
51089823250
51089830391
51089836311
51089839058
51089848213
51089855110
51089862312
51089868843
51089878486
51089886177
51089891243
51089900459
51089907966
51089913887
51089921333
51089928779
51089935493
51089944343
51089952827
51089959724
51089962898
51089972297
51089979682
51089987922
51089992317
51090001594
51090007942
51090013618
51090023200
51090030891
51090036567
51090043098
51090048286
51090057136
51090064460
51090070441
51090076972
51090082893
51090094245
51090101875
51090107490
51090114265
51090122748
51090129523
51090134589
51090143745
51090150519
51090154059
51090164008
51090168830
51090179023
51090186164
51090192817
51090199653
51090204596
51090211982
51090218818
51090229194
51090236579
51090243598
51090250190
51090257697
51090263617
51090270331
51090275397
51090284980
51090289496
51090298773
51090306159
51090308905
51090322943
51090327948
51090335028
51090341986
51090350043
51090356329
51090361884
51090371466
51090376715
51090384650
51090391180
51090400458
51090406805
51090411139
51090420843
51090427435
51090436041
51090443243
51090448492
51090457953
51090465948
51090472601
51090479620
51090487860
51090496710
51090500250
51090512457
51090518438
51090525518
51090532904
51090542913
51090549932
51090559393
51090566534
51090572454
51090581182
51090588751
51090596075
51090603704
51090609442
51090618902
51090626287
51090634527
51090641485
51090647344
51090657476
51090664983
51090671209
51090677984
51090685003
51090691473
51090698614
51090705450
51090713934
51090718023
51090728338
51090737005
51090743413
51090747747
51090756292
51090762639
51090767827
51090777105
51090783941
51090793157
51090800115
51090807683
51090814641
51090818853
51090827214
51090834111
51090839177
51090848027
51090855596
51090865239
51090872502
51090881047
51090887517
51090892644
51090900579
51090906926
51090913884
51090920476
51090926213
51090937444
51090944951
51090953252
51090959905
51090967290
51090973759
51090978886
51090987492
51090993962
51091003239
51091010258
51091015385
51091022893
51091029545
51091037236
51091045781
51091052739
51091059208
51091063481
51091075688
51091082768
51091090642
51091097111
51091102238
51091111638
51091115910
51091124333
51091131047
51091136357
51091146916
51091154606
51091162480
51091169133
51091172001
51091180973
51091187565
51091196842
51091203495
51091207035
51091220585
51091226383
51091233647
51091239994
51091247624
51091254643
51091259586
51091268559
51091275028
51091282902
51091289982
51091294926
51091304264
51091311710
51091317753
51091324161
51091329288
51091339237
51091346866
51091352299
51091361759
51091364994
51091375431
51091380375
51091388004
51091394657
51091402591
51091409488
51091416813
51091423832
51091431095
51091439640
51091446231
51091453250
51091462406
51091469486
51091476871
51091483768
51091487003
51091498722
51091504642
51091513614
51091520938
51091529483
51091536929
51091545474
51091554630
51091557925
51091568362
51091576114
51091581241
51091587650
51091592532
51091601993
51091608768
51091614078
51091622501
51091625552
51091636905
51091641971
51091650271
51091656009
51091662906
51091668399
51091675113
51091681888
51091687930
51091696902
51091703860
51091711123
51091717166
51091721927
51091728701
51091734805
51091737307
51091745913
51091752993
51091762454
51091769412
51091776492
51091782656
51091787051
51091795535
51091799746
51091807742
51091813662
51091816653
51091827639
51091834597
51091842471
51091848391
51091855166
51091861269
51091867007
51091872927
51091879763
51091886721
51091892825
51091900576
51091906741
51091914370
51091919131
51091925112
51091932741
51091938418
51091943606
51091954287
51091961550
51091969118
51091975283
51091977846
51091986025
51091992800
51091998354
51092004091
51092009340
51092019289
51092025148
51092033693
51092039614
51092049929
51092055056
51092064394
51092072267
51092079592
51092086672
51092089418
51092100221
51092105165
51092114198
51092120424
51092129091
51092135866
51092141298
51092149477
51092156984
51092164003
51092170717
51092177614
51092184206
51092191774
51092197145
51092203493
51092209352
51092218873
51092224794
51092233888
51092240541
51092243226
51092251954
51092259279
51092265931
51092272218
51092275514
51092287538
51092293397
51092300782
51092307985
51092311158
51092320192
51092325074
51092334474
51092340577
51092349305
51092355653
51092361940
51092369691
51092374513
51092381898
51092385804
51092394044
51092399964
51092405274
51092413941
51092421082
51092426087
51092434083
51092436585
51092445924
51092450379
51092458009
51092464173
51092471314
51092479615
51092482728
51092492432
51092496949
51092504822
51092510743
51092513245
51092522340
51092530030
51092538270
51092546082
51092552064
51092558045
51092562684
51092570740
51092577332
51092582581
51092588257
51092593567
51092603272
51092609009
51092618348
51092625000
51092632203
51092639344
51092648316
51092653076
51092662598
51092670227
51092676758
51092682984
51092691040
51092697632
51092702637
51092712586
51092718201
51092730225
51092735474
51092743225
51092749878
51092754944
51092763550
51092770874
51092776611
51092783020
51092788757
51092798401
51092806091
51092813232
51092819641
51092826660
51092833069
51092840515
51092846741
51092852966
51092863281
51092872131
51092875793
51092884948
51092891418
51092899658
51092906311
51092912597
51092918579
51092924926
51092933349
51092942260
51092948852
51092955078
51092960205
51092968566
51092974853
51092982788
51092991271
51092999023
51093006347
51093013671
51093021179
51093027770
51093032958
51093041015
51093048095
51093055846
51093062377
51093070190
51093076904
51093085021
51093091003
51093099364
51093105712
51093112487
51093119872
51093127563
51093134032
51093142272
51093149291
51093155272
51093163695
51093168029
51093177367
51093183715
51093188781
51093198424
51093202636
51093211608
51093220946
51093224120
51093233947
51093238890
51093245970
51093254821
51093257689
51093266844
51093274901
51093282103
51093289916
51093293089
51093302184
51093311034
51093316466
51093323363
51093330138
51093339049
51093342162
51093354735
51093360289
51093367918
51093374937
51093377745
51093389037
51093394530
51093401060
51093409910
51093413512
51093423765
51093428770
51093437926
51093445433
51093451903
51093458433
51093463743
51093472960
51093480772
51093490416
51093497252
51093499998
51093511473
51093516905
51093524900
51093531492
51093534605
51093543821
51093551939
51093559446
51093566831
51093569761
51093579283
51093584715
51093594908
51093599424
51093607359
51093613950
51093619505
51093631590
51093636717
51093646177
51093652891
51093659422
51093666319
51093673643
51093680418
51093686826
51093694456
51093701414
51093709226
51093716611
51093724607
51093733030
51093740842
51093750364
51093757322
51093762876
51093773069
51093780942
51093788511
51093795591
51093798826
51093809507
51093817380
51093823911
51093833249
51093836545
51093847470
51093852475
51093860166
51093866391
51093873899
51093880002
51093886899
51093894589
51093900754
51093903867
51093917233
51093924069
51093929624
51093936032
51093942136
51093948056
51093950497
51093959164
51093966245
51093976743
51093982968
51093990597
51093996396
51094000973
51094008603
51094015134
51094021664
51094027280
51094032162
51094041257
51094049862
51094055417
51094061703
51094068844
51094073239
51094078183
51094086117
51094091977
51094101498
51094108639
51094116635
51094122677
51094127133
51094134579
51094140683
51094143124
51094151852
51094159176
51094165463
51094172360
51094179928
51094185726
51094192379
51094198239
51094204647
51094210385
51094216366
51094219296
51094232113
51094237362
51094244930
51094251339
51094257259
51094262936
51094267452
51094276058
51094283199
51094290218
51094297848
51094303524
51094311520
51094317623
51094323360
51094327267
51094335750
51094341732
51094344662
51094354854
51094360592
51094371090
51094377804
51094385250
51094393795
51094402462
51094410274
51094417659
51094425411
51094432796
51094439449
51094447017
51094453243
51094457820
51094465694
51094473079
51094480647
51094487422
51094494014
51094500545
51094503414
51094514766
51094519649
51094526424
51094532649
51094541560
51094550472
51094557857
51094563777
51094570857
51094577388
51094582576
51094591243
51094595027
51094603145
51094611507
51094614192
51094623408
51094631709
51094637141
51094642146
51094650874
51094655269
51094666499
51094673030
51094681392
51094687678
51094693416
51094701777
51094707454
51094714167
51094722163
51094730525
51094737788
51094746028
51094752803
51094759028
51094767329
51094771662
51094780757
51094787104
51094792719
51094802607
51094810725
51094816828
51094823420
51094830622
51094837092
51094844294
51094849604
51094858637
51094867060
51094873835
51094880793
51094887751
51094894404
51094902033
51094908564
51094916804
51094923884
51094928156
51094937983
51094945002
51094950190
51094959528
51094963923
51094973627
51094980463
51094983271
51094992914
51095001032
51095008234
51095015192
51095023371
51095031916
51095037043
51095043817
51095050165
51095059137
51095065790
51095071344
51095080866
51095085565
51095093561
51095099909
51095104975
51095114496
51095121942
51095128900
51095135492
51095138971
51095150751
51095156610
51095164850
51095171625
51095180475
51095187250
51095192255
51095200738
51095207696
51095215631
51095222650
51095225458
51095237054
51095241327
51095248895
51095255792
51095261041
51095270746
51095275140
51095285028
51095291925
51095299005
51095305597
51095313104
51095319574
51095326104
51095333062
51095339776
51095347772
51095354425
51095361993
51095369256
51095376031
51095381158
51095389642
51095397149
51095403924
51095410394
51095416070
51095425103
51095433343
51095439751
51095446282
51095453790
51095460564
51095468194
51095474664
51095481133
51095489739
51095496209
51095502007
51095511590
51095519280
51095525506
51095531975
51095537285
51095546380
51095550652
51095560784
51095567681
51095575676
51095581963
51095587151
51095594353
51095600701
51095609063
51095616021
51095624077
51095632439
51095640679
51095645745
51095654595
51095661675
51095668022
51095672295
51095680840
51095687676
51095693413
51095702690
51095710503
51095718376
51095724724
51095731499
51095738335
51095745476
51095751030
51095757988
51095763786
51095776665
51095782829
51095790642
51095797966
51095804680
51095811394
51095816582
51095825798
51095830620
51095841362
51095848747
51095856254
51095863151
51095868156
51095876823
51095883476
51095890922
51095897758
51095903129
51095913261
51095917961
51095926445
51095933219
51095938285
51095947746
51095952079
51095959648
51095968376
51095974784
51095983451
51095991569
51095996757
51096005607
51096008537
51096017326
51096024955
51096032218
51096038749
51096042045
51096053825
51096059684
51096066703
51096073539
51096079764
51096087699
51096095206
51096102836
51096109428
51096119315
51096125907
51096133353
51096139884
51096144278
51096153312
51096160087
51096167045
51096173636
51096181266
51096188590
51096195914
51096198844
51096209098
51096216910
51096224478
51096231009
51096238578
51096245475
51096250846
51096260245
51096267996
51096273551
51096280142
51096285208
51096295035
51096302115
51096308218
51096315238
51096320670
51096331351
51096336844
51096343314
51096351920
51096358694
51096365408
51096369681
51096378958
51096385672
51096389151
51096401602
51096407156
51096415091
51096421927
51096429495
51096436087
51096441641
51096450430
51096454886
51096463431
51096469778
51096475088
51096483938
51096491201
51096494314
51096506033
51096512381
51096518301
51096524710
51096534597
51096542105
51096549429
51096556387
51096561880
51096568960
51096575491
51096583547
51096590078
51096598379
51096607595
51096612905
51096621023
51096627615
51096632986
51096640859
51096647817
51096655019
51096661550
51096671011
51096677663
51096683767
51096692068
51096698842
51096706472
51096714345
51096719716
51096728078
51096732473
51096744924
51096752553
51096755361
51096764699
51096772207
51096778615
51096785207
51096790456
51096799977
51096808583
51096816701
51096823781
51096831411
51096837758
51096842824
51096850392
51096856862
51096863698
51096872609
51096878285
51096888539
51096897023
51096905141
51096912038
51096918141
51096924733
51096932301
51096937978
51096944508
51096950917
51096960988
51096968434
51096976308
51096983937
51096993886
51097001393
51097010243
51097017079
51097026661
51097033864
51097039296
51097047474
51097053944
51097061879
51097068654
51097073658
51097081166
51097088002
51097095753
51097104359
51097107716
51097116139
51097123463
51097130177
51097136647
51097142140
51097151539
51097156056
51097166615
51097172108
51097179310
51097188160
51097193165
51097200367
51097207081
51097214588
51097221058
51097227039
51097235950
51097243885
51097250965
51097257557
51097264515
51097270863
51097278065
51097285145
51097291492
51097294666
51097306629
51097312733
51097320240
51097326893
51097333790
51097340198
51097347645
51097354358
51097360828
51097371265
51097381092
51097384388
51097394580
51097401966
51097408985
51097415638
51097422962
51097429309
51097437000
51097444995
51097450366
51097458057
51097464832
51097470020
51097478137
51097484790
51097492786
51097499133
51097505115
51097514819
51097522388
51097529163
51097535876
51097542163
51097549182
51097556201
51097562366
51097570666
51097574451
51097585620
51097591846
51097601062
51097609302
51097618091
51097624804
51097633105
51097639636
51097642688
51097655993
51097661731
51097669177
51097675525
51097683093
51097689685
51097695056
51097703479
51097709765
51097714221
51097727343
51097730334
51097739306
51097743640
51097751025
51097756823
51097761462
51097769763
51097773791
51097784350
51097790759
51097798144
51097804125
51097808642
51097817431
51097821581
51097828234
51097834155
51097839648
51097851183
51097856127
51097865832
51097873827
51097881762
51097888659
51097896532
51097902758
51097906115
51097916979
51097922716
51097931444
51097936266
51097943773
51097950060
51097955919
51097964403
51097972582
51097980333
51097987658
51097990526
51098000963
51098004015
51098014818
51098019518
51098026232
51098032030
51098037462
51098046251
51098051622
51098060106
51098066881
51098072984
51098078844
51098085436
51098091539
51098095445
51098106065
51098111376
51098119615
51098125475
51098129930
51098139207
51098145738
51098151231
51098156969
51098166612
51098172655
51098177415
51098185716
51098193529
51098201158
51098207750
51098216173
51098222581
51098225694
51098235826
51098244127
51098249742
51098255723
51098263170
51098268968
51098273729
51098282029
51098288011
51098291673
51098302476
51098307420
51098316331
51098321153
51098327806
51098333726
51098338365
51098346299
51098353562
51098359727
51098366807
51098374864
51098380540
51098385056
51098393357
51098399766
51098405259
51098413010
51098416306
51098426865
51098436265
51098443040
51098450059
51098457810
51098464646
51098472520
51098479111
51098482896
51098492966
51098498215
51098508286
51098515244
51098523545
51098531052
51098538926
51098545517
