51287623403
51287629750
51287635060
51287640126
51287647450
51287651601
51287658498
51287663564
51287670338
51287676503
51287683156
51287690358
51287695546
51287702870
51287708729
51287716542
51287722035
51287731801
51287738270
51287744435
51287751759
51287758229
51287765309
51287772206
51287779957
51287786732
51287793324
51287800831
51287808522
51287817616
51287825062
51287832570
51287840504
51287848255
51287854847
51287861439
51287867115
51287876087
51287882252
51287888478
51287893849
51287899525
51287909046
51287915821
51287922535
51287927906
51287933155
51287940235
51287949513
51287956837
51287963673
51287971119
51287976795
51287983997
51287990650
51287996510
51288006275
51288010609
51288018970
51288022694
51288031727
51288038502
51288044910
51288055164
51288060291
51288067432
51288073902
51288081470
51288086475
51288094410
51288101795
51288110157
51288115833
51288121753
51288129078
51288136280
51288141956
51288149158
51288156726
51288163929
51288170887
51288177356
51288185474
51288192676
51288199817
51288205615
51288214588
51288222095
51288228809
51288236621
51288243457
51288249316
51288257007
51288263660
51288272144
51288278430
51288282214
51288290759
51288297778
51288304187
51288312244
51288319385
51288326648
51288331470
51288340381
51288345325
51288352466
51288360278
51288368335
51288374621
51288382983
51288386767
51288395251
51288401599
51288408740
51288418689
51288423938
51288431811
51288438281
51288444445
51288450915
51288457568
51288465136
51288473620
51288481738
51288489733
51288496264
51288505663
51288515612
51288521349
51288529772
51288537035
51288545825
51288553576
51288561022
51288566943
51288574511
51288582690
51288590990
51288595751
51288605273
51288611986
51288620409
51288626452
51288637072
51288645678
51288655993
51288665209
51288673266
51288680834
51288688524
51288696215
51288702196
51288711535
51288719835
51288727098
51288734911
51288742357
51288750048
51288757433
51288766466
51288774095
51288782335
51288791368
51288797045
51288804979
51288812853
51288820909
51288826830
51288836778
51288845262
51288847765
51288860521
51288869005
51288875108
51288884080
51288892198
51288901353
51288909532
51288916673
51288924669
51288927354
51288938219
51288945482
51288953233
51288962694
51288971177
51288979112
51288985521
51288994188
51289002671
51289010667
51289016893
51289026475
51289035508
51289040208
51289050584
51289059007
51289067247
51289071885
51289082383
51289091355
51289101060
51289106431
51289116624
51289123887
51289132127
51289138169
51289146958
51289156785
51289164903
51289174302
51289181748
51289187852
51289196580
51289202805
51289211655
51289220322
51289229905
51289239426
51289245652
51289254136
51289262436
51289270554
51289278183
51289286850
51289297410
51289304306
51289313218
51289319260
51289327805
51289335862
51289340683
51289350876
51289359726
51289369004
51289379013
51289385544
51289394211
51289402573
51289410446
51289417038
51289426987
51289436020
51289445969
51289454147
51289462204
51289470261
51289475204
51289484116
51289493820
51289502975
51289507736
51289518661
51289527206
51289533615
51289540878
51289550033
51289557724
51289568893
51289574325
51289585556
51289594589
51289602218
51289609237
51289618637
51289626937
51289633041
51289642135
51289649826
51289657333
51289664352
51289672103
51289679489
51289687728
51289694747
51289701644
51289709152
51289716354
51289723373
51289731246
51289739608
51289747787
51289755538
51289763290
51289771346
51289778609
51289786849
51289795272
51289799117
51289811080
51289819564
51289827926
51289835860
51289841903
51289851974
51289860030
51289867721
51289875655
51289883956
51289892012
51289898360
51289905745
51289913619
51289922347
51289925826
51289936080
51289942977
51289951949
51289960738
51289967879
51289977706
51289985518
51289993331
51290001753
51290009444
51290018050
51290025069
51290032210
51290040572
51290049788
51290055342
51290061751
51290067488
51290073775
51290079024
51290084944
51290091475
51290097090
51290102583
51290108443
51290114302
51290120222
51290126326
51290132796
51290138655
51290144880
51290150252
51290156477
51290161360
51290167585
51290173811
51290178999
51290185652
51290190535
51290197126
51290202131
51290208357
51290215254
51290221052
51290227461
51290233259
51290240339
51290246077
51290250776
51290256513
51290262251
51290267988
51290274397
51290278852
51290286115
51290290571
51290297956
51290302595
51290309248
51290316023
51290321577
51290325788
51290334089
51290338606
51290344587
51290350019
51290355756
51290361127
51290366254
51290371809
51290377241
51290383161
51290386030
51290393537
51290400495
51290405866
51290411542
51290415510
51290422407
51290427167
51290434308
51290439008
51290444257
51290450910
51290455121
51290460981
51290463971
51290471235
51290478010
51290483320
51290488996
51290492719
51290499860
51290504621
51290510236
51290516889
51290520978
51290527204
51290532575
51290537458
51290541852
51290549176
51290555768
51290559613
51290565656
51290571088
51290576581
51290580792
51290586347
51290592938
51290598187
51290604169
51290609479
51290614362
51290618634
51290625836
51290631390
51290636517
51290641278
51290646405
51290652631
51290657147
51290663312
51290668988
51290674420
51290679974
51290685040
51290691083
51290695416
51290701947
51290708722
51290712811
51290718915
51290724469
51290729474
51290735516
51290740399
51290746808
51290750653
51290757367
51290763043
51290767315
51290773663
51290778790
51290784649
51290790081
51290795025
51290800396
51290805828
51290809918
51290816388
51290823101
51290828350
51290833905
51290837567
51290844097
51290848370
51290854595
51290861737
51290865826
51290872418
51290876141
51290883099
51290887432
51290892986
51290899151
51290904461
51290909405
51290914349
51290919903
51290925579
51290931072
51290938091
51290943157
51290947613
51290952740
51290958904
51290963238
51290969585
51290976177
51290981487
51290986431
51290991497
51290997600
51291001995
51291008160
51291015179
51291020367
51291024883
51291030010
51291036724
51291040813
51291046245
51291050396
51291057232
51291063213
51291068218
51291073040
51291078472
51291084942
51291090130
51291096538
51291101421
51291107036
51291112896
51291119609
51291124858
51291128093
51291135295
51291141460
51291146221
51291151103
51291155803
51291161540
51291165508
51291172161
51291176616
51291182170
51291188274
51291193218
51291198100
51291202983
51291208537
51291213603
51291220683
51291224834
51291229961
51291235149
51291240581
51291245830
51291250957
51291256206
51291262248
51291267131
51291272197
51291277141
51291280986
51291287883
51291292400
51291298503
51291303081
51291308452
51291314128
51291319194
51291324565
51291329509
51291335673
51291339763
51291345134
51291350749
51291354960
51291359721
51291366618
51291372172
51291377665
51291384623
51291388835
51291395243
51291400981
51291406291
51291412638
51291416362
51291423259
51291427653
51291433268
51291440470
51291444560
51291450968
51291457011
51291462077
51291467021
51291472453
51291479045
51291483683
51291490702
51291495585
51291500712
51291506022
51291511271
51291517008
51291522624
51291528666
51291533976
51291538920
51291543986
51291549235
51291556010
51291560770
51291567789
51291570719
51291577372
51291583048
51291588236
51291594889
51291599467
51291604777
51291610758
51291616068
51291621744
51291626871
51291633463
51291637919
51291643473
51291647928
51291654154
51291659464
51291664835
51291671488
51291677225
51291681803
51291686075
51291692423
51291698526
51291704020
51291710062
51291715677
51291721292
51291726236
51291730753
51291736856
51291741861
51291748087
51291752115
51291758158
51291763834
51291769266
51291773599
51291780557
51291786478
51291791910
51291797220
51291801370
51291807169
51291811563
51291817606
51291824014
51291829263
51291834818
51291838541
51291845682
51291850931
51291855936
51291862161
51291867349
51291872720
51291878213
51291884683
51291889932
51291894815
51291901346
51291906717
51291912332
51291917825
51291922830
51291927286
51291934060
51291939920
51291945230
51291950174
51291955606
51291961282
51291965555
51291971109
51291978006
51291983255
51291989785
51291993386
51291999734
51292004068
51292009622
51292015969
51292020974
51292026101
51292030984
51292037637
51292041970
51292047158
51292053384
51292058694
51292064309
51292069741
51292075723
51292079751
51292085977
51292091714
51292096841
51292102761
51292107766
51292113015
51292118386
51292123574
51292130227
51292135354
51292141579
51292147317
51292153298
51292157571
51292164407
51292169961
51292175698
51292182412
51292187234
51292192300
51292195840
51292202248
51292206277
51292213174
51292217324
51292223000
51292227151
51292232461
51292236550
51292242531
51292249795
51292254982
51292259682
51292264565
51292270424
51292274025
51292280495
51292284646
51292291970
51292296975
51292301735
51292306801
51292311562
51292316689
51292321877
51292328957
51292333474
51292338784
51292342934
51292349831
51292354897
51292360268
51292366860
51292372231
51292378639
51292385414
51292390846
51292395546
51292400185
51292407265
51292412331
51292417458
51292423866
51292430031
51292435829
51292441444
51292448708
51292454323
51292459999
51292465675
51292470314
51292477333
51292480385
51292487526
51292492775
51292498817
51292503700
51292508461
51292512672
51292517738
51292525001
51292529518
51292535499
51292539711
51292545570
51292548317
51292554970
51292560707
51292567238
51292572364
51292577552
51292582313
51292587379
51292592811
51292597694
51292604530
51292609413
51292614418
51292621559
51292627235
51292632545
51292638160
51292643470
51292649208
51292652809
51292659889
51292665382
51292670509
51292676063
51292681312
51292687660
51292691871
51292697852
51292702796
51292708289
51292714393
51292719581
51292725806
51292730201
51292736671
51292742042
51292746986
51292752906
51292758094
51292762977
51292768531
51292774085
51292778297
51292784583
51292791602
51292795753
51292801917
51292807410
51292812049
51292816504
51292823707
51292829383
51292834754
51292839515
51292844520
51292850562
51292854896
51292862037
51292867591
51292872718
51292878150
51292883338
51292889258
51292893531
51292899939
51292906470
51292912818
51292917884
51292923377
51292928443
51292932776
51292938330
51292945288
51292950415
51292955359
51292960852
51292966834
51292970923
51292977515
51292983374
51292988440
51292994116
51292999426
51293005042
51293009436
51293015418
51293020972
51293026282
51293031775
51293036780
51293042456
51293047827
51293053625
51293059424
51293064612
51293070471
51293075903
51293080725
51293086523
51293092322
51293097815
51293103186
51293108130
51293113257
51293119116
51293123327
51293130041
51293136694
51293141577
51293146704
51293152258
51293158117
51293165136
51293170446
51293175879
51293181128
51293187231
51293192358
51293196264
51293201574
51293206884
51293211645
51293217749
51293222448
51293227819
51293232824
51293237585
51293242712
51293247595
51293253515
51293258459
51293265112
51293269140
51293274816
51293278784
51293284826
51293291174
51293296179
51293301061
51293306799
51293312170
51293317419
51293322546
51293326452
51293332800
51293339086
51293343847
51293348730
51293353490
51293358800
51293363744
51293370092
51293374975
51293380590
51293385717
51293389989
51293395299
51293400182
51293405553
51293412816
51293418249
51293423192
51293428075
51293433019
51293437780
51293442846
51293448949
51293452611
51293458715
51293462560
51293468541
51293472631
51293478124
51293483495
51293489721
51293495519
51293500951
51293506261
51293509862
51293516149
51293520421
51293525914
51293532018
51293537023
51293541661
51293546544
51293552342
51293557958
51293563573
51293568700
51293573522
51293578832
51293583592
51293586339
51293592626
51293598973
51293604222
51293608922
51293613683
51293619115
51293624364
51293629491
51293633702
51293640721
51293643834
51293651280
51293655614
51293660435
51293665440
51293670506
51293676915
51293682347
51293687962
51293692784
51293697117
51293701390
51293708226
51293713536
51293718663
51293724217
51293729039
51293733311
51293738194
51293743626
51293749486
51293755467
51293760472
51293764744
51293768773
51293774937
51293779881
51293784825
51293791722
51293797276
51293801670
51293806919
51293812596
51293816624
51293822117
51293829197
51293834385
51293839268
51293844639
51293851963
51293858006
51293863499
51293869663
51293875218
51293881321
51293884312
51293890904
51293896397
51293901402
51293908665
51293912632
51293918736
51293924961
51293929844
51293935154
51293940830
51293946690
51293952366
51293957249
51293963779
51293968662
51293973728
51293978855
51293984470
51293990391
51293995273
51294000645
51294006443
51294011814
51294016819
51294023533
51294029331
51294033909
51294040134
51294045322
51294050571
51294055698
51294062168
51294066013
51294072300
51294076450
51294082492
51294088718
51294093540
51294098850
51294104099
51294110752
51294116733
51294121067
51294125461
51294132968
51294138278
51294143589
51294148593
51294153598
51294160129
51294164218
51294170078
51294176242
51294181491
51294186801
51294191867
51294198825
51294202915
51294208957
51294216037
51294221347
51294226230
51294231601
51294237277
51294241733
51294247348
51294254001
51294259189
51294266208
51294270480
51294276706
51294279208
51294286594
51294293124
51294298495
51294303988
51294309543
51294315646
51294319980
51294326877
51294332919
51294338046
51294343661
51294349215
51294355136
51294360202
51294365817
51294372897
51294377047
51294383517
51294387790
51294394015
51294398959
51294404025
51294410739
51294416476
51294421115
51294426486
51294431674
51294435824
51294442233
51294449191
51294454135
51294459445
51294464999
51294469821
51294474215
51294481478
51294487032
51294493014
51294498873
51294504183
51294509432
51294513888
51294519991
51294526705
51294531893
51294536715
51294542208
51294547945
51294552157
51294558443
51294563937
51294569430
51294574496
51294579806
51294585787
51294589998
51294596346
51294602328
51294607577
51294613375
51294617098
51294623140
51294629061
51294634615
51294641146
51294646212
51294651278
51294656160
51294662508
51294666842
51294672701
51294679598
51294684725
51294690340
51294695894
51294700716
51294705049
51294710726
51294717562
51294722689
51294728304
51294733309
51294738253
51294743379
51294749239
51294756136
51294761507
51294766023
51294771150
51294777376
51294782747
51294788118
51294794344
51294799593
51294805696
51294811556
51294817171
51294821748
51294828401
51294834505
51294839693
51294846284
51294850069
51294856111
51294861604
51294866792
51294871065
51294876985
51294881624
51294887056
51294892000
51294896699
51294902070
51294907197
51294913484
51294918611
51294924837
51294928865
51294934602
51294938691
51294944551
51294949861
51294955720
51294961824
51294966829
51294973481
51294978914
51294983979
51294990510
51294996186
51295001069
51295005281
51295011628
51295016999
51295021943
51295028291
51295034028
51295039338
51295045014
51295050569
51295056062
51295061250
51295067780
51295073579
51295079743
51295083833
51295090302
51295095063
51295100129
51295106843
51295110871
51295117463
51295121796
51295128693
51295133637
51295138886
51295145356
51295150605
51295155976
51295161530
51295167268
51295171906
51295177094
51295184113
51295189423
51295195038
51295200532
51295205720
51295210114
51295216340
51295222016
51295227265
51295232941
51295238373
51295244477
51295247468
51295254181
51295261261
51295266633
51295272980
51295277131
51295283051
51295287384
51295293793
51295300141
51295305329
51295311127
51295316498
51295321686
51295325897
51295332306
51295339142
51295344147
51295349518
51295355072
51295360687
51295365631
51295371124
51295376129
51295381256
51295387604
51295393280
51295398651
51295402924
51295408173
51295413910
51295419708
51295425507
51295431000
51295436249
51295440460
51295446869
51295452606
51295457977
51295463776
51295468536
51295474945
51295479156
51295485443
51295491241
51295496368
51295502044
51295507110
51295513031
51295518585
51295523895
51295528229
51295535064
51295539642
51295545318
51295550750
51295556183
51295561798
51295566253
51295572845
51295576080
51295583038
51295589325
51295594940
51295599212
51295603546
51295610626
51295615386
51295622467
51295627227
51295632110
51295638580
51295643096
51295650054
51295653411
51295660125
51295665923
51295670867
51295676360
51295682159
51295688995
51295694610
51295699859
51295704314
51295709197
51295715545
51295719878
51295727386
51295730499
51295738311
51295742828
51295749175
51295753570
51295758941
51295765838
51295768767
51295775786
51295781585
51295786712
51295792083
51295798858
51295804351
51295808928
51295815276
51295820342
51295825652
51295831572
51295837310
51295842742
51295847442
51295853240
51295859282
51295864409
51295869414
51295874968
51295881438
51295888030
51295892424
51295898711
51295903594
51295909636
51295913542
51295921050
51295925444
51295931548
51295937529
51295942412
51295947417
51295952849
51295959380
51295963774
51295970000
51295975127
51295980742
51295985137
51295990996
51295997771
51296002348
51296008635
51296011565
51296018217
51296023711
51296029387
51296035918
51296041594
51296046294
51296050505
51296057280
51296062224
51296067229
51296073881
51296079436
51296083952
51296089506
51296094694
51296099150
51296107145
51296112211
51296117888
51296122526
51296128935
51296133879
51296139189
51296144438
51296150663
51296156462
51296161100
51296165068
51296171782
51296176298
51296183378
51296189482
51296193388
51296199980
51296204069
51296210600
51296215788
51296221220
51296229032
51296233366
51296238920
51296243254
51296250150
51296255400
51296260710
51296267362
51296271269
51296277921
51296282194
51296288053
51296293913
51296299101
51296305143
51296310880
51296316435
51296320707
51296327482
51296330228
51296336820
51296343412
51296348539
51296353300
51296358671
51296365140
51296369840
51296375455
51296381498
51296386625
51296392667
51296398282
51296402799
51296407071
51296413602
51296420011
51296425443
51296431119
51296435026
51296440580
51296446012
51296452298
51296458280
51296463468
51296469266
51296474698
51296478971
51296483121
51296490201
51296495755
51296501126
51296507169
51296511197
51296518216
51296522977
51296528897
51296534268
51296539701
51296544522
51296549527
51296555570
51296559781
51296566190
51296572659
51296577847
51296583646
51296589444
51296594754
51296598904
51296604520
51296611356
51296616544
51296622586
51296628201
51296634183
51296638333
51296645169
51296650601
51296655911
51296662747
51296667447
51296671536
51296676419
51296682156
51296687832
51296693326
51296697659
51296703641
51296706082
51296713467
51296716275
51296723904
51296730374
51296735318
51296740323
51296745144
51296750576
51296754361
51296759976
51296764187
51296771572
51296776394
51296782925
51296788052
51296792874
51296797390
51296802578
51296808255
51296813992
51296818814
51296822842
51296829556
51296834072
51296839565
51296846462
51296851650
51296855923
51296860745
51296865994
51296870937
51296876064
51296881558
51296887112
51296891323
51296897549
51296902432
51296907497
51296910305
51296916714
51296924038
51296928921
51296934414
51296939663
51296944302
51296949490
51296953823
51296959499
51296965176
51296970363
51296976284
51296980373
51296986416
51296990383
51296995327
51297001980
51297006252
51297011928
51297016506
51297022670
51297027431
51297032253
51297039028
51297044155
51297049221
51297053981
51297058681
51297063564
51297069240
51297073574
51297079555
51297083950
51297089687
51297093898
51297099880
51297104335
51297111171
51297117397
51297122951
51297127162
51297132350
51297138149
51297142238
51297148036
51297152309
51297158168
51297164394
51297169582
51297176662
51297183009
51297188319
51297194728
51297200404
51297205104
51297209377
51297216762
51297222194
51297227504
51297233730
51297239223
51297244350
51297248439
51297254359
51297260158
51297265346
51297271754
51297277431
51297282374
51297286708
51297293239
51297296290
51297303370
51297309596
51297315211
51297319911
51297325648
51297331080
51297336573
51297341823
51297347499
51297353297
51297358241
51297363673
51297369349
51297374232
51297379237
51297385707
51297391566
51297396449
51297400294
51297407496
51297410365
51297417628
51297424647
51297428431
51297434474
51297439967
51297445338
51297450343
51297455470
51297461817
51297467188
51297473292
51297477381
51297483302
51297487757
51297494105
51297501185
51297505091
51297511317
51297515772
51297521876
51297526698
51297532374
51297538599
51297544092
51297550440
51297554896
51297561182
51297565882
51297571497
51297576929
51297582361
51297588343
51297593714
51297598170
51297602259
51297608240
51297614771
51297620020
51297625940
51297631434
51297635767
51297641260
51297646875
51297652247
51297659082
51297663965
51297669214
51297675257
51297680811
51297685633
51297691980
51297697107
51297703089
51297709070
51297714197
51297719934
51297725672
51297728845
51297736048
51297742334
51297747644
51297753015
51297758325
51297763880
51297769068
51297774805
51297780603
51297785425
51297789453
51297795557
51297800195
51297805627
51297811548
51297816736
51297822290
51297827112
51297832849
51297836511
51297843835
51297854150
51297865686
51297871545
51297875879
51297882287
51297887475
51297892724
51297898950
51297904565
51297909326
51297913659
51297919885
51297924218
51297929895
51297936303
51297941491
51297946313
51297951623
51297956750
51297960534
51297967126
51297972131
51297978112
51297982568
51297988366
51297993432
51297998376
51298003930
51298007836
51298014001
51298019616
51298024987
51298030480
51298035363
51298040734
51298045739
51298050866
51298056603
51298062280
51298066308
51298071557
51298075585
51298082543
51298088891
51298093835
51298098840
51298103661
51298108666
51298113488
51298118859
51298124535
51298130517
51298135644
51298141015
51298145531
51298151025
51298156762
51298161706
51298168297
51298173974
51298178918
51298182885
51298188378
51298192040
51298199059
51298205346
51298210778
51298217248
51298221764
51298229699
51298235680
51298239769
51298246422
51298251000
51298257103
51298261925
51298268395
51298273033
51298278710
51298284874
51298289452
51298295372
51298301232
51298306481
51298312035
51298318199
51298324059
51298328636
51298334557
51298339989
51298345543
51298351463
51298355614
51298362267
51298367027
51298373619
51298378441
51298384728
51298389427
51298394615
51298401756
51298406090
51298411339
51298417564
51298422630
51298427818
51298433189
51298439964
51298444420
51298450279
51298454918
51298460533
51298467003
51298471153
51298478416
51298482994
51298489586
51298494285
51298499351
51298505455
51298510643
51298517662
51298522117
51298528099
51298532493
51298538536
51298543907
51298549156
51298556114
51298562034
51298566917
51298573326
51298578331
51298583702
51298589012
51298596214
51298600303
51298607261
51298612083
51298617881
51298621849
51298629051
51298635459
51298641136
51298645957
51298652244
51298657249
51298662620
51298667991
51298674461
51298678489
51298684531
51298688926
51298695213
51298701072
51298706260
51298713645
51298717612
51298724204
51298728355
51298735252
51298740684
51298745933
51298751426
51298755698
51298762412
51298766746
51298772422
51298779014
51298784446
51298789573
51298795310
51298800559
51298804770
51298812034
51298814902
51298823020
51298829184
51298833030
51298839377
51298843589
51298849692
51298855979
51298861167
51298866599
51298872092
51298877646
51298882956
51298889060
51298894309
51298899375
51298905356
51298910666
51298915610
51298920981
51298926169
51298930564
51298938010
51298943930
51298949179
51298955283
51298959494
51298965903
51298970114
51298976706
51298982993
51298988425
51298994284
51298999777
51299004904
51299009116
51299016379
51299021750
51299027060
51299033041
51299038473
51299043051
51299047324
51299053488
51299060629
51299066061
51299071921
51299077353
51299082358
51299086752
51299093649
51299099753
51299105246
51299110800
51299116232
51299122458
51299125570
51299132406
51299140097
51299145102
51299151083
51299154745
51299160971
51299165304
51299171896
51299178060
51299183493
51299189291
51299194784
51299200399
51299205343
51299210958
51299216451
51299221701
51299227682
51299233236
51299238302
51299242513
51299248556
51299255575
51299260885
51299266683
51299272237
51299276998
51299281332
51299288412
51299293234
51299299093
51299304769
51299310262
51299315694
51299319906
51299326498
51299332296
51299337728
51299343648
51299347433
51299353780
51299358114
51299364095
51299370077
51299375448
51299380819
51299386190
51299392354
51299396444
51299402303
51299408346
51299414937
51299419759
51299425130
51299430867
51299434957
51299440938
51299447652
51299452718
51299457540
51299462423
51299468038
51299473531
51299479146
51299484578
51299489644
51299495504
51299500569
51299506246
51299511800
51299517293
51299523519
51299528523
51299534444
51299539998
51299545979
51299550191
51299557759
51299562215
51299568746
51299574117
51299578999
51299584187
51299589009
51299594014
51299599385
51299606282
51299610738
51299617512
51299622456
51299627217
51299632100
51299637166
51299642781
51299647847
51299653157
51299657918
51299663594
51299667134
51299673604
51299678120
51299683919
51299688313
51299693928
51299697957
51299704854
51299709492
51299714558
51299721272
51299726704
51299731709
51299737202
51299741536
51299747151
51299752461
51299758381
51299763630
51299768513
51299773640
51299781086
51299786640
51299791828
51299798420
51299803974
51299808979
51299813252
51299819599
51299824421
51299829731
51299836689
51299842487
51299847309
51299851521
51299858112
51299863728
51299869038
51299874714
51299880451
51299886189
51299890705
51299896137
51299901997
51299907246
51299913105
51299917683
51299924030
51299929279
51299935261
51299941791
51299946918
51299952656
51299958332
51299964130
51299968220
51299974567
51299977497
51299985492
51299991596
51299995685
51300002704
51300006794
51300012104
51300018268
51300023334
51300029560
51300033832
51300040546
51300046161
51300050800
51300056903
51300061969
51300067829
51300073139
51300079547
51300083332
51300089801
51300093952
51300101215
51300106647
51300111835
51300117938
51300121906
51300127704
51300133685
51300139179
51300146442
51300152301
51300157245
51300162006
51300168170
51300174091
51300179462
51300186725
51300191180
51300197406
51300201923
51300208148
51300212787
51300218585
51300225421
51300230731
51300236163
51300241351
51300245929
51300251056
51300257648
51300261615
51300268268
51300272662
51300278094
51300282245
51300289508
51300292315
51300298541
51300305438
51300309222
51300314776
51300319720
51300325702
51300329486
51300335589
51300339984
51300347064
51300352313
51300357379
51300362078
51300366839
51300372576
51300377825
51300383807
51300388018
51300393817
51300399127
51300403460
51300408587
51300413897
51300420428
51300425555
51300430438
51300435809
51300443255
51300447772
51300454913
51300459307
51300465960
51300471148
51300476397
51300481890
51300485979
51300491900
51300496416
51300503619
51300509051
51300514544
51300520525
51300526934
51300532671
51300538531
51300543780
51300549639
51300554644
51300559588
51300564837
51300571123
51300576433
51300582720
51300586504
51300592852
51300596819
51300604082
51300608355
51300614641
51300620501
51300626665
51300632036
51300636919
51300641924
51300647173
51300651751
51300657732
51300663225
51300667681
51300673723
51300677996
51300683306
51300689287
51300694414
51300700090
51300705583
51300710161
51300715410
51300720171
51300723833
51300730730
51300735430
51300741899
51300747698
51300752519
51300757890
51300762590
51300767473
51300772905
51300777849
51300783464
51300787798
51300793291
51300798784
51300803606
51300808488
51300815141
51300820390
51300825395
51300830461
51300835649
51300841020
51300846025
51300850542
51300857744
51300863054
51300867814
51300872392
51300877275
51300882524
51300887468
51300893693
51300899370
51300904985
51300910234
51300914445
51300918718
51300925065
51300932084
51300937272
51300941667
51300946611
51300952348
51300957414
51300961625
51300967240
51300973222
51300978471
51300983354
51300988481
51300993302
51300999223
51301004289
51301009843
51301015336
51301020341
51301025590
51301030290
51301035661
51301040482
51301047135
51301052018
51301057389
51301064225
51301070207
51301075639
51301081803
51301086625
51301093888
51301098649
51301103410
51301108598
51301113602
51301119157
51301125687
51301130692
51301135026
51301141678
51301145646
51301151871
51301156510
51301161820
51301167740
51301173050
51301178299
51301182999
51301188736
51301192521
51301198624
51301203446
51301210099
51301215836
51301219986
51301224625
51301230057
51301235062
51301241410
51301247269
51301251297
51301256546
51301261795
51301266922
51301272110
51301277237
51301282059
51301289261
51301292496
51301299088
51301304520
51301309586
51301314896
51301319962
51301325516
51301329788
51301336075
51301340164
51301345841
51301349808
51301355545
51301362259
51301367508
51301372574
51301377274
51301383011
51301386795
51301393326
51301397903
51301404068
51301409317
51301414322
51301419266
51301425369
51301430313
51301435318
51301440567
51301446365
51301451919
51301455948
51301461746
51301465652
51301471939
51301477981
51301483230
51301489029
51301493911
51301499283
51301504593
51301508987
51301514480
51301520523
51301524795
51301530227
51301536148
51301541153
51301544021
51301550430
51301558059
51301562149
51301568069
51301573257
51301577896
51301583145
51301588821
51301593093
51301598220
51301602432
51301608352
51301612380
51301619522
51301623062
51301629836
51301634597
51301639480
51301643997
51301648757
51301654922
51301658645
51301664199
51301669631
51301675979
51301679092
51301685012
51301690749
51301695754
51301701064
51301706252
51301712905
51301717361
51301723037
51301727065
51301732680
51301736648
51301742019
51301748244
51301753493
51301759292
51301764480
51301770949
51301776504
51301783462
51301788588
51301793471
51301799453
51301804152
51301809646
51301814895
51301820388
51301825148
51301830825
51301836257
51301841018
51301846938
51301851821
51301856765
51301861953
51301867629
51301873549
51301878249
51301882765
51301889296
51301891799
51301899123
51301905532
51301910781
51301916213
51301921034
51301926222
51301930007
51301935744
51301941237
51301946974
51301951491
51301957228
51301961195
51301968031
51301972914
51301977919
51301984023
51301989516
51301995070
51302000197
51302004652
51302009962
51302014906
51302019545
51302026503
51302029799
51302037428
51302042616
51302047560
51302052321
51302057203
51302063673
51302067824
51302074293
51302078261
51302084059
51302088148
51302094435
51302101942
51302106886
51302111830
51302116774
51302121717
51302127089
51302132277
51302136549
51302142775
51302147169
51302153212
51302158400
51302163160
51302168592
51302173536
51302180250
51302186109
51302190382
51302195631
51302200941
51302204969
51302210523
51302216993
51302221937
51302228285
51302231947
51302237989
51302243177
51302247755
51302253370
51302259718
51302263075
51302270033
51302274976
51302279676
51302284742
51302289991
51302296033
51302301954
51302306470
51302311780
51302316785
51302320875
51302327466
51302330823
51302337598
51302344007
51302349256
51302356458
51302360670
51302367261
51302373060
51302377881
51302384351
51302389783
51302394300
51302399366
51302404859
51302409192
51302414991
51302419751
51302426404
51302430982
51302435682
51302440259
51302445264
51302452832
51302456739
51302462171
51302467481
51302472425
51302478528
51302482678
51302487317
51302494336
51302499402
51302505689
51302510388
51302516187
51302521008
51302524548
51302532971
51302538281
51302543652
51302548169
51302553357
51302558911
51302563733
51302569959
51302574902
51302581189
51302586194
51302590894
51302595837
51302600964
51302607312
51302612012
51302617566
51302621655
51302628613
51302631421
51302638684
51302644726
51302650586
51302656079
51302661389
51302666333
51302671643
51302677075
51302681286
51302687451
51302692822
51302697644
51302702710
51302707470
51302712964
51302718213
51302724560
51302728650
51302734997
51302738964
51302745129
51302749829
51302755322
51302761303
51302766552
51302771374
51302776379
51302781933
51302786694
51302791455
51302797192
51302803539
51302808178
51302813671
51302817883
51302823498
51302827526
51302834118
51302839550
51302844921
51302850414
51302855297
51302861218
51302866344
51302870678
51302876781
51302883251
51302888500
51302893200
51302898266
51302903149
51302908642
51302913891
51302919567
51302925365
51302930248
51302935558
51302941051
51302945141
51302949962
51302954662
51302962169
51302968334
51302973888
51302980114
51302984630
51302991405
51302996959
51303002819
51303008617
51303013683
51303019420
51303024608
51303030101
51303047191
51303052440
51303056774
51303063793
51303069469
51303074718
51303081005
51303086315
51303092662
51303097911
51303102977
51303108348
51303113353
51303119457
51303125255
51303130138
51303134227
51303140148
51303144115
51303150951
51303157359
51303162608
51303167247
51303172252
51303178294
51303182018
51303187511
51303192943
51303198741
51303204356
51303209605
51303214915
51303219798
51303224742
51303229808
51303235789
51303239879
51303245982
51303251292
51303256602
51303260509
51303266429
51303273082
51303276988
51303282603
51303287547
51303292369
51303297130
51303302501
51303308055
51303314586
51303319346
51303323558
51303329539
51303334422
51303337352
51303344126
51303351084
51303355052
51303360545
51303365367
51303371592
51303375743
51303381297
51303385508
51303392527
51303397898
51303403025
51303407054
51303412364
51303417918
51303423228
51303430491
51303434824
51303441355
51303446970
51303451792
51303458079
51303461985
51303468272
51303474436
51303479441
51303485300
51303490061
51303495310
51303499216
51303506724
51303512400
51303516672
51303521372
51303527354
51303531443
51303538340
51303545176
51303550486
51303555613
51303561106
51303566111
51303571421
51303575632
51303581247
51303587717
51303590891
51303596750
51303602976
51303608103
51303612864
51303618052
51303624887
51303629221
51303634897
51303638926
51303644663
51303648874
51303655100
51303661447
51303665842
51303671762
51303676767
51303682382
51303686106
51303692209
51303698374
51303704111
51303708689
51303714182
51303720163
51303724985
51303729685
51303734445
51303740732
51303746042
51303751291
51303754953
51303760324
51303765878
51303771799
51303776010
51303782480
51303785776
51303792184
51303797372
51303802255
51303807626
51303812753
51303819467
51303824045
51303829416
51303833139
51303840097
51303844125
51303850717
51303856454
51303861825
51303866769
51303871713
51303876535
51303881357
51303886545
51303892282
51303898752
51303903756
51303907968
51303912057
51303919076
51303922067
51303929330
51303934579
51303939767
51303944284
51303949288
51303955941
51303959542
51303964791
51303971017
51303977548
51303982675
51303987252
51303992806
51303997689
51304002511
51304007638
51304014352
51304018563
51304024911
51304029183
51304035165
51304039193
51304045663
51304052010
51304056161
51304061715
51304066537
51304071725
51304076485
51304081857
51304087411
51304093331
51304097909
51304103768
51304108285
51304113656
51304118539
51304124825
51304130196
51304135995
51304140389
51304145455
51304151009
51304156441
51304161263
51304165658
51304171700
51304176766
51304182259
51304187752
51304192757
51304197823
51304203011
51304208504
51304214608
51304219063
51304224434
51304229256
51304234566
51304239937
51304245125
51304251229
51304256661
51304262215
51304267586
51304271858
51304278267
51304284615
51304289742
51304295052
51304300362
51304305428
51304309456
51304316292
51304322395
51304327461
51304332710
51304337593
51304342659
51304347908
51304352547
51304358223
51304363228
51304369698
51304374580
51304377754
51304384285
51304390327
51304395393
51304401619
51304405586
51304412178
51304415718
51304422249
51304426460
51304432258
51304435798
51304443916
51304448433
51304453193
51304458504
51304463447
51304469917
51304473945
51304481209
51304484321
51304491157
51304495063
51304501533
51304506965
51304512092
51304518440
51304522651
51304528755
51304534126
51304538581
51304543953
51304549140
51304553657
51304559822
51304564277
51304570808
51304574531
51304579963
51304585151
51304592292
51304597175
51304601447
51304608222
51304614326
51304619514
51304625007
51304630683
51304635810
51304640022
51304647102
51304652045
51304656745
51304662421
51304668159
51304673591
51304679633
51304685554
51304691535
51304696479
51304701850
51304706977
51304712775
51304717048
51304723212
51304727241
51304732856
51304737250
51304743293
51304749030
51304755134
51304760505
51304765510
51304771186
51304776313
51304780890
51304786445
51304791449
51304795905
51304801947
51304806220
51304812384
51304817450
51304823737
51304828925
51304834296
51304839728
51304845160
51304850165
51304854254
51304860297
51304864936
51304871405
51304877997
51304884040
51304889533
51304894171
51304900702
51304905646
51304912116
51304917243
51304922064
51304927741
51304933173
51304938055
51304942938
51304950324
51304955634
51304961127
51304966315
51304971564
51304977118
51304983282
51304988470
51304995184
51305000861
51305007269
51305012945
51305018866
51305022467
51305030218
51305035345
51305040716
51305047430
51305051397
51305057928
51305063055
51305069952
51305075384
51305080206
51305085150
51305090155
51305095404
51305100531
51305107000
51305111273
51305117193
51305122442
51305126959
51305131109
51305136969
51305141363
51305148077
51305154669
51305159918
51305165899
51305171514
51305178106
51305183843
51305188787
51305195928
51305199835
51305205999
51305211797
51305216985
51305223150
51305228948
51305234441
51305239446
51305244451
51305249334
51305255254
51305260503
51305266912
51305271490
51305277227
51305281255
51305287054
51305291631
51305297124
51305304021
51305309392
51305314641
51305318609
51305323125
51305326482
51305330755
51305333074
51305338140
51305342046
51305345891
51305350164
51305353948
51305357671
51305361944
51305366643
51305371526
51305375310
51305378911
51305382390
51305386541
51305390691
51305394536
51305397893
51305402593
51305406438
51305409978
51305414251
51305416753
51305423406
51305426763
51305431707
51305434880
51305439580
51305442998
51305447209
51305453374
51305457097
51305461492
51305465459
51305469853
51305473943
51305478276
51305482060
51305485845
51305490788
51305495000
51305498418
51305501470
51305506169
51305512395
51305516728
51305520635
51305524358
51305528142
51305532048
51305536626
51305539922
51305545964
51305549443
51305554997
51305557439
51305562199
51305565251
51305569951
51305575139
51305579167
51305583195
51305588017
51305591984
51305596501
51305599919
51305603581
51305608342
51305612981
51305617314
51305620549
51305625798
51305629765
51305633183
51305638127
51305641118
51305645695
51305649907
51305653019
51305657414
51305661747
51305666325
51305671513
51305673954
51305681401
51305686039
51305689335
51305694523
51305697880
51305702031
51305707096
51305712834
51305717045
51305721989
51305726384
51305730656
51305734623
51305739750
51305744206
51305747929
51305751225
51305756352
51305760746
51305765568
51305768925
51305775700
51305780400
51305785588
51305789128
51305793339
51305797672
51305802738
51305806706
51305811405
51305815800
51305821232
51305826115
51305829960
51305836186
51305840519
51305846012
51305850407
51305853214
51305858158
51305863590
51305868290
51305873478
51305877201
51305881107
51305885990
51305889103
51305894474
51305898807
51305902897
51305906681
51305911381
51305916630
51305921268
51305926639
51305931278
51305935551
51305940067
51305943790
51305947819
51305951420
51305956363
51305961002
51305964847
51305969120
51305973148
51305978397
51305982486
51305986271
51305990848
51305995243
51305998661
51306002872
51306007206
51306012455
51306017459
51306022037
51306026737
51306031498
51306035770
51306040653
51306044681
51306049442
51306053897
51306057682
51306063053
51306066837
51306070560
51306075443
51306079288
51306083255
51306089664
51306093509
51306099063
51306103885
51306107852
51306112552
51306117069
51306121280
51306126102
51306131473
51306135074
51306139896
51306145084
51306148807
51306153934
51306158450
51306162296
51306166446
51306172122
51306175906
51306180484
51306185062
51306188785
51306192874
51306196841
51306202273
51306205875
51306209781
51306215152
51306217593
51306222598
51306227664
51306231326
51306235110
51306239566
51306242496
51306247683
51306252200
51306257632
51306262637
51306268741
51306275943
51306281741
51306286258
51306294009
51306300845
51306308474
51306315554
51306321841
51306328006
51306331668
51306341494
51306347110
51306354251
51306360354
51306363589
51306375125
51306380557
51306386721
51306392642
51306399294
51306405337
51306409182
51306418581
51306424807
51306432314
51306438662
51306445681
51306451479
51306458376
51306465151
51306471133
51306473757
51306483828
51306491457
51306499331
51306504214
51306511294
51306516970
51306524965
51306532900
51306537905
51306544863
51306551638
51306558108
51306566958
51306570253
51306579958
51306585085
51306592592
51306598574
51306604677
51306610414
51306615541
51306626711
51306633547
51306641664
51306648134
51306656252
51306662905
51306669741
51306676393
51306682314
51306692262
51306696291
51306705263
51306711122
51306713686
51306722414
51306729067
51306735292
51306741762
51306752870
51306760133
51306765993
51306774232
51306780519
51306786562
51306792299
51306799318
51306805238
51306812074
51306821718
51306828615
51306835451
51306841188
51306843751
51306852907
51306859498
51306867006
51306873536
51306883607
51306889955
51306892823
51306901796
51306908265
51306915101
51306921388
51306928285
51306934144
51306942506
51306952149
51306956239
51306964173
51306970399
51306977357
51306983644
51306987489
51306995851
51307002625
51307011170
51307017640
51307020631
51307029603
51307036378
51307042115
51307047913
51307054078
51307060975
51307066041
51307076661
51307083741
51307090577
51307098572
51307101136
51307109376
51307115906
51307121888
51307128480
51307136536
51307145203
51307148316
51307158204
51307162964
51307170472
51307176392
51307182923
51307189026
51307195191
51307203980
51307211365
51307218201
51307224305
51307226868
51307237000
51307241944
51307248902
51307255432
51307262512
51307270874
51307276184
51307283264
51307288025
51307295166
51307301026
51307308350
51307314270
51307325378
51307331726
51307339050
51307343872
51307351685
51307358093
51307364075
51307368896
51307375610
51307381775
51307389404
51307398498
51307401672
51307410522
51307416992
51307424133
51307430054
51307437988
51307444031
51307451355
51307461731
51307467163
51307473999
51307479919
51307485962
51307493530
51307498108
51307505371
51307512207
51307519897
51307529113
51307534790
51307541381
51307545959
51307553344
51307559265
51307567199
51307572997
51307578979
51307589660
51307594482
51307601013
51307606872
51307614745
51307620605
51307625366
51307632140
51307638427
51307650512
51307657775
51307660705
51307670287
51307674071
51307683288
51307689086
51307691711
51307702880
51307708861
51307718444
51307723449
51307730468
51307736266
51307742003
51307747741
51307754210
51307761046
51307767333
51307777648
51307784789
51307792296
51307798522
51307802977
51307810179
51307816405
51307822936
51307829161
51307834349
51307843993
51307851561
51307856749
51307864501
51307869322
51307876402
51307883116
51307887938
51307894042
51307904356
51307910887
51307913817
51307923033
51307929442
51307936278
51307942442
51307948485
51307954405
51307964110
51307970763
51307976500
51307985045
51307989683
51307997618
51308004149
51308009886
51308017454
51308025023
51308031737
51308038633
51308047484
51308054136
51308061094
51308067625
51308072325
51308082274
51308090696
51308097776
51308105589
51308112425
51308118589
51308123655
51308131346
51308137571
51308145262
51308151853
51308159666
51308166014
51308172117
51308181211
51308186277
51308193968
51308203184
51308210386
51308217954
51308222715
51308234129
51308241209
51308250547
51308255125
51308262754
51308270872
51308274045
51308284238
51308290769
51308299558
51308305784
51308313535
51308320066
51308322935
51308335996
51308339231
51308351438
51308359067
51308367673
51308375425
51308384641
51308392209
51308401303
51308408872
51308414060
51308422544
51308430112
51308436032
51308446347
51308449521
51308457944
51308464353
51308471005
51308476804
51308484067
51308489743
51308496396
51308506650
51308511838
51308519406
51308525632
51308532712
51308538937
51308544553
51308551022
51308557980
51308567929
51308577389
51308580319
51308590329
51308594845
51308602292
51308608029
51308614926
51308621091
51308626767
51308636044
51308640194
51308649960
51308656308
51308664731
51308670895
51308678585
51308685604
51308692440
51308702999
51308708187
51308717587
51308723873
51308730954
51308738949
51308742245
51308751583
51308759945
51308767025
51308773922
51308780209
51308786556
51308793881
51308800961
51308805599
51308816341
51308823360
51308832760
51308837460
51308845272
51308853329
51308856197
51308866878
51308871700
51308879085
51308884395
51308894283
51308901485
51308904537
51308915584
51308921261
51308928463
51308935848
51308943111
51308951168
51308959896
51308967037
51308974605
51308980892
51308985530
51308994808
51308997860
51309006527
51309015316
51309023677
51309030941
51309038753
51309044795
51309053646
51309060420
51309065730
51309073177
51309080074
51309088863
51309096126
51309103084
51309110530
51309114925
51309124507
51309131343
51309139522
51309145869
51309153255
51309161739
51309168452
51309175655
51309182246
51309187739
51309197688
51309205440
51309211116
51309217586
51309227962
51309235225
51309240230
51309247920
51309254756
51309262446
51309269099
51309274714
51309283015
51309291560
51309298518
51309308223
51309311152
51309321345
51309329097
51309334529
51309341548
51309349543
51309356318
51309362055
51309371089
51309377436
51309385920
51309392756
51309401057
51309407710
51309412531
51309420405
51309427241
51309436457
51309444025
51309449091
51309459223
51309463496
51309472651
51309479304
51309484492
51309493769
51309501459
51309509150
51309516901
51309524103
51309530634
51309538630
51309544489
51309551020
51309560114
51309566584
51309572199
51309582819
51309589106
51309596125
51309602838
51309609003
51309618769
51309624323
51309632013
51309639154
51309647150
51309653864
51309659845
51309669672
51309674433
51309682428
51309691095
51309694147
51309703607
51309711359
51309719415
51309726556
51309734369
51309741449
51309746515
51309756830
51309761163
51309769525
51309776544
51309783075
51309793817
51309799249
51309807733
51309814142
51309820733
51309828546
51309833185
51309842523
51309849847
51309858270
51309865899
51309871148
51309880059
51309887323
51309894342
51309900872
51309907342
51309914422
51309923333
51309932550
51309939324
51309945245
51309955987
51309959527
51309972772
51309979852
51309988641
51309993951
51310005364
51310012933
51310019219
51310026421
51310031487
51310040398
51310047112
51310049981
51310061639
51310070977
51310079034
51310083672
51310091363
51310100213
51310103264
51310112664
51310120171
51310127434
51310134514
51310139397
51310151726
51310157830
51310164727
51310171318
51310178948
51310185418
51310194146
51310199578
51310206475
51310216667
51310223686
51310229180
51310239678
51310244194
51310253105
51310259697
51310262566
51310273613
51310282036
51310289604
51310296562
51310305046
51310314995
51310318474
51310331352
51310335136
51310346001
51310354362
51310362602
51310370232
51310377006
51310383598
51310388725
51310396721
51310403007
51310405937
51310416130
51310422294
51310431511
51310437980
51310447685
51310455314
51310464775
51310471794
51310480339
51310488456
51310494621
51310502800
51310510185
51310519889
51310526603
51310534233
51310540092
51310547294
51310554313
51310561332
51310570487
51310578849
51310583915
51310591483
51310598563
51310606193
51310612846
51310617301
51310626395
51310634208
51310642692
51310650260
51310655326
51310665214
51310672233
51310678763
51310685721
51310692924
51310700736
51310706962
51310717704
51310722953
51310731009
51310740531
51310748771
51310755668
51310761954
51310772269
51310780692
51310788504
51310794852
51310801444
51310807059
51310812125
51310821280
51310827994
51310835623
51310842276
51310851859
51310859488
51310865042
51310874075
51310880606
51310888602
51310895194
51310900565
51310907767
51310915091
51310925162
51310932791
51310938284
51310945914
51310953360
51310960074
51310967093
51310972098
51310983145
51310988882
51310998526
51311002737
51311012198
51311018973
51311021902
51311030752
51311037405
51311045767
51311052481
51311056936
51311068045
51311075064
51311080374
51311088247
51311090811
51311099539
51311106375
51311111624
51311117971
51311125967
51311132925
51311138052
51311147390
51311151724
51311158743
51311164663
51311172598
51311178762
51311183706
51311195730
51311202566
51311209158
51311216726
51311222829
51311228872
51311232656
51311239675
51311247976
51311254507
51311260976
51311265249
51311274343
51311280324
51311287404
51311293142
51311297841
51311306875
51311311208
51311318593
51311327199
51311330251
51311340322
51311345876
51311352773
51311356740
51311364858
51311371022
51311378408
51311387746
51311393727
51311400441
51311404531
51311412343
51311418202
51311422780
51311431935
51311436269
51311443593
51311452138
51311459218
51311465138
51311470326
51311478017
51311483937
51311489797
51311495839
51311503407
51311515736
51311521535
51311528920
51311536855
51311543263
51311550526
51311558949
51311566395
51311570241
51311582631
51311587636
51311597584
51311605031
51311610097
51311619069
51311622059
51311631276
51311639698
51311646656
51311654286
51311661000
51311668812
51311676075
51311683277
51311690235
51311697865
51311704396
51311711293
51311721363
51311726490
51311736622
51311744251
51311752552
51311759022
51311765186
51311775074
51311783009
51311791370
51311799000
51311802113
51311815235
51311820728
51311828602
51311835621
51311843983
51311851429
51311857777
51311868336
51311875416
51311883228
51311889698
51311896412
51311903248
51311907459
51311916553
51311923511
51311933094
51311940357
51311943103
51311953113
51311960743
51311968921
51311975513
51311978504
51311990406
51311997486
51312005115
51312011524
51312018665
51312025257
51312030322
51312040882
51312045520
51312053943
51312060474
51312070117
51312077380
51312081714
51312091419
51312098010
51312105396
51312111926
51312116382
51312127063
51312131885
51312141406
51312147754
51312153003
51312162524
51312166858
51312176806
51312183337
51312189624
51312197497
51312202197
51312211657
51312218738
51312226306
51312233020
51312240893
51312248340
51312254809
51312262866
51312269519
51312277514
51312285632
51312292895
51312300463
51312309191
51312315966
51312322436
51312329943
51312336840
51312344287
51312352404
51312361376
51312364977
51312374194
51312381030
51312387682
51312394335
51312399523
51312409167
51312417651
51312424975
51312432116
51312440905
51312447680
51312453051
51312460985
51312467882
51312476549
51312483019
51312490465
51312497973
51312504870
51312511950
51312521044
51312523974
51312533617
51312541002
51312547655
51312554735
51312563036
51312569689
51312575060
51312584032
51312590990
51312598802
51312605516
51312610704
51312619432
51312628099
51312635912
51312643358
51312646654
51312657457
51312664842
51312673448
51312679979
51312686693
51312693468
51312699083
51312708788
51312716173
51312723436
51312730333
51312732591
51312743761
51312751573
51312758714
51312766038
51312775255
51312782640
51312785081
51312796678
51312804063
51312810899
51312817735
51312823106
51312833116
51312837999
51312846849
51312853868
51312862230
51312872117
51312875474
51312888902
51312891648
51312903794
51312912095
51312920457
51312928025
51312931443
51312941331
51312949876
51312958054
51312965196
51312968553
51312981614
51312987718
51312994675
51313001633
51313010606
51313017136
51313022324
51313030747
51313037156
51313044602
51313051560
51313059556
51313067673
51313072068
51313081467
51313088120
51313091111
51313101670
51313109055
51313116562
51313123459
51313128098
51313140183
51313146164
51313153061
51313159836
51313168808
51313175644
51313180893
51313189194
51313196152
51313205490
51313212326
51313215378
51313225327
51313232895
51313239914
51313246445
51313252854
51313260910
51313269882
51313278366
51313286118
51313293808
51313300095
51313307541
51313314865
51313320053
51313327805
51313336899
51313342758
51313350632
51313356186
51313365890
51313373154
51313381149
51313387741
51313396408
51313403671
51313412460
51313419113
51313424972
51313433883
51313440414
51313447860
51313452255
51313460373
51313466903
51313477951
51313484664
51313490463
51313498092
51313504562
51313512741
51313519882
51313526168
51313532821
51313540389
51313547592
51313553695
51313562728
51313567001
51313576034
51313582626
51313589523
51313596175
51313605209
51313614059
51313621078
51313628646
51313635604
51313642379
51313648604
51313655196
51313661056
51313668258
51313675643
51313681441
51313690108
51313697432
51313705489
51313709762
51313717757
51313723983
51313732711
51313739730
51313744246
51313753157
51313761275
51313766646
51313773055
51313780989
51313787886
51313795333
51313802962
51313810591
51313819197
51313821944
51313830428
51313837447
51313844954
51313853011
51313861189
51313867781
51313876692
51313882857
51313888960
51313895247
51313902510
51313910994
51313915388
51313924849
51313932661
51313940718
51313947554
51313950911
51313960432
51313967818
51313976240
51313983137
51313991682
51313999312
51314007185
51314014021
51314019148
51314026899
51314033613
51314040144
51314046858
51314056746
51314063154
51314070173
51314077925
51314082258
51314092634
51314099897
51314105757
51314112226
51314122724
51314130049
51314137373
51314144392
51314151045
51314158979
51314165571
51314170698
51314178266
51314185163
51314195783
51314202863
51314210615
51314218000
51314223432
51314232343
51314238935
51314246320
51314252973
51314258771
51314269086
51314276227
51314283063
51314289899
51314296918
51314305524
51314310895
51314318586
51314325788
51314337140
51314344159
51314350507
51314357526
51314361798
51314371076
51314378339
51314385846
51314392743
51314401044
51314408185
51314415875
51314422650
51314429669
51314436566
51314443341
51314450665
51314456403
51314465924
51314472333
51314479779
51314484906
51314494305
51314500836
51314508405
51314515240
51314520428
51314529889
51314537762
51314544232
51314551373
51314556683
51314567303
51314572674
51314580548
51314587567
51314593731
51314602765
51314609173
51314619000
51314626263
51314633770
51314641278
51314649701
51314659588
51314662762
51314673504
51314682415
51314690960
51314697857
51314706524
51314713848
51314723492
51314731060
51314736431
51314746807
51314751568
51314760906
51314768414
51314774151
51314782757
51314790142
51314798199
51314804668
51314807659
51314819683
51314826275
51314836040
51314843731
51314851482
51314858013
51314864483
51314872417
51314876690
51314885174
51314894878
51314898601
51314909404
51314914104
51314925213
51314932048
51314937297
51314944988
51314950542
51314960613
51314965557
51314976055
51314983745
51314990459
51314998210
51315002849
51315011821
51315019695
51315027873
51315034465
51315040996
51315049480
51315057597
51315067790
51315074870
51315083904
51315093730
51315096843
51315108134
51315112895
51315124553
51315132060
51315135356
51315146648
51315152263
51315162456
51315169841
51315178142
51315185527
51315191447
51315202006
51315208964
51315216227
51315222697
51315230082
51315236857
51315241923
51315249675
51315256694
51315265788
51315273173
51315278361
51315288615
51315295756
51315301737
51315308634
51315315348
51315323222
51315328349
51315339152
51315346354
51315355753
51315362223
51315367472
51315375834
51315382487
51315389933
51315396342
51315402140
51315413309
51315419047
51315425639
51315432535
51315440226
51315447062
51315455729
51315461222
51315468302
51315478739
51315486307
51315489237
51315500651
51315505961
51315513651
51315520365
51315528177
51315534891
51315540812
51315550028
51315556253
51315564371
51315570902
51315575968
51315585306
51315592569
51315600809
51315608011
51315611246
51315622354
51315627298
51315636331
51315642862
51315650247
51315657205
51315662210
51315671854
51315680277
51315688394
51315695535
51315698404
51315709573
51315714700
51315722574
51315729166
51315737222
51315744180
51315749979
51315760415
51315767984
51315775186
51315781839
51315788614
51315795266
51315802835
51315809366
51315816507
51315827310
51315835061
51315841287
51315849038
51315856240
51315861673
51315870645
51315873513
51315884927
51315891275
51315899148
51315906838
51315914529
51315924050
51315933145
51315940347
51315947915
51315954263
51315963296
51315973122
51315980508
51315988320
51315995339
51316000893
51316010659
51316017800
51316026711
51316033791
51316040627
51316050881
51316055031
51316064797
51316071511
51316074441
51316084511
51316091713
51316098488
51316105446
51316113442
51316121621
51316126809
51316135476
51316142006
51316145058
51316157875
51316160134
51316170815
51316177590
51316185952
51316193154
51316196388
51316207192
51316214394
51316220925
51316227883
51316235756
51316243630
51316249245
51316258034
51316265419
51316273476
51316279884
51316284950
51316293007
51316299416
51316307655
51316314247
51316316933
51316328895
51316336281
51316342567
51316349281
51316356300
51316363624
51316368141
51316375770
51316382423
51316390663
51316398048
51316403236
51316411537
51316415748
51316425697
51316431800
51316434425
51316443702
51316451454
51316458717
51316465248
51316473487
51316479469
51316484352
51316491065
51316496925
51316504310
51316510047
51316517188
51316526832
51316529762
51316538123
51316544105
51316551673
51316557472
51316563819
51316570838
51316577491
51316586219
51316592872
51316600562
51316606361
51316610938
51316618995
51316624671
51316631568
51316638099
51316645057
51316655372
51316660621
51316668738
51316675696
51316680701
51316686988
51316691626
51316699805
51316712195
51316719397
51316726477
51316732764
51316738807
51316746741
51316754248
51316759497
51316767005
51316774085
51316785559
51316790930
51316799292
51316805152
51316812598
51316819068
51316824133
51316831152
51316837561
51316847693
51316855383
51316861731
51316867102
51316874243
51316879797
51316889136
51316893042
51316905127
51316912573
51316920569
51316928931
51316934790
51316941077
51316945227
51316954870
51316962622
51316969031
51316976233
51316986242
51316992529
51316997595
51317006689
51317009497
51317018530
51317026281
51317034765
51317041540
51317049353
51317056494
51317062719
51317068884
51317075598
51317082006
51317090795
51317098486
51317103613
51317112524
51317119299
51317126318
51317130163
51317139562
51317146154
51317154943
51317161474
51317167028
51317176672
51317181615
51317189733
51317196447
51317202428
51317208288
51317216650
51317224767
51317231420
51317237829
51317242711
51317250768
51317257299
51317264318
51317271215
51317280187
51317288122
51317295568
51317301549
51317306615
51317317052
51317322240
51317330663
51317340001
51317346715
51317353917
51317362462
51317369054
51317373937
51317383275
51317387548
51317396764
51317403966
51317412206
51317418859
51317426793
51317433690
51317439000
51317448033
51317453221
51317461217
51317471104
51317480992
51317486607
51317495274
51317502721
51317508397
51317515050
51317521092
51317530919
51317537450
51317546849
51317553990
51317560338
51317565343
51317573277
51317579564
51317585606
51317595006
51317605809
51317612584
51317620091
51317627964
51317633030
51317641819
51317648899
51317658238
51317665867
51317670262
51317683018
51317689793
51317697911
51317703343
51317713352
51317717991
51317727146
51317734959
51317742710
51317749180
51317756809
51317764134
51317767979
51317777256
51317783787
51317791294
51317798618
51317807163
51317816440
51317823948
51317830356
51317835300
51317842869
51317850193
51317857822
51317862339
51317872165
51317880039
51317886997
51317892978
51317901096
51317907566
51317911899
51317921421
51317928257
51317936740
51317970859
51317979892
51317985996
51317992404
51317997714
51318004428
51318010349
51318016086
51318018894
51318024387
51318029086
51318033664
51318036655
51318042392
51318045871
51318051730
51318055881
51318059238
51318063815
51318066989
51318071140
51318075900
51318080112
51318083835
51318086459
