51203928732
51203934225
51203940389
51203945821
51203950765
51203957052
51203961996
51203967489
51203972311
51203979024
51203985372
51203989828
51203997091
51204002889
51204008260
51204014547
51204020040
51204026265
51204032613
51204039205
51204045858
51204052022
51204058797
51204065755
51204070821
51204077962
51204086873
51204092122
51204098714
51204104451
51204111348
51204116719
51204123983
51204131673
51204138082
51204144124
51204149617
51204157002
51204163594
51204170735
51204177388
51204182393
51204191121
51204197041
51204203389
51204211202
51204217549
51204224385
51204230183
51204238057
51204244466
51204249226
51204256978
51204264485
51204271626
51204279561
51204286275
51204292378
51204297505
51204306965
51204313374
51204321492
51204328511
51204335591
51204341755
51204348774
51204355427
51204363667
51204369832
51204376484
51204383992
51204389546
51204396809
51204403645
51204409138
51204418598
51204424641
51204432209
51204438130
51204445454
51204453388
51204458821
51204467365
51204473713
51204481342
51204488361
51204495503
51204501789
51204508076
51204516804
51204523335
51204529926
51204536884
51204543171
51204550312
51204558491
51204566303
51204572163
51204578876
51204585651
51204591633
51204598591
51204605182
51204614460
51204622394
51204628254
51204635029
51204642353
51204649494
51204655536
51204663349
51204671344
51204677265
51204684589
51204691547
51204698261
51204704486
51204711994
51204719867
51204727069
51204734394
51204741596
51204750080
51204756732
51204765460
51204773944
51204780963
51204786395
51204796710
51204802692
51204809894
51204816119
51204826923
51204833575
51204842059
51204848834
51204856647
51204865131
51204872516
51204882403
51204889850
51204897357
51204904498
51204912127
51204919269
51204926471
51204936175
51204944049
51204952411
51204959796
51204966632
51204974932
51204981890
51204988482
51204999224
51205006121
51205013018
51205021746
51205031207
51205037127
51205046404
51205052691
51205061602
51205070208
51205077044
51205084857
51205091631
51205101275
51205110186
51205117693
51205126177
51205135088
51205142107
51205151385
51205159014
51205167986
51205176287
51205182085
51205192278
51205200701
51205209063
51205215532
51205223284
51205232256
51205240557
51205247759
51205255571
51205264666
51205272539
51205280046
51205287920
51205298601
51205306658
51205314409
51205323809
51205333208
51205340837
51205348772
51205358476
51205366472
51205374956
51205383257
51205389604
51205398454
51205404680
51205411943
51205422014
51205430986
51205437639
51205446367
51205454851
51205462480
51205468339
51205477128
51205484270
51205493852
51205501298
51205510576
51205516923
51205525468
51205531633
51205542070
51205550248
51205558366
51205566056
51205573808
51205582109
51205590165
51205597795
51205605180
51205613786
51205621476
51205629533
51205637467
51205644670
51205652665
51205658524
51205667375
51205676835
51205684892
51205695023
51205703324
51205711320
51205720658
51205729569
51205736344
51205744828
51205754777
51205762772
51205769303
51205778275
51205784806
51205795487
51205802750
51205810746
51205818986
51205828934
51205835953
51205843583
51205850663
51205859024
51205867875
51205874955
51205883011
51205890396
51205897965
51205904618
51205911209
51205918961
51205927750
51205936051
51205943436
51205952103
51205959549
51205968094
51205978470
51205987015
51205995255
51206004471
51206011795
51206022293
51206030167
51206038345
51206047378
51206056900
51206066849
51206075271
51206083145
51206091446
51206097793
51206106277
51206113724
51206121963
51206131180
51206136795
51206147171
51206154800
51206164322
51206171341
51206182266
51206189834
51206197891
51206207656
51206218093
51206226028
51206235427
51206242141
51206251724
51206263442
51206270278
51206278640
51206287429
51206293838
51206299697
51206307388
51206313186
51206320083
51206325454
51206331008
51206335769
51206341933
51206348769
51206354507
51206360549
51206366225
51206371352
51206376723
51206381789
51206388198
51206393386
51206398696
51206404860
51206410781
51206414870
51206420974
51206427382
51206432448
51206438674
51206443923
51206449050
51206454970
51206461318
51206466933
51206472915
51206478652
51206484389
51206489394
51206493361
51206500685
51206505263
51206511122
51206515822
51206521559
51206528700
51206531386
51206538405
51206544264
51206549452
51206554762
51206560072
51206565688
51206570876
51206577345
51206583083
51206587538
51206593031
51206598219
51206602370
51206607680
51206613722
51206619154
51206623122
51206630568
51206635634
51206641554
51206646498
51206652357
51206656813
51206662794
51206667860
51206673414
51206678175
51206685255
51206690321
51206696425
51206701124
51206706312
51206712416
51206717116
51206723524
51206728834
51206734449
51206739576
51206744276
51206749159
51206754835
51206759352
51206765638
51206771132
51206775099
51206780287
51206785963
51206790235
51206796766
51206801771
51206807814
51206812330
51206817579
51206823866
51206827528
51206833814
51206839796
51206845594
51206851026
51206854810
51206861402
51206865797
51206870924
51206877210
51206883070
51206889173
51206894178
51206898695
51206903394
51206909071
51206914503
51206919752
51206925672
51206930677
51206936109
51206940992
51206945936
51206952039
51206958265
51206963453
51206969007
51206973829
51206979322
51206984083
51206989454
51206995618
51206999769
51207005506
51207010450
51207015210
51207020765
51207026014
51207030774
51207034986
51207041456
51207045057
51207051221
51207057447
51207062635
51207067945
51207074109
51207079358
51207084607
51207090222
51207095716
51207100782
51207106702
51207111646
51207117261
51207120801
51207126416
51207133496
51207138379
51207142896
51207148572
51207153882
51207159985
51207162976
51207169690
51207175977
51207180554
51207186292
51207191541
51207196973
51207202649
51207208875
51207214978
51207218884
51207224438
51207229138
51207235120
51207240979
51207245984
51207250439
51207257275
51207261365
51207265759
51207271191
51207277539
51207281994
51207287671
51207293713
51207298901
51207304761
51207310864
51207315991
51207321423
51207326794
51207332348
51207337048
51207343335
51207347668
51207353344
51207359082
51207365002
51207370251
51207374890
51207380810
51207385815
51207391430
51207397168
51207401257
51207406872
51207413342
51207418347
51207423352
51207428417
51207433727
51207439099
51207444409
51207450024
51207456982
51207462231
51207468029
51207472180
51207477551
51207482739
51207488171
51207494762
51207499706
51207504162
51207509716
51207515026
51207519054
51207526440
51207530895
51207536144
51207541698
51207546825
51207551952
51207558056
51207562694
51207568310
51207574535
51207579235
51207585705
51207590526
51207595165
51207600231
51207605358
51207611767
51207616649
51207622936
51207627453
51207633922
51207639049
51207644420
51207649913
51207655773
51207659984
51207666088
51207669933
51207676464
51207681713
51207687816
51207692089
51207698131
51207703685
51207710216
51207715648
51207720775
51207726024
51207732006
51207736400
51207741283
51207746898
51207752452
51207758922
51207763744
51207768627
51207774730
51207779186
51207786083
51207791576
51207796520
51207801585
51207806041
51207811351
51207816173
51207822093
51207826305
51207830821
51207836497
51207842052
51207845653
51207851817
51207856883
51207862681
51207868236
51207873485
51207879588
51207884593
51207890635
51207895823
51207899669
51207905528
51207911082
51207915538
51207920176
51207925486
51207931895
51207935862
51207942271
51207947215
51207952830
51207959239
51207964183
51207970347
51207975474
51207980967
51207986399
51207991587
51207996531
51208001536
51208007518
51208012644
51208018138
51208023814
51208028208
51208033213
51208039561
51208044749
51208048838
51208055430
51208061228
51208065623
51208071360
51208077219
51208081065
51208086497
51208092051
51208096812
51208100352
51208106089
51208112498
51208117747
51208122935
51208128794
51208134287
51208139353
51208145884
51208150889
51208156077
51208161692
51208166209
51208171030
51208176401
51208181772
51208188059
51208192026
51208197642
51208202830
51208206614
51208212656
51208218393
51208224741
51208229136
51208235361
51208241526
51208245737
51208251719
51208255686
51208262461
51208266672
51208272837
51208278757
51208284800
51208289865
51208294321
51208301584
51208306406
51208312509
51208316965
51208322336
51208328134
51208332102
51208337778
51208343027
51208348520
51208353281
51208358530
51208362802
51208368601
51208374460
51208379648
51208385507
51208390268
51208394663
51208399362
51208404916
51208410715
51208416208
51208420663
51208425668
51208431833
51208436410
51208442087
51208447519
51208452707
51208458322
51208462900
51208469186
51208472665
51208478280
51208484750
51208490060
51208495004
51208500436
51208506357
51208510629
51208516244
51208522470
51208526620
51208532174
51208536264
51208542184
51208546334
51208552560
51208559335
51208564767
51208569894
51208574655
51208580331
51208584420
51208589975
51208596505
51208602182
51208607431
51208612069
51208617379
51208622140
51208628243
51208633554
51208638497
51208643624
51208648812
51208654427
51208659432
51208664864
51208671273
51208676156
51208681222
51208687142
51208691842
51208697396
51208703500
51208708627
51208714120
51208718392
51208723824
51208729867
51208736092
51208740609
51208746163
51208752694
51208757577
51208762581
51208767403
51208773934
51208778634
51208782845
51208789620
51208794381
51208799569
51208805184
51208810860
51208816292
51208820504
51208825814
51208830819
51208836373
51208841011
51208846749
51208852303
51208857857
51208862557
51208868233
51208873238
51208878731
51208885689
51208889412
51208895699
51208901070
51208905770
51208910774
51208916878
51208922066
51208926399
51208932930
51208937020
51208943123
51208948860
51208952950
51208958870
51208964546
51208969185
51208974922
51208979622
51208985176
51208991158
51208996223
51208999886
51209007088
51209012032
51209017769
51209023689
51209027595
51209033882
51209038765
51209044258
51209048775
51209054573
51209059883
51209066353
51209072090
51209076484
51209081978
51209087044
51209092293
51209097969
51209103645
51209109504
51209114753
51209120247
51209127083
51209131965
51209138313
51209142830
51209148201
51209153389
51209158088
51209163887
51209169197
51209173713
51209180000
51209184822
51209190559
51209194831
51209200874
51209204780
51209210456
51209215522
51209221504
51209227363
51209231452
51209237312
51209243842
51209248847
51209254279
51209259895
51209265693
51209271003
51209275520
51209279548
51209285407
51209291816
51209296027
51209302131
51209307380
51209312934
51209316901
51209322517
51209327766
51209333320
51209337775
51209343268
51209348517
51209353828
51209358161
51209364631
51209369819
51209375373
51209380744
51209386054
51209390571
51209396613
51209401008
51209406806
51209412238
51209416327
51209421821
51209427253
51209433051
51209438483
51209442817
51209448432
51209453681
51209459296
51209464118
51209469611
51209474982
51209480353
51209485480
51209491095
51209496100
51209500617
51209505988
51209511725
51209517768
51209522528
51209528632
51209533942
51209539618
51209546027
51209549628
51209556159
51209560187
51209565741
51209572089
51209575995
51209582587
51209587470
51209593573
51209597540
51209604803
51209609503
51209616400
51209620795
51209626837
51209632269
51209637091
51209641180
51209647894
51209654364
51209659552
51209665594
51209669134
51209675299
51209679999
51209685919
51209692511
51209697821
51209703314
51209708014
51209714117
51209718206
51209724371
51209729986
51209735907
51209741583
51209746405
51209751593
51209756109
51209761908
51209767828
51209772772
51209779730
51209784368
51209789129
51209794622
51209800054
51209806158
51209810430
51209816900
51209821356
51209826483
51209831426
51209838323
51209843878
51209848882
51209854070
51209859136
51209864080
51209869512
51209875738
51209881170
51209884893
51209890447
51209895940
51209900823
51209905645
51209911871
51209917364
51209922246
51209927862
51209932561
51209937749
51209943365
51209947759
51209953374
51209959478
51209963750
51209969854
51209975652
51209981817
51209987005
51209993657
51209998174
51210002996
51210008489
51210015081
51210018865
51210025884
51210030462
51210036016
51210040776
51210046453
51210051763
51210057195
51210063970
51210069280
51210074895
51210078923
51210084478
51210088628
51210094853
51210100835
51210106267
51210112798
51210117009
51210122258
51210128179
51210134587
51210140813
51210144475
51210150578
51210155644
51210161137
51210166692
51210171636
51210177373
51210182072
51210187871
51210192021
51210197636
51210203923
51210208318
51210214055
51210219426
51210224858
51210229008
51210234196
51210240178
51210245183
51210252751
51210257329
51210263005
51210269475
51210275334
51210281865
51210287175
51210292668
51210298283
51210302189
51210307805
51210312504
51210318608
51210324589
51210328923
51210335881
51210340825
51210346318
51210350468
51210356572
51210362675
51210367497
51210373051
51210378483
51210383488
51210389714
51210395085
51210400944
51210404911
51210412113
51210416630
51210421879
51210427799
51210432133
51210437443
51210443607
51210448490
51210452946
51210458439
51210464298
51210470463
51210474613
51210480961
51210485600
51210491215
51210496464
51210502506
51210506901
51210513065
51210518558
51210523075
51210528080
51210534244
51210538334
51210544681
51210550419
51210556156
51210561283
51210566837
51210571476
51210578312
51210583378
51210588505
51210592411
51210599369
51210605411
51210609867
51210616337
51210621891
51210627994
51210632145
51210637394
51210643192
51210647159
51210654117
51210659366
51210665470
51210670291
51210675540
51210680973
51210686344
51210693363
51210698184
51210703739
51210708621
51210713870
51210720035
51210725040
51210730960
51210735538
51210742191
51210746585
51210750919
51210757449
51210763248
51210768558
51210775272
51210780277
51210784732
51210791385
51210795718
51210802249
51210806094
51210811710
51210816775
51210822391
51210828982
51210832767
51210838992
51210844302
51210849795
51210854312
51210860660
51210864505
51210870669
51210876529
51210882266
51210888125
51210892398
51210897586
51210902530
51210908084
51210914004
51210917849
51210925052
51210928836
51210934390
51210939151
51210944705
51210950198
51210955752
51210960208
51210965213
51210970278
51210976138
51210981875
51210988467
51210992861
51210998904
51211003604
51211009585
51211014285
51211020571
51211025881
51211030154
51211036868
51211043215
51211047244
51211054018
51211060732
51211065676
51211070620
51211076235
51211082400
51211086062
51211092410
51211099123
51211104189
51211110537
51211114748
51211121462
51211125185
51211131228
51211138064
51211143435
51211147829
51211153078
51211157961
51211163393
51211169253
51211174563
51211179812
51211186098
51211190676
51211196047
51211202089
51211207460
51211212282
51211217470
51211222780
51211228395
51211232424
51211239321
51211245607
51211251467
51211257875
51211263185
51211267702
51211272646
51211278810
51211283266
51211289492
51211294557
51211299806
51211304201
51211309145
51211314882
51211320986
51211327150
51211332521
51211337221
51211342897
51211346864
51211352602
51211357362
51211363344
51211367860
51211373048
51211378114
51211383485
51211388429
51211394472
51211400270
51211405031
51211411073
51211415773
51211421754
51211427675
51211432435
51211438112
51211443666
51211449281
51211454469
51211458925
51211464540
51211470827
51211475831
51211482057
51211486024
51211491762
51211496644
51211502870
51211509828
51211514283
51211520204
51211524415
51211529908
51211535707
51211539918
51211546083
51211550904
51211556581
51211561280
51211567628
51211572450
51211578370
51211584535
51211589112
51211594422
51211601075
51211605226
51211611085
51211616700
51211621827
51211628236
51211632935
51211639161
51211644044
51211649781
51211656556
51211661622
51211666139
51211673219
51211678590
51211683289
51211690186
51211695985
51211702088
51211707520
51211713441
51211717957
51211723939
51211729188
51211734681
51211740235
51211745240
51211750611
51211755799
51211762147
51211768433
51211772767
51211778321
51211783387
51211787903
51211793519
51211797913
51211804810
51211808594
51211814209
51211819703
51211824768
51211830384
51211835205
51211842347
51211846375
51211852173
51211857300
51211862305
51211866638
51211872254
51211877198
51211882691
51211888184
51211893494
51211898133
51211903321
51211908203
51211913941
51211919495
51211925110
51211930420
51211935303
51211938904
51211945374
51211951782
51211956299
51211960999
51211966492
51211972595
51211977905
51211982605
51211988586
51211995117
51212000000
51212005249
51212011169
51212015137
51212021179
51212027954
51212032654
51212038147
51212042663
51212047851
51212054626
51212058410
51212065063
51212070740
51212075928
51212080627
51212085937
51212091491
51212096740
51212102722
51212107544
51212112671
51212119323
51212125061
51212130615
51212136413
51212141357
51212146911
51212151367
51212156921
51212162109
51212166076
51212173645
51212178771
51212184265
51212189025
51212194274
51212200256
51212204345
51212210693
51212215942
51212221130
51212226196
51212230956
51212237670
51212243530
51212248596
51212254028
51212258422
51212264037
51212268676
51212274291
51212279723
51212284789
51212290404
51212294616
51212299804
51212305602
51212310790
51212316161
51212320129
51212326171
51212330871
51212336608
51212342162
51212347472
51212352904
51212358336
51212363830
51212369811
51212374938
51212379577
51212384704
51212390441
51212396361
51212401244
51212406859
51212413146
51212417174
51212423400
51212428832
51212434325
51212439086
51212445494
51212450438
51212455870
51212462157
51212466918
51212472716
51212477477
51212481566
51212488585
51212495482
51212501097
51212506713
51212511534
51212516173
51212522399
51212527953
51212532591
51212537718
51212544737
51212548644
51212554686
51212559508
51212565184
51212571410
51212575987
51212581969
51212587218
51212592772
51212597655
51212604307
51212609984
51212614622
51212620238
51212626707
51212631773
51212636290
51212640318
51212647337
51212651488
51212657286
51212661741
51212667357
51212672972
51212679258
51212685179
51212690855
51212696287
51212700987
51212705809
51212711607
51212717649
51212722654
51212728575
51212734007
51212738829
51212742430
51212748716
51212754637
51212760313
51212765074
51212770262
51212775450
51212782041
51212786253
51212792112
51212797788
51212803709
51212807615
51212813169
51212818235
51212822752
51212828855
51212834532
51212838011
51212843748
51212849363
51212854490
51212860105
51212866819
51212872800
51212878355
51212882749
51212887876
51212893674
51212898862
51212905027
51212910398
51212916074
51212920591
51212925840
51212931394
51212935911
51212942136
51212948301
51212953794
51212958310
51212963682
51212970029
51212974668
51212979978
51212986081
51212991880
51212995969
51213000913
51213007016
51213012876
51213017087
51213023557
51213029111
51213034726
51213039243
51213045041
51213051267
51213055661
51213061338
51213066709
51213072019
51213075742
51213081418
51213088193
51213092038
51213098630
51213103940
51213108457
51213113461
51213119199
51213125791
51213129636
51213136228
51213140378
51213146176
51213151914
51213157590
51213163327
51213168454
51213174435
51213179074
51213184567
51213189633
51213194821
51213201413
51213206723
51213212399
51213217099
51213222104
51213227658
51213232358
51213238156
51213243100
51213248715
51213254880
51213261227
51213266537
51213272885
51213278256
51213284726
51213290036
51213295041
51213300656
51213305050
51213311642
51213316037
51213321347
51213327023
51213333126
51213338009
51213342526
51213348385
51213352963
51213357418
51213362667
51213369137
51213372860
51213379269
51213383602
51213390194
51213395870
51213400509
51213406124
51213410336
51213416744
51213423824
51213429501
51213434322
51213439205
51213444698
51213448727
51213454952
51213461849
51213466854
51213472897
51213477840
51213482906
51213488583
51213493099
51213498043
51213504391
51213510250
51213515377
51213520565
51213525631
51213531673
51213537960
51213542843
51213548031
51213553402
51213557918
51213563045
51213569271
51213575069
51213580806
51213585750
51213590816
51213596248
51213602047
51213606502
51213614010
51213617550
51213624202
51213629879
51213634517
51213640132
51213645748
51213651180
51213656551
51213661922
51213665950
51213671382
51213677303
51213681697
51213687801
51213693233
51213698909
51213703365
51213709285
51213713741
51213718318
51213723934
51213729488
51213735286
51213739986
51213745479
51213750911
51213756099
51213761775
51213767146
51213771846
51213777217
51213782039
51213788264
51213792781
51213798823
51213803584
51213809199
51213814937
51213820430
51213826411
51213831355
51213835689
51213841060
51213846675
51213851680
51213856318
51213862300
51213867305
51213872249
51213877437
51213882930
51213888240
51213892268
51213899226
51213904109
51213908992
51213914790
51213919185
51213923152
51213929011
51213934809
51213940791
51213946162
51213950068
51213955378
51213960078
51213966120
51213972346
51213976130
51213981867
51213986018
51213992549
51213997065
51214001582
51214008723
51214014582
51214019831
51214024592
51214029658
51214034663
51214040217
51214047297
51214052912
51214057429
51214062006
51214066889
51214072626
51214078120
51214083979
51214089411
51214094538
51214098505
51214104548
51214108637
51214114924
51214121271
51214126948
51214130793
51214137140
51214141596
51214146784
51214152277
51214157526
51214163202
51214168940
51214173945
51214179865
51214184076
51214189509
51214197138
51214201960
51214206720
51214211603
51214217096
51214221552
51214227411
51214233088
51214237482
51214242548
51214248285
51214252985
51214258173
51214262812
51214268488
51214274408
51214279352
51214284967
51214289484
51214295099
51214299616
51214304926
51214310480
51214315119
51214319879
51214325922
51214330255
51214335077
51214341058
51214346246
51214352228
51214356805
51214361749
51214367059
51214372797
51214377191
51214383966
51214390314
51214394952
51214400751
51214405878
51214411859
51214416254
51214422357
51214428094
51214433282
51214437860
51214444391
51214448480
51214455804
51214460260
51214466363
51214471490
51214476922
51214481561
51214487054
51214492547
51214498590
51214503961
51214509576
51214513238
51214519647
51214526422
51214531610
51214535943
51214542413
51214547540
51214552301
51214558221
51214564324
51214569696
51214574822
51214580682
51214584832
51214591851
51214596429
51214602838
51214608209
51214612542
51214617730
51214622857
51214628228
51214634881
51214640618
51214645684
51214651482
51214656548
51214660577
51214665093
51214670708
51214677300
51214681390
51214687005
51214691521
51214696770
51214701226
51214707146
51214713250
51214717705
51214724480
51214728692
51214734490
51214739861
51214745476
51214751153
51214756341
51214762444
51214769158
51214775261
51214780938
51214785637
51214791253
51214796807
51214802727
51214806755
51214811821
51214817498
51214823113
51214827141
51214833184
51214837944
51214843438
51214849358
51214855156
51214859917
51214865166
51214870842
51214876824
51214881767
51214886406
51214891167
51214897942
51214902825
51214908013
51214914116
51214919182
51214924309
51214931328
51214936821
51214942497
51214947685
51214952202
51214956963
51214961906
51214968315
51214974174
51214978996
51214982597
51214989250
51214994011
51214999565
51215005424
51215009636
51215014519
51215019829
51215024956
51215028313
51215035820
51215040581
51215046440
51215051506
51215056694
51215063225
51215068351
51215073906
51215080009
51215084831
51215090385
51215095207
51215100456
51215104362
51215109794
51215115776
51215120781
51215126579
51215131034
51215136711
51215142814
51215147392
51215152885
51215158866
51215164604
51215169853
51215175407
51215179984
51215185539
51215190727
51215196342
51215202690
51215207145
51215213004
51215217826
51215223319
51215229240
51215233512
51215237418
51215244071
51215249015
51215253226
51215259269
51215264701
51215269950
51215275077
51215279594
51215284232
51215289970
51215295158
51215301078
51215306083
51215311149
51215317008
51215321830
51215327567
51215333182
51215338675
51215344474
51215349601
51215356254
51215361564
51215365592
51215373160
51215378226
51215383414
51215387931
51215393607
51215399772
51215404410
51215409354
51215415335
51215420035
51215425345
51215431266
51215436515
51215441519
51215449698
51215454398
51215460318
51215466605
51215470450
51215476676
51215481742
51215487540
51215492911
51215499442
51215504508
51215509268
51215514884
51215520743
51215526724
51215532828
51215537955
51215542654
51215548453
51215553214
51215560599
51215564932
51215570853
51215575613
51215581900
51215586417
51215592581
51215598563
51215603567
51215609183
51215615286
51215619620
51215625540
51215631155
51215637198
51215643240
51215648977
51215654043
51215659475
51215665091
51215669851
51215675345
51215680899
51215685965
51215689932
51215694815
51215700369
51215707083
51215712393
51215717398
51215722097
51215728079
51215732656
51215738333
51215744314
51215749502
51215754995
51215759573
51215764822
51215771047
51215776296
51215781484
51215786794
51215792532
51215798208
51215803884
51215808401
51215814504
51215820242
51215826162
51215831411
51215836294
51215841177
51215846853
51215851553
51215857717
51215862722
51215867971
51215873708
51215879568
51215883962
51215890554
51215895254
51215902334
51215907461
51215911977
51215916982
51215922597
51215928029
51215933156
51215938222
51215944265
51215948964
51215954824
51215960500
51215965566
51215971792
51215976125
51215982106
51215986745
51215992543
51215997915
51216002797
51216009023
51216013417
51216018972
51216025441
51216032521
51216037526
51216043019
51216048329
51216053212
51216058888
51216063161
51216070302
51216074330
51216080434
51216084035
51216090199
51216095387
51216100148
51216105580
51216111012
51216116139
51216120107
51216126393
51216131337
51216136342
51216143361
51216147694
51216152455
51216158192
51216163441
51216168324
51216173756
51216179127
51216185231
51216191334
51216195119
51216201161
51216206288
51216212025
51216216725
51216222340
51216229359
51216233876
51216240040
51216245534
51216251210
51216256947
51216261342
51216266835
51216271351
51216276600
51216282643
51216287831
51216292592
51216298146
51216303273
51216308644
51216314381
51216319081
51216324757
51216329945
51216335438
51216340504
51216346058
51216352528
51216358876
51216364308
51216368946
51216374989
51216380360
51216385548
51216390125
51216395741
51216401234
51216407704
51216412525
51216418018
51216423573
51216429005
51216435413
51216440846
51216446278
51216451466
51216456043
51216461414
51216467884
51216473560
51216479114
51216484180
51216489857
51216494923
51216500782
51216506519
51216511829
51216517261
51216521961
51216528065
51216532886
51216538868
51216544971
51216550525
51216555164
51216561512
51216566639
51216572986
51216578174
51216582996
51216589161
51216594288
51216600208
51216603809
51216611194
51216616932
51216622730
51216627491
51216633228
51216638233
51216643970
51216648914
51216654834
51216660266
51216666492
51216671497
51216676807
51216680957
51216687854
51216692249
51216697681
51216703479
51216707813
51216714160
51216718738
51216725635
51216731128
51216736377
51216742297
51216747913
51216752917
51216758472
51216763660
51216769519
51216774280
51216778918
51216785144
51216789661
51216795520
51216800952
51216805347
51216811511
51216816028
51216821460
51216826037
51216831470
51216837634
51216842578
51216848315
51216853381
51216857654
51216863818
51216869738
51216874499
51216879992
51216884509
51216890063
51216896045
51216900073
51216906482
51216911731
51216918017
51216922045
51216927661
51216933947
51216939746
51216945544
51216951281
51216955493
51216962145
51216966906
51216972827
51216977404
51216982653
51216989672
51216993701
51216999194
51217004077
51217009997
51217016772
51217020495
51217026598
51217031664
51217037402
51217041186
51217047228
51217053759
51217059130
51217064501
51217068652
51217073840
51217080370
51217084093
51217090746
51217095995
51217101671
51217107043
51217110522
51217117419
51217122973
51217129320
51217134813
51217140795
51217145250
51217151232
51217157396
51217163256
51217168993
51217173693
51217179369
51217184557
51217189989
51217195177
51217200487
51217204760
51217210314
51217216356
51217220507
51217226427
51217231554
51217237718
51217242723
51217247972
51217252001
51217258409
51217262865
51217268114
51217272753
51217278307
51217284044
51217288683
51217294664
51217300768
51217306200
51217311815
51217317186
51217322313
51217327196
51217332811
51217338182
51217343858
51217349718
51217354295
51217359422
51217365709
51217370897
51217377000
51217382555
51217387926
51217394517
51217398668
51217404283
51217408922
51217415025
51217421251
51217425584
51217431505
51217437669
51217441758
51217446519
51217452195
51217458726
51217463487
51217469835
51217475206
51217480333
51217485887
51217491624
51217497789
51217501695
51217508409
51217512986
51217518724
51217523240
51217529832
51217536180
51217541612
51217546983
51217551316
51217556260
51217560716
51217567735
51217573289
51217578172
51217582810
51217588365
51217593614
51217598191
51217603684
51217609727
51217613877
51217619370
51217624253
51217629014
51217634629
51217641221
51217645554
51217649888
51217655320
51217661546
51217665269
51217671616
51217676011
51217682664
51217687180
51217692490
51217698105
51217701829
51217708298
51217715806
51217721787
51217725754
51217733140
51217737595
51217742478
51217748765
51217753647
51217760117
51217765122
51217770798
51217775803
51217781479
51217785813
51217790940
51217796860
51217802658
51217808701
51217812790
51217818405
51217824082
51217829636
51217834275
51217840439
51217844712
51217850449
51217856247
51217861435
51217866928
51217872421
51217877915
51217881943
51217888474
51217893051
51217899155
51217904404
51217910141
51217915024
51217919418
51217924179
51217930161
51217935349
51217941086
51217946335
51217949997
51217956528
51217961472
51217965988
51217972946
51217978744
51217984177
51217987656
51217993881
51217998459
51218004318
51218009323
51218015487
51218019943
51218025253
51218030807
51218035690
51218041061
51218045639
51218051681
51218056381
51218061630
51218068405
51218073715
51218079330
51218084701
51218089645
51218095199
51218101181
51218106247
51218111129
51218116806
51218123031
51218126876
51218132797
51218138656
51218144027
51218148971
51218154525
51218160201
51218164657
51218170883
51218177291
51218182601
51218188033
51218193282
51218199203
51218204208
51218209335
51218215377
51218220687
51218225631
51218231368
51218235946
51218242110
51218247604
51218252853
51218257308
51218261642
51218267440
51218272384
51218277938
51218283431
51218288131
51218293502
51218299483
51218304061
51218309737
51218315536
51218321029
51218325484
51218330977
51218336715
51218341414
51218346785
51218351729
51218356673
51218361922
51218368575
51218374068
51218379134
51218385909
51218390670
51218395552
51218401412
51218407393
51218413314
51218418624
51218424544
51218430037
51218434127
51218441024
51218445357
51218450911
51218456648
51218463362
51218466902
51218474043
51218480696
51218486250
51218491866
51218497420
51218502913
51218508589
51218512862
51218519759
51218524580
51218530257
51218536421
51218541121
51218546065
51218552595
51218557722
51218563399
51218568220
51218574202
51218578474
51218584822
51218590437
51218595015
51218600508
51218605513
51218611372
51218615217
51218621321
51218626570
51218632857
51218637434
51218642683
51218648481
51218653486
51218659224
51218664717
51218670332
51218674849
51218679976
51218685835
51218690840
51218697126
51218702375
51218708418
51218713484
51218718489
51218723738
51218729048
51218734358
51218739851
51218743879
51218751020
51218756086
51218759687
51218765425
51218770918
51218776045
51218782026
51218787763
51218792829
51218797895
51218804182
51218810774
51218815534
51218819990
51218825849
51218830366
51218835249
51218840986
51218846052
51218851667
51218856184
51218861860
51218866743
51218872541
51218878278
51218885663
51218889570
51218896406
51218900373
51218906293
51218911237
51218917463
51218922590
51218928144
51218932721
51218938154
51218943403
51218949018
51218953656
51218961652
51218968061
51218974286
51218980817
51218987043
51218992902
51218999005
51219002484
51219009442
51219013837
51219020063
51219024762
51219031049
51219037641
51219041974
51219047528
51219053693
51219057965
51219063825
51219068158
51219075788
51219080487
51219086102
51219091412
51219096967
51219101361
51219107160
51219113019
51219118085
51219123761
51219128278
51219133893
51219139508
51219145856
51219151288
51219156354
51219161175
51219167218
51219172833
51219178693
51219183331
51219189130
51219194623
51219199078
51219204754
51219209698
51219215436
51219221478
51219226178
51219231671
51219236798
51219242108
51219247845
51219253338
51219257733
51219262677
51219269513
51219274517
51219279583
51219284771
51219289837
51219295330
51219301312
51219306622
51219312176
51219317120
51219323040
51219330059
51219335552
51219341046
51219345257
51219350994
51219356976
51219362530
51219366863
51219372112
51219377789
51219383282
51219387432
51219394268
51219400066
51219405804
51219409832
51219416058
51219421063
51219426373
51219430706
51219436199
51219441936
51219447674
51219453167
51219457684
51219463726
51219470074
51219476726
51219481975
51219486858
51219491619
51219497173
51219502544
51219507061
51219512920
51219518413
51219524212
51219528972
51219533306
51219539104
51219544719
51219551006
51219556499
51219562786
51219567363
51219573101
51219577495
51219583049
51219587993
51219593608
51219599529
51219603801
51219609417
51219615398
51219620647
51219626506
51219632061
51219637432
51219642253
51219647563
51219653667
51219659953
51219665325
51219671001
51219675701
51219681987
51219686992
51219692607
51219698589
51219704326
51219709453
51219715068
51219720744
51219725627
51219731670
51219737773
51219742534
51219748088
51219752910
51219758159
51219764812
51219769572
51219775066
51219779033
51219786235
51219790935
51219797343
51219801921
51219808940
51219814067
51219819743
51219825725
51219830363
51219835368
51219839885
51219846721
51219851725
51219856120
51219861186
51219866740
51219871257
51219876017
51219882670
51219889628
51219894084
51219899455
51219905131
51219908793
51219914714
51219919657
51219925456
51219931498
51219936137
51219940898
51219946025
51219950785
51219955912
51219962077
51219966654
51219973368
51219978007
51219982035
51219988871
51219993876
51219999430
51220005228
51220010600
51220015665
51220021464
51220025675
51220031657
51220036539
51220042948
51220047770
51220053629
51220057719
51220063822
51220069865
51220075663
51220081644
51220086954
51220092448
51220096476
51220102091
51220107828
51220113688
51220118876
51220124979
51220130106
51220134501
51220139383
51220145121
51220150004
51220155741
51220161661
51220167032
51220172709
51220178873
51220183939
51220189554
51220194071
51220199259
51220203958
51220209513
51220215982
51220220926
51220225504
51220231729
51220236978
51220242716
51220248087
51220254923
51220259439
51220264627
51220270853
51220275675
51220280191
51220286051
51220291483
51220297403
51220302408
51220309183
51220313333
51220319009
51220324869
51220329568
51220335855
51220340128
51220345254
51220352762
51220357095
51220362955
51220367776
51220373147
51220378274
51220383279
51220389261
51220397012
51220401468
51220407632
51220413003
51220417581
51220423196
51220427469
51220433694
51220439126
51220444314
51220449502
51220454080
51220458841
51220463296
51220469888
51220475930
51220480996
51220485757
51220491189
51220495156
51220500711
51220505715
51220512307
51220516641
51220521768
51220528115
51220532815
51220537515
51220542642
51220548257
51220554238
51220558938
51220564614
51220570168
51220574624
51220582436
51220587624
51220592812
51220598245
51220604104
51220608559
51220614114
51220620217
51220625771
51220631448
51220636147
51220641763
51220646279
51220652016
51220657937
51220663918
51220668374
51220672768
51220679055
51220683999
51220689065
51220694863
51220699441
51220705056
51220709633
51220715676
51220720254
51220725747
51220731789
51220736977
51220741860
51220747536
51220751931
51220758217
51220762551
51220768044
51220774392
51220779030
51220784584
51220788796
51220795571
51220802468
51220808876
51220813820
51220819985
51220825112
51220830361
51220836342
51220841652
51220847084
51220851479
51220857765
51220863014
51220867775
51220873329
51220878945
51220883339
51220889015
51220894020
51220899330
51220904762
51220909096
51220915810
51220920753
51220927834
51220931923
51220935280
51220939369
51220944740
51220949318
51220953773
51220956886
51220960976
51220964332
51220969398
51220973366
51220978371
51220982094
51220986671
51220991310
51220995888
51221000953
51221005104
51221008278
51221012001
51221015968
51221020118
51221024269
51221028785
51221033241
51221037269
51221041664
51221045814
51221050758
51221055885
51221060035
51221063697
51221068153
51221072792
51221076942
51221080543
51221086647
51221090187
51221093971
51221098732
51221102088
51221106239
51221110694
51221113868
51221118385
51221122352
51221126747
51221130409
51221133705
51221138709
51221142188
51221146217
51221150672
51221154518
51221159767
51221164405
51221167823
51221172096
51221175880
51221179298
51221184913
51221189002
51221193946
51221197669
51221202735
51221207557
51221212074
51221217017
51221221534
51221226661
51221229835
51221234656
51221238990
51221243812
51221248634
51221253028
51221257239
51221260596
51221265113
51221269507
51221273597
51221278968
51221283240
51221287452
51221291236
51221295691
51221300086
51221305030
51221309791
51221314429
51221318274
51221323340
51221328711
51221333960
51221338355
51221343665
51221348182
51221351477
51221357337
51221361121
51221365821
51221370520
51221373999
51221377967
51221381995
51221385230
51221389319
51221392615
51221396582
51221401587
51221405432
51221409766
51221413855
51221417029
51221420569
51221425269
51221427954
51221432593
51221436926
51221441626
51221444312
51221449378
51221452551
51221456580
51221460730
51221463660
51221467139
51221470862
51221473731
51221477881
51221481055
51221484656
51221488196
51221492285
51221496008
51221499915
51221503455
51221506812
51221510779
51221513647
51221517676
51221520728
51221523657
51221527014
51221530371
51221533423
51221537268
51221541174
51221545935
51221549719
51221553625
51221557593
51221561072
51221564062
51221567541
51221570776
51221574438
51221577307
51221580664
51221583960
51221588904
51221592138
51221594519
51221597815
51221600683
51221604895
51221607824
51221610754
51221613989
51221617224
51221620947
51221623510
51221626684
51221630713
51221633947
51221637365
51221640905
51221644018
51221647986
51221651831
51221654944
51221658056
51221662451
51221666235
51221669348
51221672155
51221675940
51221679296
51221682226
51221685217
51221688635
51221691748
51221695288
51221698095
51221701147
51221703772
51221707434
51221710241
51221713354
51221716345
51221720190
51221722936
51221726477
51221729956
51221733007
51221736059
51221738867
51221742224
51221745519
51221749365
51221752416
51221754797
51221758215
51221762060
51221764623
51221767614
51221770544
51221773840
51221776647
51221779699
51221783117
51221785314
51221788366
51221790624
51221793432
51221795812
51221798010
51221800329
51221803259
51221805700
51221807531
51221810156
51221812536
51221814245
51221816564
51221818517
51221820592
51221822301
51221824377
51221826757
51221828527
51221830480
51221832616
51221834753
51221836828
51221839208
51221841528
51221843420
51221845373
51221847509
51221849340
51221851354
51221853307
51221855321
51221857275
51221859167
51221861425
51221863317
51221864965
51221867162
51221869054
51221871496
51221873388
51221875463
51221877355
51221879247
51221881261
51221883275
51221885290
51221887365
51221889135
51221891393
51221893163
51221895543
51221897375
51221899206
51221901220
51221902929
51221905004
51221906957
51221908727
51221910619
51221912450
51221914525
51221916356
51221918004
51221920019
51221921666
51221923559
51221925512
51221927709
51221929479
51221931249
51221933202
51221935155
51221937536
51221939428
51221941320
51221943212
51221945226
51221947606
51221949315
51221951207
51221953344
51221955175
51221957250
51221959142
51221961217
51221963353
51221965306
51221967076
51221968785
51221971288
51221973058
51221975011
51221976842
51221978795
51221980992
51221982885
51221984716
51221987035
51221988744
51221990880
51221992528
51221994603
51221996678
51221998510
51222000463
51222002538
51222004430
51222006566
51222008519
51222010594
51222014196
51222019994
51222021703
51222023656
51222025792
51222027806
51222029759
51222031590
51222033422
51222035558
51222037389
51222039037
51222041112
51222043126
51222045140
51222046910
51222048741
51222050694
51222052831
51222054784
51222056676
51222058507
51222060338
51222062718
51222064732
51222066869
51222068944
51222070653
51222072728
51222074620
51222076878
51222078954
51222080907
51222082555
51222084264
51222086766
51222088780
51222090611
51222092564
51222094457
51222096715
51222098607
51222100499
51222102330
51222103978
51222106114
51222107945
51222110143
51222112035
51222114232
51222115880
51222117894
51222119725
51222121556
51222123387
51222125645
51222127538
51222130040
51222131871
51222133519
51222135777
51222137730
51222140111
51222142125
51222144322
51222146275
51222148167
51222150120
51222152196
51222154454
51222156407
51222158360
51222160496
51222162572
51222164525
51222166478
51222168431
51222170140
51222172032
51222173985
51222175938
51222178074
51222179967
51222181920
51222183690
51222185521
51222187840
51222189610
51222191624
51222193760
51222195775
51222197850
51222199986
51222201939
51222203892
51222205723
51222207982
51222209874
51222211949
51222213963
51222216099
51222218174
51222220250
51222222203
51222224217
51222226048
51222227818
51222230015
51222231785
51222233983
51222235936
51222237950
51222239842
51222241978
51222244542
51222246190
51222248326
51222250218
51222252415
51222254918
51222256627
51222258763
51222260655
51222262669
51222265171
51222267002
51222269078
51222270970
51222272740
51222274876
51222276585
51222278843
51222280918
51222282750
51222284581
51222286290
51222288609
51222290562
51222292271
51222294224
51222296055
51222298008
51222299961
51222301915
51222303990
51222305699
51222307286
51222309483
51222311802
51222313877
51222315708
51222317356
51222319126
51222321812
51222323521
51222325474
51222327549
51222329319
51222331455
51222333592
51222335972
51222337864
51222339878
51222342015
51222343968
51222346409
51222348362
51222350254
51222352146
51222354222
51222356480
51222358311
51222360264
51222362339
51222364292
51222366245
51222368137
51222369785
51222371678
51222373875
51222375706
51222377720
51222379734
51222381565
51222383518
51222385471
51222387364
51222389378
51222391392
51222393162
51222395481
51222397495
51222400120
51222402134
51222403965
51222405918
51222407871
51222409824
51222411839
51222413792
51222415623
51222417576
51222419651
51222421360
51222423374
51222425449
51222427097
51222428989
51222430759
51222433140
51222435215
51222437290
51222439304
51222440891
51222443149
51222445408
51222447239
51222449497
51222451633
51222453586
51222456089
51222457920
51222460178
51222462253
51222464390
51222466404
51222468479
51222470615
51222472385
51222474705
51222476841
51222478611
51222480625
51222482700
51222484592
51222486484
51222488315
51222490330
51222492344
51222494236
51222496189
51222498264
51222500217
51222502109
51222503940
51222505771
51222507786
51222509617
51222511570
51222513767
51222515659
51222517673
51222519443
51222521396
51222523838
51222525608
51222527500
51222529758
51222531772
51222533970
51222535801
51222538303
51222540317
51222542331
51222544284
51222546116
51222548435
51222550388
51222552341
51222553867
51222556003
51222557834
51222559848
51222561802
51222563755
51222565708
51222567600
51222569553
51222571384
51222573276
51222575351
51222577732
51222579746
51222581699
51222584018
51222586032
51222588352
51222590305
51222592380
51222594699
51222596775
51222598789
51222600803
51222602573
51222604953
51222607090
51222609104
51222611118
51222616306
51222618076
51222619785
51222621616
51222623325
51222625156
51222626804
51222629123
51222631076
51222633090
51222635166
51222636997
51222639377
51222641391
51222643711
51222645664
51222647556
51222649326
51222651340
51222653537
51222655429
51222657504
51222659213
51222661044
51222663120
51222665073
51222667148
51222668979
51222670871
51222672702
51222674594
51222676547
51222678500
51222680515
51222682102
51222683811
51222686191
51222688083
51222689853
51222692050
51222693698
51222696079
51222698032
51222700107
51222701877
51222703952
51222706149
51222708286
51222710666
51222712619
51222714572
51222716525
51222718723
51222720981
51222722751
51222724887
51222726901
51222728854
51222730807
51222733371
51222735385
51222737277
51222739108
51222741183
51222743075
51222745090
51222747104
51222748874
51222750644
51222752658
51222754611
51222756747
51222758639
51222760654
51222762546
51222764316
51222766452
51222768161
51222770114
51222772311
51222774020
51222776340
51222778354
51222780307
51222782504
51222784152
51222786471
51222788424
51222790195
51222792148
51222794284
51222795932
51222797885
51222799838
51222801608
51222803683
51222805453
51222807406
51222809543
51222811374
51222813266
51222815280
51222817050
51222819003
51222820956
51222822848
51222824984
51222826754
51222828891
51222830905
51222832980
51222834872
51222836642
51222838656
51222840731
51222843112
51222845248
51222847018
51222849032
51222850741
51222852877
51222854647
51222856662
51222858737
51222860568
51222862277
51222864352
51222866000
51222867953
51222869723
51222871493
51222873385
51222875582
51222877536
51222879428
51222881381
51222883212
51222885287
51222886996
51222888888
51222890719
51222892672
51222894808
51222896640
51222898532
51222900363
51222902255
51222904208
51222906405
51222908602
51222910433
51222912326
51222914340
51222916232
51222918612
51222920504
51222922457
51222924410
51222926364
51222928134
51222929965
51222931918
51222933749
51222935763
51222937594
51222939608
51222941500
51222943209
51222945162
51222947115
51222948947
51222951022
51222952731
51222954623
51222956393
51222958285
51222960482
51222962435
51222964633
51222966403
51222968234
51222970492
51222972506
51222974154
51222975863
51222977877
51222980013
51222982028
51222983798
51222985751
51222987704
51222989596
51222991488
51222993563
51222995455
51222997225
51222999056
51223001009
51223002840
51223004794
51223006869
51223008578
51223010470
51223012728
51223014559
51223016878
51223018954
51223021212
51223023287
51223025545
51223027499
51223029513
51223031771
51223033846
51223036166
51223037997
51223040011
51223041842
51223043734
51223045931
51223047762
51223049715
51223051485
51223053377
51223055270
51223057223
51223058993
51223060885
51223063021
51223064852
51223066744
51223068819
51223070711
51223072542
51223074312
51223076205
51223078463
51223080172
51223082125
51223084200
51223086214
51223088350
51223090487
51223092745
51223094515
51223096468
51223098116
51223100008
51223102266
51223104220
51223105990
51223108065
51223109835
51223112093
51223113863
51223116060
51223117952
51223119906
51223121981
51223123690
51223125704
51223127901
51223129915
51223131868
51223133944
51223136141
51223137911
51223139620
51223141634
51223143648
51223145784
51223147921
51223150118
51223151949
51223153963
51223156343
51223158297
51223160189
51223162264
51223164278
51223165926
51223167696
51223169710
51223171541
51223173677
51223175264
51223176912
51223178682
51223180391
51223182222
51223184053
51223185640
51223187349
51223189119
51223190950
51223192964
51223194734
51223196749
51223198580
51223200655
51223202425
51223204683
51223206392
51223208467
51223210665
51223212557
51223214510
51223216463
51223218416
51223219942
51223222078
51223223970
51223225740
51223227510
51223229341
51223231233
51223233003
51223234773
51223236727
51223238619
51223240572
51223242403
51223243990
51223245943
51223247896
51223249605
51223251619
51223253633
51223255525
51223257356
51223259676
51223261629
51223263643
51223265535
51223267366
51223269380
51223271211
51223273348
51223274934
51223276888
51223278719
51223280245
51223282442
51223284395
51223286104
51223287813
51223289705
51223291414
51223293245
51223295076
51223296785
51223298677
51223300630
51223302461
51223304170
51223306673
51223308321
51223310701
51223312532
51223314668
51223316438
51223318391
51223320283
51223322237
51223323946
51223325594
51223327669
51223329683
51223331514
51223333467
51223335603
51223337495
51223339082
51223341035
51223342805
51223344514
51223346101
51223348299
51223350069
51223351900
51223353670
51223355501
51223357515
51223359224
51223360994
51223362642
51223364778
51223366853
51223369111
51223371553
51223373384
51223375398
51223377107
51223379304
51223381196
51223383150
51223384981
51223387239
51223388826
51223390840
51223392610
51223394502
51223396272
51223398103
51223399873
51223401826
51223403474
51223405488
51223407686
51223409395
51223411104
51223412874
51223414888
51223416963
51223418794
51223420686
51223422456
51223424531
51223426118
51223428071
51223430024
51223431855
51223433809
51223435823
51223437654
51223439485
51223441499
51223443391
51223445344
51223447053
51223449006
51223450959
51223452668
51223454622
51223456453
51223458162
51223460176
51223462129
51223464204
51223466096
51223467744
51223469636
51223471772
51223473787
51223475679
51223477510
51223479707
51223481599
51223483796
51223485627
51223487458
51223489473
51223491181
51223493257
51223494783
51223496980
51223498567
51223500703
51223502473
51223504243
51223506074
51223507905
51223509614
51223511689
51223513642
51223515351
51223517060
51223518647
51223520844
51223522737
51223524629
51223526399
51223528169
51223530061
51223531831
51223533906
51223535798
51223537873
51223539521
51223541535
51223543672
51223545564
51223547395
51223549165
51223551301
51223553132
51223554902
51223556733
51223558686
51223560334
51223562409
51223564057
51223566010
51223567841
51223569734
51223571443
51223573335
51223575166
51223577058
51223579072
51223580964
51223582917
51223584687
51223586518
51223588532
51223590363
51223592194
51223593964
51223596162
51223597932
51223599824
51223601716
51223603364
51223605622
51223607331
51223609345
51223611359
51223613313
51223615205
51223617341
51223619233
51223621125
51223623139
51223624909
51223626740
51223628327
51223630280
51223632111
51223634186
51223635834
51223637788
51223639802
51223641511
51223643586
51223645478
51223647370
51223649262
51223651398
51223653413
51223655549
51223657746
51223659394
51223661347
51223663361
51223665497
51223667390
51223669160
51223670869
51223672883
51223674653
51223676362
51223678193
51223679780
51223681489
51223683564
51223685578
51223687287
51223689057
51223690705
51223692658
51223694916
51223696625
51223698578
51223700409
51223702607
51223704560
51223706879
51223708527
51223710419
51223712800
51223714570
51223716523
51223718537
51223720429
51223722443
51223724457
51223726410
51223727997
51223729889
51223731598
51223733735
51223735566
51223737153
51223738923
51223740815
51223742463
51223744355
51223746064
51223747773
51223749604
51223751435
51223753388
51223755158
51223756928
51223758576
51223760651
51223762848
51223764496
51223766327
51223768036
51223770050
51223771881
51223774018
51223775788
51223777558
51223779816
51223781708
51223783722
51223785492
51223787384
51223788971
51223791413
51223792939
51223794831
51223796540
51223798065
51223800202
51223802277
51223804108
51223805939
51223807892
51223809662
51223811310
51223813324
51223814911
51223816864
51223818756
51223820893
51223822602
51223824494
51223826508
51223828278
51223830170
51223832001
51223833588
51223835846
51223837860
51223839630
51223841461
51223843231
51223845001
51223846893
51223848663
51223850311
51223852081
51223853790
51223855316
51223857330
51223859161
51223860870
51223862702
51223864349
51223866303
51223868561
51223870392
51223872284
51223874298
51223876068
51223877960
51223880158
51223881744
51223883759
51223885651
51223887543
51223889801
51223891388
51223893219
51223894867
51223897186
51223899017
51223900665
51223902313
51223904266
51223906097
51223907867
51223909882
51223911468
51223913300
51223915009
51223916962
51223918854
51223920685
51223922577
51223924347
51223926727
51223928619
51223930633
51223932342
51223934235
51223936066
51223937897
51223939789
51223941681
51223944000
51223945709
51223947601
51223949249
51223951202
51223952850
51223954437
51223956390
51223958343
51223959930
51223961639
51223963348
51223965362
51223966949
51223969024
51223970611
51223972626
51223974212
51223975921
51223977875
51223979461
51223981354
51223983185
51223985321
51223986969
51223988739
51223990814
51223992401
51223994415
51223996063
51223998077
51223999969
51224002472
51224004181
51224005890
51224007660
51224009430
51224011200
51224013031
51224015167
51224016754
51224018585
51224020477
51224022064
51224024078
51224025787
51224027740
51224029327
51224031524
51224033050
51224035003
51224036529
51224038299
51224040252
51224041961
51224044159
51224045868
51224048065
51224050018
51224052032
51224054168
51224055938
51224057586
51224059723
51224061676
51224063385
51224065094
51224066925
51224068756
51224070648
51224072479
51224074188
51224075775
51224077545
51224079498
51224081329
51224082977
51224084991
51224086883
51224088653
51224090728
51224092437
51224094390
51224096099
51224098114
51224100128
51224102020
51224103546
51224105499
51224107574
51224109344
51224111419
51224113006
51224114898
51224116668
51224118377
51224120330
51224122100
51224123809
51224125701
51224127471
51224129302
51224131194
51224133026
51224134368
51224136688
51224138214
51224139861
51224141693
51224143585
51224145721
51224147552
51224149627
51224151580
51224153533
51224155242
51224157623
51224159393
51224161285
51224162933
51224164703
51224166778
51224168548
51224170257
51224171844
51224173614
51224175628
51224177337
51224178924
51224180755
51224182464
51224184417
51224186248
51224187957
51224189971
51224191802
51224193572
51224195525
51224197295
51224199004
51224200896
51224203033
51224204742
51224206451
51224208526
51224210479
51224212798
51224214690
51224217071
51224218902
51224220794
51224222564
51224224578
51224226714
51224228728
51224230682
51224232452
51224234466
51224236480
51224238372
51224240203
51224242095
51224243987
51224245879
51224248015
51224249908
51224251800
51224253814
51224255645
51224257476
51224259551
51224261504
51224263396
51224265288
51224266936
51224269317
51224271087
51224273467
51224275359
51224277190
51224279143
51224281219
51224283050
51224284698
51224286651
51224288421
51224290374
51224292144
51224293731
51224295806
51224297637
51224299224
51224301238
51224302825
51224305144
51224307097
51224308928
51224311126
51224313140
51224314910
51224316802
51224318755
51224320830
51224322844
51224324981
51224326751
51224328887
51224330962
51224332671
51224335051
51224336821
51224342070
51224344268
51224346343
51224348235
51224350066
51224352019
51224353972
51224356108
51224357756
51224359465
51224361235
51224363189
51224364836
51224366545
51224368377
51224370085
51224371794
51224373564
51224376006
51224377898
51224380034
51224381743
51224384062
51224385771
51224387908
51224389861
51224391570
51224393401
51224395049
51224397185
51224398955
51224400969
51224402922
51224404692
51224406829
51224408660
51224410369
51224412566
51224414336
51224416045
51224418181
51224419951
51224421843
51224423979
51224425749
51224427580
51224429656
51224431731
51224433684
51224435576
51224437590
51224439787
51224441619
51224443877
51224445830
51224447600
51224449797
51224451628
51224453459
51224455229
51224457427
51224459685
51224461638
51224463530
51224465300
51224467375
51224469267
51224471282
51224473174
51224475188
51224477019
51224478606
51224480559
51224482451
51224484404
51224486113
51224488066
51224490263
51224491911
51224493925
51224495818
51224497710
51224499968
51224501738
51224503630
51224505705
51224507536
51224509917
51224511870
51224513884
51224515959
51224517912
51224519987
51224521880
51224524260
51224526152
51224527983
51224529692
51224531584
51224533842
51224535734
51224537932
51224539702
51224541533
51224543425
51224545256
51224547148
51224549040
51224551176
51224553007
51224554777
51224556853
51224558806
51224560576
51224562529
51224564421
51224566862
51224568693
51224570463
51224572417
51224574309
51224576750
51224578703
51224581083
51224583342
51224585356
51224587370
51224589506
51224591765
51224593474
51224595488
51224597441
51224599272
51224601347
51224603605
51224605436
51224607267
51224609282
51224610991
51224612883
51224614897
51224616850
51224618803
51224620878
51224622648
51224624601
51224626494
51224628386
51224630461
51224632597
51224634611
51224636564
51224638578
51224640532
51224642851
51224644804
51224646696
51224648649
51224650480
51224652800
51224654936
51224656889
51224658659
51224660551
51224662321
51224664274
51224666288
51224668119
51224669950
51224671965
51224673857
51224675627
51224677519
51224679533
51224681303
51224683500
51224685636
51224687590
51224689604
51224691374
51224693876
51224695585
51224697660
51224699797
51224701689
51224703947
51224705839
51224708280
51224710234
51224712309
51224714018
51224716032
51224718351
51224720426
51224722318
51224724211
51224726286
51224728178
51224730314
51224732145
51224734159
51224735990
51224737882
51224739713
51224741728
51224743681
51224745451
51224747465
51224749540
51224751737
51224753751
51224755766
51224757658
51224759672
51224761869
51224763822
51224765348
51224767301
51224769315
51224771635
51224773649
51224775785
51224777555
51224779691
51224781644
51224783537
51224785673
51224787626
51224789640
51224791837
51224793729
51224795622
51224797575
51224800016
51224801908
51224803861
51224805509
51224807523
51224809293
51224811307
51224813444
51224815153
51224817045
51224819547
51224821378
51224823148
51224825346
51224827360
51224829496
51224831327
51224833524
51224835538
51224837430
51224839689
51224841642
51224844144
51224845853
51224847867
51224850187
51224851774
51224853727
51224855619
51224857572
51224859342
51224861356
51224863431
51224865385
51224867155
51224869352
51224871427
51224873502
51224875333
51224877042
51224878934
51224880765
51224882841
51224884794
51224887052
51224889005
51224890958
51224893155
51224895109
51224897306
51224899381
51224901212
51224903531
51224905362
51224907560
51224909452
51224911161
51224913236
51224915311
51224917203
51224919339
51224921109
51224923002
51224925016
51224926725
51224928861
51224930814
51224932706
51224934598
51224936368
51224938382
51224940763
51224942655
51224944608
51224946622
51224948575
51224950650
51224952481
51224954496
51224956449
51224958219
51224960416
51224962430
51224964811
51224966703
51224968534
51224971280
51224973355
51224975431
51224977445
51224979459
51224981168
51224983487
51224985684
51224987516
51224989530
51224991422
51224993131
51224995389
51224997281
51224999112
51225001187
51225002957
51225004849
51225006742
51225008634
51225010892
51225012723
51225014737
51225016812
51225019071
51225021085
51225023221
51225025296
51225027677
51225029508
51225031583
51225034146
51225035794
51225037991
51225039884
51225041837
51225043851
51225045499
51225047330
51225049405
51225050992
51225053006
51225054898
51225056790
51225058804
51225061063
51225063077
51225064786
51225066678
51225068509
51225070462
51225072659
51225074735
51225076444
51225078397
51225080655
51225082547
51225084744
51225086697
51225088651
51225090970
51225092679
51225094998
51225097012
51225098599
51225100919
51225102689
51225104703
51225106778
51225108609
51225110501
51225112454
51225114712
51225116544
51225118375
51225120084
51225122159
51225124051
51225126126
51225128140
51225130276
51225132168
51225134122
51225136319
51225138333
51225140347
51225142483
51225144314
51225146695
51225148587
51225150662
51225152798
51225154751
51225156888
51225159024
51225161282
51225163235
51225165249
51225167142
51225169034
51225171353
51225173245
51225175259
51225176968
51225179043
51225181119
51225182950
51225184781
51225186612
51225188687
51225190518
51225192471
51225194363
51225196560
51225198330
51225200161
51225202176
51225204129
