51046382443
51046387631
51046393002
51046399106
51046406369
51046411679
51046419125
51046425167
51046431454
51046438351
51046444027
51046451474
51046458065
51046463131
51046469540
51046476132
51046483395
51046489437
51046495236
51046502987
51046508846
51046515743
51046521115
51046528805
51046534664
51046541012
51046547543
51046555233
51046562374
51046569210
51046574520
51046580807
51046586483
51046595516
51046604671
51046608395
51046616024
51046622127
51046628658
51046635799
51046642147
51046651729
51046658687
51046664974
51046670894
51046676388
51046685970
51046693050
51046699398
51046707699
51046715389
51046720089
51046727657
51046735591
51046742977
51046748531
51046755977
51046761592
51046770076
51046775630
51046782894
51046791011
51046798152
51046805049
51046811641
51046816402
51046823909
51046832454
51046840389
51046845760
51046852290
51046858638
51046865047
51046871944
51046878902
51046885677
51046893245
51046900142
51046907283
51046913814
51046919368
51046927486
51046933101
51046940791
51046949031
51046955989
51046962275
51046969172
51046975398
51046981807
51046988276
51046995479
51047003901
51047009333
51047015803
51047022761
51047029536
51047034724
51047042598
51047048518
51047057063
51047063655
51047070246
51047077510
51047084040
51047089228
51047099116
51047104975
51047111384
51047118464
51047123408
51047132014
51047136897
51047144953
51047152644
51047160456
51047165888
51047173518
51047179621
51047185542
51047191035
51047200129
51047207941
51047216059
51047223566
51047231440
51047239619
51047246760
51047252985
51047260859
51047269465
51047274836
51047282953
51047290094
51047297480
51047304987
51047312067
51047320246
51047326715
51047334650
51047342279
51047348993
51047356501
51047365900
51047374140
51047383112
51047389826
51047398371
51047405512
51047411859
51047420526
51047426874
51047435968
51047444574
51047453363
51047461786
51047464777
51047476923
51047485590
51047491510
51047498834
51047507745
51047515436
51047523309
51047530755
51047538690
51047543817
51047553277
51047557977
51047570489
51047578241
51047584283
51047591852
51047599847
51047607538
51047615472
51047622979
51047629815
51047636529
51047646234
51047653802
51047662957
51047667962
51047677789
51047684808
51047693963
51047703423
51047711785
51047719048
51047728143
51047735223
51047743707
51047750298
51047759515
51047769585
51047777703
51047783990
51047794122
51047800408
51047809075
51047817498
51047824029
51047833855
51047842461
51047850701
51047857842
51047866021
51047872246
51047880791
51047889702
51047897088
51047904412
51047913994
51047922051
51047929680
51047936699
51047945305
51047952141
51047961663
51047968987
51047979180
51047986077
51047994866
51048001763
51048009575
51048015862
51048024223
51048032707
51048041679
51048047722
51048056938
51048063286
51048071770
51048080070
51048086784
51048095756
51048104423
51048112358
51048119133
51048127617
51048135490
51048143852
51048148674
51048158928
51048167839
51048176567
51048185661
51048194145
51048202140
51048209160
51048214531
51048227104
51048236991
51048243888
51048252738
51048261650
51048269950
51048276786
51048286491
51048293571
51048303459
51048310539
51048316337
51048328483
51048333976
51048343498
51048350394
51048360954
51048370597
51048377799
51048386405
51048394523
51048402274
51048410636
51048418937
51048427238
51048435416
51048442985
51048449882
51048457755
51048465568
51048474418
51048481131
51048490226
51048499869
51048508109
51048517936
51048527640
51048536124
51048543387
51048551932
51048559439
51048566458
51048574088
51048583060
51048591117
51048597464
51048605277
51048614127
51048622183
51048628836
51048637320
51048647330
51048655753
51048663382
51048671500
51048680472
51048688895
51048696524
51048705862
51048713736
51048720816
51048732535
51048741202
51048748526
51048755484
51048765249
51048771048
51048781790
51048788687
51048795218
51048799124
51048804373
51048812368
51048818411
51048823965
51048829397
51048833609
51048840506
51048843679
51048851980
51048856924
51048862905
51048868521
51048872671
51048878469
51048883596
51048889883
51048895925
51048900991
51048906912
51048910635
51048916555
51048922048
51048927725
51048931997
51048938894
51048942068
51048948965
51048951955
51048959036
51048966421
51048971975
51048978750
51048981863
51048988393
51048994436
51049000234
51049006032
51049012014
51049018606
51049021841
51049028982
51049033315
51049036977
51049043813
51049049795
51049054555
51049059682
51049064382
51049069021
51049073476
51049079824
51049083669
51049090078
51049095144
51049099843
51049104909
51049109792
51049115468
51049121816
51049126699
51049131215
51049135121
51049141652
51049146169
51049151906
51049157704
51049162099
51049168508
51049173085
51049177968
51049182912
51049189137
51049195607
51049200368
51049204823
51049210072
51049215016
51049221364
51049225453
51049232350
51049237233
51049242238
51049247121
51049251454
51049257985
51049263417
51049267995
51049273122
51049277760
51049283437
51049289174
51049294545
51049300648
51049305592
51049311024
51049316029
51049320790
51049325734
51049329457
51049337208
51049341359
51049346486
51049352467
51049356495
51049362172
51049367238
51049373524
51049378529
51049382435
51049389271
51049393483
51049398915
51049405446
51049409535
51049415394
51049419789
51049425282
51049430775
51049435841
51049441944
51049445118
51049451222
51049456532
51049461109
51049468189
51049473805
51049479359
51049482289
51049489430
51049494923
51049499623
51049504505
51049508412
51049515675
51049520252
51049524769
51049529957
51049535267
51049540943
51049546986
51049552906
51049557667
51049562550
51049568043
51049571949
51049577625
51049583912
51049588856
51049595203
51049599964
51049604969
51049611194
51049617176
51049622547
51049629444
51049634998
51049640613
51049648121
51049654163
51049658680
51049664356
51049670398
51049675708
51049681324
51049686512
51049692249
51049697864
51049703052
51049709156
51049715808
51049722339
51049727405
51049731983
51049737964
51049744251
51049750171
51049754932
51049760303
51049765064
51049770191
51049775379
51049780994
51049786792
51049792896
51049799182
51049804065
51049811572
51049816699
51049822254
51049827869
51049832629
51049837512
51049844165
51049848254
51049854602
51049860461
51049866443
51049872363
51049876636
51049882556
51049888232
51049893237
51049899524
51049905627
51049910754
51049916247
51049921374
51049926990
51049931628
51049936755
51049943042
51049947314
51049953906
51049959277
51049964282
51049969958
51049976184
51049981616
51049986560
51049991137
51049997058
51050003589
51050009143
51050014514
51050019213
51050024279
51050029895
51050033923
51050041857
51050046801
51050051928
51050057177
51050062670
51050067370
51050074023
51050078356
51050084643
51050090563
51050095934
51050100939
51050107409
51050112719
51050118395
51050121996
51050129015
51050133715
51050140612
51050145434
51050151659
51050157336
51050162218
51050166369
51050173388
51050177965
51050184313
51050189623
51050194933
51050199572
51050204821
51050210192
51050215502
51050221606
51050226610
51050233385
51050239306
51050244616
51050249621
51050255419
51050260729
51050266161
51050271288
51050277025
51050281786
51050288378
51050293749
51050298937
51050303942
51050311083
51050316210
51050321947
51050327684
51050330614
51050337694
51050343676
51050348436
51050355455
51050360033
51050366564
51050372667
51050379137
51050384203
51050389513
51050395921
51050401659
51050407579
51050413133
51050418565
51050424120
51050429552
51050434801
51050441881
51050447069
51050452379
51050456346
51050462450
51050467638
51050473863
51050478380
51050484666
51050489366
51050494981
51050499193
51050505662
51050510789
51050515977
51050521348
51050527208
51050531846
51050536302
51050543260
51050548570
51050553880
51050559007
51050564500
51050569444
51050575181
51050580430
51050586473
51050590989
51050596482
51050601854
51050604539
51050612657
51050619126
51050622239
51050630357
51050635118
51050639146
51050645982
51050652330
51050657640
51050664292
51050667344
51050675401
51050681504
51050686631
51050692979
51050697556
51050702622
51050707749
51050712998
51050717637
51050723191
51050728623
51050733445
51050738145
51050744553
51050748399
51050755173
51050760789
51050765366
51050770188
51050774705
51050779404
51050785020
51050791917
51050797837
51050802781
51050807114
51050812791
51050817673
51050820542
51050829758
51050835129
51050838975
51050845383
51050848191
51050855027
51050859604
51050865464
51050871262
51050876206
51050881882
51050885910
51050891221
51050897629
51050903305
51050908249
51050913559
51050919052
51050923508
51050927536
51050934861
51050940964
51050944748
51050952133
51050958786
51050962692
51050969162
51050975205
51050981369
51050988510
51050994980
51050999985
51051006271
51051011765
51051016892
51051023361
51051028977
51051034042
51051040268
51051045700
51051051010
51051055893
51051061325
51051066208
51051071640
51051077866
51051083115
51051089462
51051093918
51051101120
51051106003
51051111313
51051117721
51051122848
51051127487
51051132675
51051138534
51051145797
51051150802
51051156357
51051162338
51051167343
51051171920
51051178634
51051184311
51051188888
51051194198
51051198898
51051204635
51051207443
51051217086
51051223068
51051228012
51051232833
51051237655
51051242172
51051247848
51051253036
51051258712
51051263961
51051268966
51051274337
51051279098
51051286239
51051292220
51051297592
51051303390
51051306320
51051313216
51051317184
51051324142
51051329086
51051333663
51051339462
51051344527
51051349105
51051355880
51051361129
51051366683
51051369552
51051377181
51051382064
51051386886
51051392318
51051396285
51051403365
51051408553
51051412032
51051417892
51051423202
51051428634
51051433883
51051439193
51051445296
51051449080
51051454635
51051460250
51051465377
51051471480
51051476912
51051482161
51051487166
51051492049
51051497176
51051502730
51051509810
51051514693
51051519698
51051524947
51051529708
51051534224
51051538253
51051545149
51051550460
51051555403
51051560835
51051565108
51051570662
51051576888
51051581587
51051585066
51051591902
51051596785
51051601790
51051607344
51051611495
51051618391
51051623030
51051627669
51051633894
51051638716
51051642989
51051648055
51051654280
51051659163
51051664107
51051668928
51051673933
51051680098
51051684248
51051691145
51051695601
51051700667
51051706587
51051710921
51051716292
51051720137
51051726790
51051731856
51051736738
51051741865
51051746321
51051753401
51051758406
51051763655
51051769026
51051773176
51051778975
51051784285
51051790449
51051796125
51051800459
51051806074
51051810713
51051816267
51051820967
51051826216
51051832319
51051837690
51051842512
51051847212
51051851179
51051858320
51051864240
51051869245
51051874983
51051879499
51051884138
51051889082
51051894209
51051900068
51051904096
51051910322
51051914900
51051919843
51051926496
51051931684
51051938032
51051942731
51051948164
51051952253
51051957197
51051962995
51051969282
51051974897
51051979902
51051983869
51051989301
51051994550
51052001752
51052006757
51052011030
51052017377
51052021955
51052026960
51052032209
51052037702
51052045209
51052049909
51052054426
51052059125
51052064740
51052070539
51052076276
51052081830
51052087140
51052091047
51052097272
51052102338
51052106977
51052112958
51052116986
51052122602
51052128278
51052133039
51052137616
51052142438
51052148847
51052152753
51052158612
51052162763
51052168744
51052171430
51052178693
51052183637
51052188519
51052193463
51052199323
51052203717
51052207501
51052214459
51052219647
51052224591
51052228619
51052233991
51052239056
51052244550
51052250592
51052255597
51052260602
51052266034
51052270978
51052275861
51052280377
51052286359
51052293072
51052297955
51052302777
51052308148
51052313214
51052319440
51052326825
51052332623
51052338543
51052343365
51052350384
51052355450
51052359784
51052365887
51052372296
51052376324
51052383343
51052389752
51052394207
51052399578
51052405865
51052411114
51052416729
51052420636
51052428021
51052432659
51052437908
51052444073
51052449688
51052454388
51052461468
51052465618
51052471234
51052476971
51052482037
51052487713
51052492901
51052498455
51052505291
51052509869
51052516644
51052521893
51052526959
51052532452
51052537579
51052542156
51052547832
51052553143
51052558941
51052564007
51052569683
51052575420
51052581219
51052587139
51052592571
51052597759
51052603618
51052608501
51052613628
51052619488
51052623333
51052629253
51052634197
51052639507
51052645733
51052651165
51052657390
51052662273
51052668926
51052674602
51052680767
51052685955
51052690899
51052696636
51052701702
51052707256
51052713481
51052718486
51052724102
51052729412
51052734294
51052738567
51052745220
51052751018
51052755962
51052761760
51052767070
51052772136
51052776164
51052784099
51052789104
51052794841
51052801189
51052806255
51052811321
51052816631
51052822246
51052827861
51052832561
51052838481
51052844402
51052849345
51052856792
51052863139
51052867351
51052873698
51052879008
51052884685
51052890605
51052895976
51052902507
51052907390
51052913676
51052918620
51052923869
51052929179
51052936686
51052941997
51052947001
51052952250
51052956096
51052963420
51052970378
51052974223
51052979838
51052983744
51052990519
51052995463
51053000407
51053005961
51053012065
51053016703
51053022258
51053026225
51053034037
51053039286
51053044291
51053050456
51053055888
51053061808
51053066630
51053073161
51053078471
51053084025
51053089274
51053095927
51053101237
51053107279
51053112895
51053116862
51053122111
51053127787
51053133463
51053138468
51053144999
51053149454
51053155863
51053161051
51053166361
51053171122
51053177653
51053182413
51053187418
51053192728
51053198160
51053203776
51053208964
51053214762
51053219156
51053225870
51053231363
51053236918
51053243387
51053249735
51053253458
51053260294
51053264933
51053270365
51053276773
51053282938
51053288309
51053293497
51053299967
51053305582
51053310343
51053315958
51053321512
51053326822
51053333048
51053339212
51053345072
51053351175
51053356424
51053360941
51053367166
51053371012
51053376993
51053381998
51053389261
51053393961
51053400064
51053404581
51053410684
51053416788
51053421426
51053426736
51053432474
51053437601
51053443521
51053448770
51053454996
51053460672
51053465189
51053471475
51053475503
51053482339
51053488260
51053493936
51053499856
51053505777
51053510538
51053514932
51053519266
51053525613
51053532022
51053536538
51053542642
51053550088
51053554849
51053560586
51053564737
51053573098
51053578897
51053584451
51053590554
51053596902
51053602883
51053608194
51053614236
51053618264
51053624978
51053630838
51053636575
51053642739
51053648477
51053654946
51053659341
51053665811
51053670876
51053676675
51053680703
51053686501
51053691445
51053697549
51053703286
51053709206
51053713784
51053720010
51053723977
51053730874
51053737588
51053742715
51053747597
51053752053
51053758340
51053764260
51053769692
51053776040
51053782693
51053788125
51053793130
51053798134
51053803933
51053809182
51053814187
51053820839
51053825905
51053831032
51053836892
51053839272
51053847756
51053852334
51053856179
51053863930
51053868630
51053873757
51053880227
51053885903
51053891091
51053897622
51053902565
51053907448
51053910439
51053920265
51053924599
51053928627
51053935341
51053940956
51053946205
51053952492
51053957619
51053963478
51053968239
51053972695
51053979530
51053984657
51053990090
51053996620
51054001686
51054006142
51054010963
51054015968
51054022865
51054028847
51054033974
51054038979
51054044106
51054050148
51054053993
51054060463
51054065590
51054070778
51054076820
51054082619
51054088661
51054094032
51054100258
51054105263
51054110939
51054114845
51054122169
51054128212
51054134071
51054139076
51054145118
51054150367
51054155861
51054160804
51054166298
51054173317
51054177284
51054183937
51054189857
51054196449
51054201454
51054206337
51054211647
51054217628
51054222694
51054227577
51054233436
51054239173
51054244605
51054250038
51054255165
51054261451
51054266212
51054273170
51054278663
51054282630
51054289588
51054294898
51054300880
51054307288
51054312293
51054317237
51054323219
51054327125
51054334022
51054340614
51054346046
51054351722
51054356788
51054361793
51054366614
51054371192
51054377296
51054382789
51054388831
51054394385
51054399329
51054405066
51054408057
51054416053
51054421790
51054427039
51054432593
51054437903
51054442420
51054448951
51054453833
51054459327
51054465125
51054470557
51054474646
51054478614
51054485755
51054491065
51054496131
51054500708
51054505042
51054511389
51054515052
51054522925
51054528174
51054533118
51054538916
51054542822
51054547827
51054551856
51054559363
51054563880
51054568396
51054574011
51054579077
51054584387
51054589453
51054595313
51054600684
51054605628
51054611304
51054616064
51054621558
51054625708
51054630347
51054636389
51054642126
51054646582
51054651953
51054657629
51054663184
51054668188
51054673743
51054678747
51054683264
51054688086
51054693579
51054698706
51054704687
51054709875
51054715674
51054721045
51054726416
51054733679
51054739721
51054743750
51054750464
51054754492
51054761816
51054768530
51054773474
51054780310
51054785437
51054789343
51054796972
51054801916
51054808081
51054814611
51054819860
51054825048
51054831335
51054835180
51054842626
51054847753
51054853552
51054859167
51054864050
51054871130
51054876257
51054881506
51054886633
51054892431
51054896398
51054904272
51054909826
51054915807
51054922216
51054927892
51054933263
51054938329
51054944860
51054950292
51054956029
51054959936
51054966894
51054971593
51054976598
51054982702
51054989660
51054993383
51054999364
51055003393
51055011144
51055016515
51055021642
51055027257
51055031591
51055038610
51055044347
51055050145
51055055700
51055062169
51055067235
51055073400
51055078405
51055088170
51055095616
51055100560
51055107396
51055113500
51055117528
51055123021
51055129247
51055134191
51055140660
51055145299
51055152074
51055157445
51055162267
51055167882
51055172215
51055179357
51055185277
51055190587
51055194737
51055198521
51055205785
51055211522
51055215489
51055222264
51055226292
51055230931
51055237706
51055241795
51055248143
51055252965
51055257420
51055261998
51055268712
51055273656
51055278111
51055284825
51055289952
51055294469
51055299107
51055304234
51055311070
51055314915
51055321995
51055325841
51055331700
51055336461
51055341465
51055347752
51055353428
51055358738
51055363621
51055368504
51055374119
51055379063
51055384312
51055390477
51055395176
51055401280
51055405003
51055410740
51055416233
51055421971
51055427891
51055434849
51055441075
51055446324
51055451878
51055457066
51055463047
51055468723
51055475071
51055478855
51055484043
51055489292
51055497227
51055502720
51055507725
51055512241
51055518101
51055523960
51055528477
51055534153
51055538853
51055545689
51055551304
51055557224
51055563450
51055568149
51055573276
51055579685
51055583652
51055589390
51055594456
51055600010
51055605747
51055610508
51055617527
51055622349
51055627598
51055633152
51055638035
51055644077
51055649570
51055655246
51055661533
51055668064
51055673801
51055678928
51055685215
51055689914
51055696323
51055700656
51055705905
51055711277
51055716831
51055722568
51055738925
51055744846
51055749607
51055753574
51055761203
51055765598
51055770603
51055776218
51055782077
51055787082
51055793674
51055797702
51055804782
51055810703
51055816623
51055822238
51055827060
51055832004
51055837863
51055843845
51055849338
51055855380
51055859714
51055866061
51055871738
51055876254
51055881808
51055887668
51055892612
51055898715
51055903964
51055908725
51055913424
51055921359
51055925692
51055931430
51055936435
51055942111
51055947604
51055952487
51055957675
51055964022
51055969149
51055973117
51055980197
51055986911
51055990756
51055998019
51056003939
51056009371
51056014315
51056018588
51056024996
51056030368
51056035617
51056042025
51056045443
51056053073
51056059115
51056063571
51056069735
51056075167
51056080660
51056087313
51056091280
51056096468
51056102572
51056106539
51056113070
51056117953
51056123751
51056131258
51056137179
51056142306
51056146761
51056152987
51056157625
51056163241
51056168185
51056174227
51056178622
51056183748
51056188936
51056193636
51056200045
51056204500
51056211092
51056215914
51056220369
51056224825
51056230074
51056236178
51056241610
51056247347
51056252657
51056256990
51056262362
51056267305
51056272493
51056277681
51056283358
51056288240
51056293795
51056298250
51056304537
51056309358
51056315157
51056320101
51056326448
51056330843
51056335298
51056340181
51056345125
51056350069
51056356294
51056361788
51056366976
51056371980
51056377107
51056382356
51056388399
51056394136
51056398653
51056403780
51056408601
51056413545
51056419649
51056424471
51056430208
51056435030
51056439668
51056445100
51056450960
51056455110
51056460298
51056465974
51056470857
51056475130
51056481050
51056485017
51056491609
51056496187
51056503023
51056507600
51056513093
51056517793
51056523164
51056528779
51056533784
51056539766
51056546785
51056553865
51056558625
51056565156
51056571016
51056576875
51056583650
51056589204
51056593171
51056600312
51056605683
51056610505
51056617890
51056623628
51056628938
51056634065
51056638886
51056645722
51056651154
51056655183
51056661103
51056665742
51056671662
51056676972
51056682099
51056688325
51056693696
51056698579
51056704743
51056710175
51056715363
51056720856
51056725861
51056731904
51056736665
51056743012
51056747956
51056752961
51056759003
51056764863
51056770783
51056775422
51056781220
51056787079
51056792023
51056797944
51056802826
51056810456
51056815583
51056821015
51056826203
51056830353
51056837250
51056842865
51056847931
51056853302
51056858796
51056864411
51056869660
51056874665
51056879670
51056884125
51056891510
51056896027
51056900544
51056906220
51056911957
51056917694
51056924225
51056929108
51056934418
51056940033
51056944367
51056950836
51056957489
51056962372
51056967865
51056972015
51056978424
51056983063
51056988800
51056995636
51057000580
51057007050
51057011261
51057017059
51057022675
51057029144
51057034698
51057039947
51057044586
51057050140
51057056671
51057062347
51057067413
51057073089
51057078155
51057084137
51057089325
51057094574
51057101043
51057105560
51057112213
51057117462
51057122833
51057128509
51057135040
51057140838
51057146637
51057149933
51057157196
51057162750
51057167327
51057173858
51057178619
51057184234
51057188385
51057192779
51057198089
51057203582
51057209686
51057214935
51057219634
51057225372
51057229278
51057236419
51057241363
51057246368
51057253997
51057260284
51057265350
51057270049
51057274627
51057281402
51057287566
51057291900
51057298858
51057304351
51057309478
51057315398
51057320586
51057327544
51057332671
51057337493
51057343413
51057348540
51057354461
51057360503
51057366118
51057371306
51057378020
51057383391
51057388579
51057394378
51057400481
51057404632
51057411529
51057416594
51057422210
51057428252
51057433501
51057438628
51057443938
51057450164
51057455291
51057459929
51057465789
51057471526
51057476653
51057481414
51057488066
51057492888
51057498503
51057503081
51057509001
51057514067
51057518889
51057524871
51057529875
51057535979
51057541472
51057546294
51057552214
51057556975
51057562468
51057566618
51057573210
51057578276
51057582732
51057588469
51057594206
51057599455
51057604948
51057610381
51057614897
51057620146
51057627470
51057634062
51057637968
51057643462
51057647917
51057654387
51057659514
51057664946
51057671477
51057676115
51057681242
51057687041
51057690947
51057697539
51057702604
51057708647
51057714872
51057720732
51057726103
51057732023
51057738188
51057743254
51057748930
51057753141
51057760221
51057765959
51057772551
51057777616
51057784330
51057789701
51057796293
51057802336
51057806791
51057813139
51057819609
51057824125
51057830168
51057836210
51057841276
51057846891
51057852812
51057857511
51057863126
51057868131
51057874235
51057879667
51057884672
51057891081
51057896879
51057901701
51057907377
51057913236
51057919035
51057923917
51057928373
51057933744
51057939542
51057943815
51057949674
51057956144
51057961027
51057966764
51057972440
51057977567
51057983732
51057988737
51057993619
51057999540
51058005582
51058010343
51058013700
51058021879
51058027005
51058033414
51058039823
51058045133
51058049283
51058056119
51058062162
51058067472
51058073331
51058078336
51058084256
51058088712
51058094632
51058100125
51058105985
51058111295
51058115506
51058121549
51058126431
51058132779
51058138394
51058143521
51058149930
51058154874
51058160123
51058166165
51058171231
51058176480
51058181973
51058187405
51058192227
51058197293
51058203397
51058207974
51058214627
51058219815
51058224759
51058230618
51058235684
51058241971
51058247037
51058251675
51058257413
51058261380
51058267728
51058273221
51058278958
51058283963
51058289395
51058294217
51058300137
51058306119
51058311306
51058317654
51058321560
51058327542
51058332547
51058338101
51058343411
51058349575
51058354397
51058358975
51058364163
51058369534
51058376004
51058381375
51058386502
51058391568
51058396694
51058400906
51058407559
51058413784
51058417935
51058424710
51058428799
51058435147
51058441067
51058446194
51058451870
51058457302
51058461636
51058467129
51058473782
51058480312
51058486233
51058491665
51058496914
51058502102
51058507229
51058515591
51058521084
51058526455
51058531887
51058535427
51058542873
51058547756
51058551723
51058558925
51058564480
51058568630
51058574306
51058577846
51058586147
51058591762
51058596462
51058602321
51058607631
51058613674
51058619167
51058624416
51058629055
51058634487
51058639003
51058644985
51058649685
51058655300
51058661342
51058665981
51058672206
51058677639
51058683986
51058689052
51058694911
51058699733
51058705226
51058711025
51058716396
51058721645
51058727260
51058732570
51058738246
51058743251
51058749477
51058754787
51058760097
51058766933
51058771755
51058777248
51058782314
51058787196
51058793361
51058798305
51058803127
51058808681
51058813808
51058818568
51058824733
51058830043
51058836085
51058841029
51058845851
51058851161
51058857326
51058863307
51058868495
51058873927
51058879054
51058885951
51058890223
51058896449
51058902186
51058907557
51058912562
51058919154
51058923610
51058930507
51058935450
51058941188
51058946193
51058952296
51058957362
51058963404
51058967311
51058974574
51058981715
51058985682
51058993067
51058999171
51059002955
51059009547
51059016017
51059020533
51059026637
51059031214
51059038050
51059043971
51059049220
51059054286
51059060572
51059066187
51059071436
51059076380
51059083765
51059088465
51059093775
51059099146
51059103724
51059110133
51059115015
51059120509
51059126124
51059131556
51059136439
51059140833
51059145106
51059150904
51059156153
51059161890
51059167444
51059172571
51059177332
51059183253
51059188685
51059192652
51059199183
51059204920
51059209498
51059213953
51059219812
51059225123
51059231592
51059236292
51059241602
51059246119
51059250879
51059255213
51059261255
51059267115
51059273035
51059277979
51059284937
51059289942
51059295923
51059301355
51059306604
51059311914
51059317713
51059322656
51059328882
51059333765
51059340235
51059346887
51059351587
51059356958
51059361902
51059366663
51059372400
51059377588
51059382105
51059387415
51059392908
51059397791
51059401636
51059408533
51059414209
51059419153
51059424219
51059430810
51059436182
51059441675
51059448694
51059453271
51059459497
51059466150
51059472253
51059477685
51059484033
51059489038
51059496179
51059501123
51059507470
51059512964
51059518274
51059523828
51059529016
51059534509
51059540490
51059545007
51059552636
51059558313
51059563256
51059568200
51059573999
51059579248
51059585107
51059589318
51059595666
51059601586
51059606591
51059612206
51059617211
51059624597
51059629662
51059636376
51059641076
51059646874
51059651940
51059657372
51059663232
51059667809
51059673364
51059679345
51059685510
51059690575
51059697106
51059702233
51059706994
51059714074
51059719201
51059724877
51059730431
51059736108
51059740319
51059746667
51059751794
51059756371
51059762475
51059768090
51059772729
51059778039
51059783227
51059789757
51059793419
51059801415
51059805871
51059811913
51059816857
51059821557
51059826622
51059833336
51059839135
51059844811
51059850731
51059856346
51059861290
51059867943
51059874718
51059880028
51059884850
51059889733
51059895714
51059902001
51059907189
51059912438
51059916710
51059923363
51059928185
51059933617
51059938439
51059945152
51059950035
51059955528
51059960716
51059965477
51059970665
51059976097
51059981590
51059987389
51059993492
51059999107
51060004234
51060009972
51060015404
51060020164
51060026634
51060030723
51060037254
51060042137
51060047996
51060053673
51060060203
51060064842
51060070518
51060075279
51060082847
51060086815
51060093284
51060097801
51060101890
51060108421
51060114647
51060121177
51060126609
51060131858
51060136680
51060141197
51060145469
51060151634
51060156761
51060162315
51060168663
51060173240
51060178062
51060183128
51060190025
51060195518
51060200035
51060206077
51060212730
51060219566
51060224876
51060229392
51060235008
51060242332
51060247459
51060254783
51060259177
51060266074
51060270713
51060277122
51060283286
51060288474
51060295493
51060301292
51060306419
51060313010
51060318442
51060323997
51060328757
51060335898
51060340781
51060346580
51060352805
51060357383
51060362388
51060368125
51060373984
51060377952
51060384604
51060389609
51060394553
51060400657
51060404746
51060410666
51060417075
51060422141
51060427390
51060432212
51060437522
51060443198
51060447470
51060454795
51060458823
51060465354
51060471091
51060475363
51060482016
51060486838
51060492209
51060498923
51060504538
51060510031
51060515647
51060521445
51060526999
51060531455
51060537619
51060542990
51060549399
51060553671
51060559348
51060565085
51060570639
51060576010
51060581381
51060586813
51060592368
51060598227
51060602377
51060607748
51060615256
51060620322
51060624228
51060631857
51060637350
51060642294
51060647848
51060651816
51060659140
51060664267
51060669211
51060674338
51060678305
51060684958
51060689963
51060694906
51060700827
51060705893
51060710470
51060715902
51060721029
51060727560
51060731771
51060736288
51060741903
51060747519
51060752645
51060757101
51060763632
51060768820
51060772238
51060778219
51060783590
51060788961
51060794088
51060799093
51060805075
51060811361
51060816976
51060823568
51060828878
51060833883
51060840780
51060847372
51060852255
51060858236
51060862020
51060869161
51060875082
51060881429
51060886617
51060891988
51060897115
51060903707
51060908590
51060915731
51060921224
51060927267
51060933431
51060938131
51060943380
51060949972
51060954610
51060959676
51060965047
51060970968
51060975484
51060980489
51060985921
51060991292
51060996541
51061001607
51061007711
51061011983
51061018697
51061023946
51061029073
51061035482
51061040242
51061045736
51061052022
51061056050
51061061910
51061068502
51061073690
51061079000
51061084371
51061089192
51061095845
51061100545
51061107259
51061113301
51061117696
51061123433
51061129598
51061134358
51061140401
51061145528
51061151021
51061156453
51061161214
51061167561
51061172749
51061178304
51061184041
51061189046
51061195821
51061199849
51061206502
51061211507
51061217854
51061223286
51061228230
51061234273
51061238545
51061243977
51061249776
51061255086
51061260090
51061266133
51061270527
51061275837
51061280232
51061287251
51061292683
51061298542
51061304890
51061309773
51061315022
51061320881
51061325764
51061330342
51061337605
51061341572
51061348530
51061353962
51061359516
51061365437
51061371113
51061375813
51061382099
51061386555
51061395100
51061401203
51061406452
51061412800
51061417805
51061422993
51061428791
51061434345
51061439350
51061445454
51061449909
51061456440
51061461140
51061467182
51061472126
51061478352
51061483295
51061487812
51061493305
51061499714
51061505634
51061511433
51061516132
51061522236
51061527973
51061533161
51061539875
51061544269
51061551716
51061557880
51061562702
51061568744
51061575336
51061580219
51061585468
51061590656
51061596393
51061602680
51061606891
51061612629
51061619526
51061625385
51061631000
51061634967
51061641620
51061649067
51061654926
51061660053
51061665485
51061670063
51061675922
51061681476
51061687030
51061693073
51061699420
51061704059
51061710040
51061715778
51061721271
51061727435
51061732379
51061737994
51061742694
51061749957
51061756000
51061760028
51061767169
51061772174
51061776202
51061782794
51061789081
51061794757
51061801532
51061807513
51061813251
51061818683
51061823810
51061830340
51061835406
51061840594
51061846026
51061851031
51061855853
51061861957
51061868487
51061873187
51061878497
51061882953
51061889056
51061893939
51061899188
51061904376
51061909869
51061914691
51061920367
51061926043
51061930804
51061936847
51061941546
51061946368
51061951861
51061957659
51061963519
51061968280
51061974444
51061980303
51061985003
51061990985
51061997088
51062001910
51062009234
51062015643
51062020464
51062026080
51062031878
51062037249
51062041888
51062048357
51062053057
51062058489
51062064471
51062071246
51062076678
51062082293
51062087420
51062092669
51062098955
51062103838
51062109270
51062115679
51062120379
51062125323
51062131426
51062136553
51062144793
51062150103
51062154925
51062162066
51062167010
51062172136
51062178057
51062184038
51062189531
51062195513
51062200579
51062207293
51062212725
51062217974
51062223040
51062228716
51062234941
51062240007
51062245989
51062251360
51062256975
51062262590
51062267961
51062272783
51062278581
51062285662
51062292131
51062296526
51062302324
51062308550
51062315019
51062320329
51062326006
51062331316
51062337663
51062342363
51062347551
51062352678
51062359148
51062363969
51062369280
51062374467
51062379228
51062385393
51062390764
51062396562
51062401689
51062407487
51062412858
51062418230
51062423173
51062429094
51062434770
51062438493
51062445512
51062449296
51062456376
51062460710
51062466020
51062472551
51062478349
51062483720
51062489274
51062493669
51062499650
51062505998
51062511308
51062517045
51062521257
51062527543
51062532853
51062538407
51062544084
51062550187
51062555497
51062559342
51062564836
51062569841
51062576249
51062581498
51062587052
51062592301
51062596147
51062601335
51062605851
51062612626
51062617570
51062622086
51062627213
51062633012
51062638566
51062643144
51062650224
51062655839
51062660233
51062663651
51062667802
51062671647
51062676102
51062678849
51062683366
51062687089
51062691117
51062695084
51062698869
51062703873
51062708085
51062712296
51062716141
51062719620
51062722977
51062727738
51062731583
51062735001
51062739823
51062744034
51062748795
51062753434
51062758133
51062762955
51062768143
51062773453
51062779191
51062783890
51062787064
51062791947
51062796402
51062801041
51062805314
51062808732
51062812760
51062817765
51062820939
51062826126
51062829911
51062833756
51062838944
51062842911
51062846939
51062850907
51062854996
51062859452
51062863114
51062867508
51062872391
51062875443
51062881790
51062886063
51062889969
51062895157
51062900345
51062904129
51062909561
51062913162
51062916214
51062921219
51062925736
51062929520
51062934219
51062939468
51062945023
51062948807
51062953079
51062957474
51062959793
51062965408
51062971329
51062975113
51062978836
51062984207
51062988846
51062992813
51062996902
51063000442
51063005203
51063009415
51063013870
51063019241
51063022659
51063027176
51063031631
51063036270
51063040603
51063044021
51063049026
51063052627
51063057754
51063063125
51063068313
51063072586
51063076919
51063080581
51063083999
51063087845
51063093399
51063097976
51063103103
51063107254
51063111465
51063115127
51063119644
51063122696
51063126968
51063131363
51063134597
51063138076
51063141433
51063145889
51063149490
51063152725
51063154983
51063157974
51063162735
51063166030
51063169265
51063172805
51063175735
51063178482
51063181350
51063184646
51063188003
51063191238
51063194839
51063198501
51063202041
51063205520
51063207961
51063211379
51063214736
51063218582
51063221999
51063224441
51063227493
51063231643
51063235061
51063238418
51063241409
51063244399
51063248184
51063251174
51063253860
51063256912
51063259841
51063263320
51063266799
51063270156
51063273513
51063276687
51063280044
51063282790
51063286025
51063288222
51063291396
51063294387
51063297134
51063299697
51063302566
51063305556
51063308547
51063310744
51063313064
51063315627
51063318069
51063320083
51063322707
51063324782
51063326675
51063328506
51063330215
51063332717
51063334121
51063336318
51063338454
51063340285
51063342422
51063344436
51063346389
51063348647
51063350478
51063352309
51063354262
51063356704
51063358474
51063360732
51063362746
51063364577
51063367080
51063368972
51063370864
51063373122
51063374953
51063376906
51063378920
51063380752
51063382522
51063384292
51063386184
51063388076
51063389846
51063391555
51063393325
51063395156
51063397048
51063398940
51063400710
51063402724
51063404616
51063406569
51063408767
51063410598
51063412734
51063414443
51063416274
51063418837
51063420729
51063423049
51063425002
51063426772
51063428908
51063430861
51063432753
51063434890
51063436660
51063438613
51063440749
51063443190
51063445449
51063447646
51063449660
51063451613
51063453566
51063455580
51063457289
51063459181
51063461013
51063462844
51063464858
51063466567
51063468276
51063470290
51063472121
51063473891
51063476088
51063477858
51063480055
51063481887
51063483779
51063486037
51063487990
51063489943
51063491652
51063493849
51063495925
51063497878
51063499892
51063501662
51063504103
51063506117
51063507826
51063509841
51063511611
51063513442
51063515395
51063517287
51063519667
51063521803
51063523818
51063525832
51063528029
51063529982
51063531874
51063533644
51063535414
51063537611
51063539381
51063541335
51063543288
51063545119
51063546706
51063548598
51063550551
51063552687
51063554762
51063556349
51063558241
51063560744
51063562575
51063564772
51063566664
51063568434
51063570631
51063572462
51063574355
51063576308
51063578200
51063579970
51063581984
51063584059
51063585707
51063587782
51063589735
51063591505
51063593520
51063595412
51063597365
51063599135
51063600905
51063603041
51063604872
51063606642
51063608412
51063610548
51063612746
51063614577
51063616469
51063618117
51063620009
51063622145
51063624159
51063626112
51063627882
51063629591
51063631788
51063633681
51063636000
51063637770
51063639601
51063641737
51063643507
51063645643
51063647474
51063649428
51063651076
51063652907
51063654860
51063656874
51063658461
51063660475
51063662489
51063665175
51063671034
51063673842
51063675734
51063677565
51063679579
51063681471
51063683546
51063685377
51063687208
51063689100
51063691664
51063693434
51063695326
51063697584
51063699232
51063701429
51063703321
51063705580
51063707655
51063709669
51063711744
51063713392
51063715834
51063717604
51063719496
51063721266
51063723036
51063725294
51063727308
51063729139
51063730909
51063732618
51063734510
51063736280
51063738172
51063740004
51063741835
51063743483
51063745558
51063747450
51063749281
51063751173
51063753004
51063754713
51063757093
51063758863
51063760755
51063762831
51063764601
51063767103
51063769178
51063770948
51063773451
51063775282
51063777479
51063779188
51063781324
51063783460
51063785414
51063787184
51063789076
51063791517
51063793287
51063795179
51063797010
51063798841
51063800916
51063802686
51063804518
51063806471
51063808363
51063810377
51063812208
51063814283
51063815931
51063817640
51063819532
51063821424
51063823621
51063825453
51063827284
51063829298
51063831190
51063833448
51063835340
51063837232
51063839185
51063840955
51063843092
51063845228
51063847364
51063849195
51063851026
51063852979
51063854932
51063857435
51063859510
51063861158
51063863111
51063864881
51063867078
51063868787
51063870557
51063872694
51063874525
51063876356
51063878126
51063880018
51063881971
51063884290
51063885999
51063887891
51063889783
51063891553
51063893446
51063895277
51063897108
51063899183
51063901441
51063903089
51063904859
51063906812
51063909070
51063910902
51063913038
51063914991
51063916944
51063918897
51063920850
51063923170
51063925001
51063926649
51063928846
51063930677
51063932752
51063934522
51063936536
51063938428
51063940259
51063942457
51063944288
51063946058
51063947950
51063949537
51063951368
51063953321
51063954847
51063956800
51063958448
51063960706
51063962476
51063964490
51063966504
51063968335
51063969861
51063971937
51063974134
51063975965
51063977796
51063979627
51063981397
51063983655
51063985486
51063987561
51063989454
51063991346
51063993543
51063995313
51063997266
51063999402
51064001355
51064003309
51064005079
51064007215
51064009107
51064010938
51064012769
51064014356
51064016370
51064018384
51064020032
51064021924
51064023877
51064025953
51064027784
51064029981
51064031690
51064034009
51064035840
51064037610
51064039746
51064041883
51064044202
51064046094
51064047925
51064050061
51064051953
51064053968
51064055921
51064058301
51064060254
51064062146
51064063916
51064065625
51064067761
51064069654
51064071302
51064073194
51064075025
51064076856
51064078687
51064080335
51064082532
51064084363
51064086194
51064088025
51064090222
51064091992
51064093945
51064095654
51064097547
51064099988
51064101636
51064103345
51064105725
51064107739
51064109693
51064111646
51064113721
51064115491
51064117627
51064119519
51064121411
51064123731
51064125684
51064127393
51064129285
51064131299
51064133618
51064135449
51064137219
51064139050
51064140942
51064142773
51064144544
51064146497
51064148145
51064150342
51064152112
51064153882
51064155957
51064157849
51064159558
51064161511
51064163281
51064165356
51064167371
51064169080
51064171033
51064173108
51064175244
51064177075
51064179211
51064180981
51064182812
51064184766
51064186719
51064188733
51064190625
51064192395
51064194470
51064196484
51064198621
51064200391
51064202466
51064204358
51064206250
51064208447
51064210339
51064212048
51064213818
51064215771
51064217663
51064219556
51064221265
51064223279
51064225232
51064227185
51064229016
51064230908
51064233044
51064234936
51064236706
51064238537
51064240735
51064242566
51064244092
51064246106
51064248059
51064250439
51064252636
51064254773
51064256604
51064258862
51064260510
51064262707
51064264966
51064266797
51064268994
51064270825
51064272778
51064275158
51064276989
51064279004
51064280835
51064282910
51064285107
51064286755
51064288647
51064290478
51064292675
51064294445
51064296277
51064298291
51064300305
51064302136
51064304333
51064306164
51064308056
51064309948
51064311596
51064313549
51064315442
51064317456
51064319287
51064320935
51064322583
51064325024
51064326550
51064328503
51064330456
51064332531
51064334973
51064336865
51064338818
51064340893
51064342602
51064344677
51064346630
51064348828
51064351086
51064352978
51064354748
51064356701
51064359082
51064360974
51064362988
51064364819
51064366711
51064368969
51064370739
51064372448
51064374279
51064376171
51064377880
51064379894
51064381848
51064383373
51064385449
51064387280
51064389355
51064391308
51064393139
51064394726
51064396801
51064398571
51064400646
51064402722
51064404675
51064406506
51064408459
51064410534
51064412304
51064414623
51064416577
51064418285
51064420117
51064421826
51064424145
51064426098
51064427807
51064429638
51064431408
51064433727
51064435497
51064437206
51064438854
51064440746
51064442761
51064444653
51064446484
51064448376
51064450085
51064451855
51064453808
51064455761
51064457653
51064459789
51064461620
51064463329
51064465221
51064467480
51064469311
51064471264
51064473278
51064475292
51064477184
51064479137
51064481091
51064482983
51064484936
51064486645
51064488781
51064490612
51064492382
51064494640
51064496532
51064498791
51064500683
51064502514
51064504223
51064506176
51064508190
51064510326
51064512096
51064513927
51064515941
51064517895
51064519726
51064522045
51064523815
51064525768
51064527599
51064529247
51064531566
51064533459
51064535290
51064537121
51064538952
51064541149
51064543163
51064545055
51064546825
51064548717
51064550670
51064552562
51064554516
51064556225
51064558056
51064559826
51064561596
51064563976
51064565746
51064567455
51064569408
51064571239
51064573314
51064575329
51064577221
51064579296
51064581188
51064583263
51064585155
51064587841
51064589611
51064591320
51064593334
51064595226
51064597606
51064599437
51064601207
51064603161
51064605114
51064607128
51064608959
51064610912
51064612804
51064614757
51064616832
51064618663
51064620678
51064622631
51064624645
51064626293
51064628307
51064630199
51064632030
51064633922
51064635753
51064637645
51064639659
51064641490
51064643383
51064645397
51064647411
51064649608
51064651500
51064653392
51064655223
51064657115
51064659313
51064661205
51064663463
51064665233
51064667003
51064669139
51064671092
51064673351
51064675304
51064677318
51064679088
51064680919
51064683116
51064685069
51064687145
51064688976
51064690868
51064692882
51064694774
51064696544
51064698314
51064699962
51064701915
51064704051
51064705882
51064707713
51064709361
51064711376
51064713329
51064715160
51064717174
51064718944
51064720836
51064722728
51064724803
51064726756
51064728771
51064730480
51064732494
51064734691
51064736217
51064738414
51064740123
51064741832
51064744090
51064746043
51064748180
51064750133
51064752025
51064754344
51064756358
51064758373
51064760448
51064762462
51064764354
51064766246
51064768382
51064770030
51064772105
51064773997
51064775767
51064778148
51064779918
51064781749
51064783397
51064785289
51064787181
51064789012
51064790904
51064792552
51064794566
51064796397
51064798167
51064800548
51064802379
51064804332
51064806102
51064808055
51064810191
51064812205
51064814403
51064816051
51064818309
51064820567
51064822520
51064824534
51064826427
51064828746
51064830516
51064832286
51064834422
51064836497
51064838023
51064839915
51064842113
51064844005
51064845958
51064847667
51064849437
51064851207
51064853343
51064855296
51064857066
51064858958
51064861033
51064862925
51064864695
51064866588
51064868541
51064870372
51064872325
51064874278
51064876353
51064878245
51064880076
51064881907
51064884349
51064886058
51064887950
51064890086
51064891612
51064894114
51064895945
51064897776
51064899791
51064901744
51064903758
51064905528
51064907420
51064909739
51064911448
51064913218
51064914988
51064917308
51064919200
51064920970
51064922801
51064924510
51064926890
51064928660
51064930491
51064932200
51064934031
51064935862
51064937571
51064939585
51064941600
51064943492
51064945262
51064947154
51064949046
51064950999
51064952952
51064955088
51064956797
51064959117
51064960948
51064962901
51064965037
51064966685
51064969065
51064971018
51064972788
51064974925
51064976756
51064978709
51064980723
51064982554
51064984751
51064986582
51064988413
51064990183
51064992625
51064994517
51064996592
51064998179
51064999949
51065002024
51065003977
51065005564
51065007456
51065009348
51065011424
51065013316
51065015269
51065017283
51065019236
51065021067
51065022837
51065024912
51065026682
51065028513
51065030344
51065032114
51065034556
51065036509
51065038523
51065040598
51065042429
51065044566
51065046336
51065048106
51065050303
51065052073
51065054148
51065055796
51065058298
51065060069
51065061961
51065063853
51065065745
51065068003
51065069834
51065071604
51065073496
51065075327
51065077341
51065079295
51065081065
51065082651
51065084666
51065086863
51065088572
51065090525
51065092295
51065094248
51065096018
51065097788
51065099924
51065101755
51065103648
51065105479
51065107371
51065109446
51065111094
51065113230
51065114878
51065116831
51065118967
51065120859
51065122996
51065124827
51065126841
51065129099
51065130869
51065133494
51065135508
51065137156
51065139048
51065140940
51065143259
51065145151
51065147165
51065149302
51065151255
51065153269
51065155100
51065156870
51065158701
51065161020
51065162790
51065164621
51065166269
51065168284
51065170298
51065172129
51065174204
51065176096
51065177988
51065179575
51065181589
51065183542
51065185251
51065187143
51065189097
51065190928
51065192942
51065194956
51065196848
51065198862
51065200754
51065202585
51065204660
51065206736
51065208933
51065210642
51065212656
51065214365
51065216379
51065218454
51065220224
51065222116
51065224070
51065225962
51065227915
51065229929
51065231882
51065233713
51065235544
51065237375
51065239389
51065241159
51065242990
51065244699
51065246469
51065248178
51065250315
51065252146
51065253916
51065255930
51065257761
51065259958
51065261911
51065263559
51065265634
51065267404
51065269052
51065271067
51065273264
51065275217
51065277475
51065279428
51065281259
51065283579
51065285349
51065287607
51065289438
51065291635
51065294016
51065295969
51065297678
51065299814
51065301889
51065303659
51065305429
51065307138
51065308847
51065310922
51065312692
51065314401
51065316293
51065318247
51065319895
51065322153
51065324106
51065325815
51065327829
51065329538
51065331491
51065333810
51065335764
51065337717
51065339853
51065341684
51065343942
51065345712
51065347849
51065349741
51065351633
51065354013
51065355844
51065358408
51065360239
51065362192
51065364206
51065365976
51065368539
51065370370
51065372079
51065374399
51065376108
51065378122
51065380258
51065381967
51065383737
51065385629
51065387521
51065389230
51065391183
51065393014
51065394968
51065396799
51065398630
51065400949
51065402841
51065404733
51065406747
51065408578
51065410654
51065412546
51065414499
51065416208
51065418039
51065420236
51065422067
51065424142
51065425729
51065427743
51065429696
51065431283
51065433664
51065435495
51065437326
51065439279
51065441354
51065443551
51065445321
51065447458
51065449289
51065450998
51065452951
51065454599
51065456918
51065458871
51065460641
51065462594
51065464364
51065466623
51065468515
51065470285
51065472238
51065473947
51065475900
51065477670
51065479562
51065481576
51065483468
51065485177
51065487130
51065489145
51065490976
51065492685
51065494577
51065496408
51065498239
51065500070
51065501779
51065503549
51065505746
51065507943
51065509774
51065511728
51065513498
51065515329
51065517343
51065519113
51065521249
51065523263
51065525155
51065527169
51065529000
51065531076
51065533090
51065535043
51065536935
51065539010
51065541024
51065542794
51065544747
51065546273
51065548226
51065550180
51065551889
51065553781
51065555551
51065557626
51065559518
51065561349
51065563302
51065565194
51065566720
51065568673
51065570504
51065572335
51065574288
51065576180
51065577828
51065579782
51065581979
51065583749
51065585641
51065587411
51065589242
51065591195
51065593148
51065595223
51065596993
51065598824
51065600900
51065602731
51065604867
51065606820
51065608407
51065610604
51065612496
51065614694
51065616464
51065618478
51065620370
51065622262
51065624093
51065625924
51065627816
51065629708
51065631539
51065633492
51065635018
51065636910
51065638619
51065640633
51065642587
51065644418
51065646493
51065648446
51065650033
51065652047
51065653878
51065656075
51065657845
51065659982
51065661507
51065663461
51065665658
51065667611
51065669747
51065671334
51065673165
51065675179
51065677132
51065679574
51065681466
51065683419
51065685189
51065686959
51065689156
51065691109
51065693124
51065694710
51065696664
51065698556
51065700326
51065702218
51065704354
51065706185
51065707894
51065709786
51065711739
51065713631
51065715462
51065717232
51065718941
51065721078
51065722726
51065724557
51065726388
51065728280
51065730599
51065732308
51065733956
51065735909
51065737740
51065739937
51065741829
51065744027
51065745675
51065747506
51065749520
51065751290
51065753670
51065755562
51065757454
51065759469
51065761239
51065763619
51065765511
51065767281
51065769356
51065771248
51065773079
51065774971
51065776741
51065778450
51065780220
51065781929
51065783944
51065785775
51065788094
51065789803
51065791695
51065793587
51065795540
51065797432
51065799080
51065800789
51065802559
51065805062
51065807015
51065808541
51065810616
51065812447
51065814705
51065816536
51065818245
51065820565
51065822274
51065824288
51065826119
51065827828
51065830513
51065832405
51065834359
51065836129
51065838509
51065840279
51065842049
51065844002
51065845772
51065847786
51065849556
51065851204
51065853524
51065855477
51065857125
51065859200
51065861275
51065862862
51065864876
51065866585
51065868355
51065870308
51065872017
51065874214
51065875923
51065877938
51065880135
51065882088
51065883736
51065886055
51065888008
51065890145
51065892037
51065894234
51065895943
51065898018
51065900032
51065901863
51065904244
51065906075
51065907967
51065909920
51065911751
51065913704
51065915535
51065917427
51065919319
51065921089
51065923103
51065925118
51065926827
51065928597
51065930428
51065932259
51065934090
51065936043
51065937996
51065939766
51065941597
51065943489
51065945259
51065947334
51065949409
51065951546
51065953316
51065955391
51065957466
51065959419
51065961006
51065963020
51065965157
51065966927
51065969063
51065971016
51065972725
51065974495
51065976387
51065978645
51065980415
51065982307
51065984322
51065986030
51065987984
51065989693
51065992012
51065993904
51065995735
51065997810
51065999702
51066001594
51066003425
51066005257
51066007332
51066009346
51066011421
51066012947
51066014961
51066016670
51066018684
51066020637
51066022407
51066024238
51066026253
51066028267
51066030525
51066032356
51066034187
51066036018
51066037910
51066039985
51066041939
51066043831
51066045662
51066047615
51066049751
51066051643
51066053352
51066055183
51066056953
51066058967
51066060798
51066062568
51066064522
51066066414
51066068367
51066070259
51066072395
51066074165
51066075996
51066078132
51066079902
51066082283
51066084236
51066086250
51066088081
51066090095
51066091865
51066093879
51066095955
51066097786
51066100227
51066101814
51066103889
51066106086
51066107978
51066110054
51066111885
51066113899
51066115913
51066117866
51066119453
51066121528
51066123542
51066125618
51066127449
51066129463
51066131355
51066133308
51066135078
51066136848
51066138862
51066140571
51066142524
51066144355
51066146308
51066148384
51066150276
51066151985
51066153755
51066155769
51066157417
51066159309
51066161201
51066163093
51066165046
51066167427
51066169502
51066171577
51066173408
51066175727
51066177436
51066179267
51066181465
51066183235
51066185432
51066187263
51066189338
51066191474
51066193366
51066195564
51066197273
51066199470
51066201240
51066203010
51066205268
51066207038
51066209235
51066210944
51066212898
51066214485
51066216255
51066218086
51066219795
51066221504
51066223762
51066225593
51066227363
51066229133
51066231025
51066233283
51066235175
51066237067
51066238899
51066240974
51066242805
51066244819
51066246833
51066248725
51066251106
51066252998
51066254768
51066256965
51066259040
51066261115
51066262885
51066264716
51066266853
51066268867
51066270759
51066272590
51066274848
51066276435
51066278388
51066280280
51066281867
51066283881
51066285956
51066287727
51066289863
51066291877
51066293525
51066295478
51066297126
51066299323
51066301154
51066302558
51066304633
51066307136
51066308784
51066310615
51066312812
51066314399
51066316413
51066318366
51066320014
51066322211
51066324164
51066325995
51066327826
51066329841
51066332160
51066334052
51066335578
51066337470
51066339972
51066341804
51066343696
51066345771
51066347541
51066349677
51066351386
51066353400
51066355231
51066357184
51066358771
51066360602
51066363044
51066364814
51066366767
51066368354
51066370307
51066372443
51066374396
51066376349
51066378302
51066380195
51066382087
51066383979
51066385993
51066387824
51066389777
51066391608
51066393378
51066395514
51066397040
51066399237
51066401130
51066403022
51066405219
51066406989
51066408637
51066410773
51066412665
51066414740
51066416388
51066418708
51066420417
51066422248
51066424201
51066425971
51066428412
51066430243
51066431891
51066433966
51066435797
51066437751
51066439704
51066441657
51066443366
51066445380
51066447455
51066449103
51066450995
51066452704
51066454535
51066456488
51066458258
51066460333
51066462103
51066463812
51066465827
51066467475
51066469672
51066471503
51066473456
51066475409
51066477912
51066480353
51066482062
51066484320
51066486212
51066488226
51066490363
51066492255
51066494635
51066496405
51066498175
51066500067
51066501837
51066504401
51066506476
51066508124
51066510016
51066511786
51066513922
51066515692
51066517218
51066519232
51066521124
51066523016
51066524725
51066526679
51066528632
51066530463
51066532233
51066534064
51066535834
51066537787
51066539679
51066541571
51066543585
51066545538
51066547491
51066549384
51066551642
51066553412
51066555670
51066557440
51066559515
51066561346
51066563300
51066565436
51066567206
51066569464
51066571173
51066573004
51066575079
51066576971
51066579352
51066581183
51066582892
51066585028
51066586737
51066588995
51066590826
51066592779
51066594549
51066596380
51066598273
51066600226
51066602179
51066603888
51066605780
51066607611
51066609381
51066611334
51066612921
51066614935
51066616644
51066618414
51066620550
51066622381
51066624212
51066625921
51066627814
51066629706
51066631659
51066634344
51066636175
51066637945
51066640265
51066641913
51066644354
51066646124
51066647833
51066649847
51066651617
51066654181
51066656073
51066657782
51066659918
51066661505
51066663519
51066665411
51066667059
51066669378
51066671331
51066673285
51066675360
51066677191
51066679083
51066681097
51066683111
51066684820
51066686773
51066688787
51066690435
51066692389
51066694342
51066696478
51066698370
51066700018
51066701971
51066703802
51066706182
51066707952
51066709906
51066711676
51066713690
51066715826
51066717596
51066720037
51066721929
51066723577
51066725531
51066727362
51066729620
51066731451
51066733160
51066735357
51066737249
51066739202
51066740850
51066742742
51066744512
51066746282
51066747930
51066749822
51066751837
51066753729
51066755438
51066757391
51066759283
51066760870
51066762762
51066764532
51066766241
51066768072
51066770147
51066772039
51066773931
51066775762
51066777654
51066779852
51066781866
51066783514
51066785528
51066787542
51066789800
51066791692
51066793829
51066795782
51066798101
51066799993
51066801763
51066803961
51066805792
51066807867
51066809698
51066811468
51066813726
51066815496
51066817083
51066818975
51066820745
51066822698
51066824773
51066826482
51066828313
51066829900
51066831915
51066833685
51066835821
51066837713
51066839483
51066841375
51066843328
51066845098
51066847051
51066848821
51066850652
51066852544
51066854742
51066856329
51066858282
51066860052
51066862005
51066864019
51066865911
51066867925
51066869817
51066871892
51066873785
51066875616
51066878057
51066879827
51066881780
51066883611
51066885442
51066887578
51066889532
51066891424
51066893133
51066894964
51066896795
51066898626
51066900457
51066902410
51066904363
51066906072
51066907964
51066910222
51066911931
51066913762
51066915594
51066917241
51066919317
51066921209
51066922918
51066924688
51066926885
51066929021
51066930913
51066932866
51066934759
51066936895
51066938787
51066940679
51066942815
51066944707
51066946966
51066948736
51066950628
51066952764
51066954595
51066956548
51066958501
51066960454
51066962957
51066965215
51066966680
51066968755
51066970952
51066972722
51066974675
51066976384
51066978215
51066980108
51066982122
51066983953
51066986089
51066987920
51066989751
51066991643
51066993535
51066995305
51066997258
51066999089
51067000615
51067002996
51067004827
51067006719
51067008794
51067010747
51067013066
51067015081
51067016851
51067019414
51067021367
51067023564
51067025457
51067027776
51067029241
51067031316
51067033269
51067035100
51067037114
51067038884
51067040898
51067042729
51067044622
51067046636
51067048528
51067050420
51067052068
51067054143
51067055913
51067057622
51067059697
51067061528
51067063237
51067065068
51067066960
51067068852
51067070745
51067072576
51067074162
51067076238
51067078435
51067080144
51067082036
51067083806
51067085637
51067088017
51067089787
51067091680
51067093694
51067095281
51067097600
51067099858
51067101872
51067103948
51067105901
51067107671
51067109624
51067111821
51067113774
51067115666
51067117436
51067119511
51067121465
51067123296
51067124944
51067126836
51067128728
51067130681
51067132634
51067134709
51067136479
51067138432
51067140080
51067142155
51067144292
51067146184
51067147954
51067149724
51067151494
51067153569
