51257342169
51257348089
51257353644
51257360235
51257366034
51257370733
51257378119
51257384344
51257391241
51257397772
51257402838
51257410833
51257417791
51257425055
51257430304
51257439215
51257444769
51257452764
51257459539
51257468145
51257473394
51257481329
51257487799
51257494024
51257503729
51257509588
51257517523
51257523748
51257528448
51257536382
51257545049
51257551458
51257558294
51257565496
51257572271
51257577459
51257586492
51257594549
51257599554
51257606756
51257611883
51257620000
51257626775
51257633001
51257639959
51257646673
51257652410
51257657781
51257665594
51257669378
51257681035
51257688970
51257695379
51257703740
51257710088
51257718023
51257725225
51257732000
51257738836
51257745549
51257752202
51257758916
51257766423
51257771367
51257781743
51257787053
51257796880
51257802739
51257812627
51257817510
51257826421
51257836430
51257842595
51257849248
51257856267
51257864018
51257869511
51257876714
51257882329
51257892644
51257899358
51257905949
51257909734
51257918645
51257925053
51257931462
51257938969
51257946110
51257953190
51257959721
51257967656
51257972905
51257981267
51257988041
51257994816
51258002751
51258007817
51258013127
51258022282
51258026066
51258035466
51258039311
51258049687
51258057072
51258063725
51258069401
51258075871
51258083988
51258088810
51258097172
51258104923
51258112370
51258117924
51258124577
51258131718
51258137943
51258145023
51258153446
51258157597
51258166813
51258173893
51258180424
51258187016
51258193485
51258200687
51258208378
51258215153
51258221928
51258229923
51258237186
51258242557
51258249759
51258258121
51258265995
51258275333
51258280643
51258288700
51258296634
51258303409
51258311222
51258320377
51258326725
51258335147
51258341434
51258350284
51258356571
51258364383
51258370914
51258381351
51258386356
51258396488
51258404117
51258411014
51258417423
51258426822
51258433231
51258444095
51258453067
51258461002
51258465579
51258475894
51258480350
51258489993
51258496707
51258507632
51258512515
51258522403
51258530337
51258536136
51258542789
51258551028
51258557559
51258568606
51258575747
51258585452
51258590030
51258600345
51258606936
51258615237
51258622012
51258632754
51258641299
51258647280
51258653750
51258662539
51258669192
51258677554
51258683962
51258693728
51258700869
51258709414
51258716067
51258724490
51258733767
51258740359
51258749453
51258759585
51258767031
51258775027
51258783877
51258790774
51258799807
51258806399
51258814699
51258823183
51258832094
51258841860
51258848391
51258857424
51258865725
51258874148
51258880251
51258889956
51258898989
51258906435
51258915407
51258922792
51258931032
51258939089
51258947512
51258953798
51258962343
51258971743
51258980043
51258989137
51258997682
51259005434
51259011781
51259021364
51259030214
51259038576
51259046755
51259052614
51259061952
51259066835
51259078127
51259082765
51259094423
51259102968
51259111146
51259116212
51259126283
51259132936
51259140809
51259147584
51259158510
51259165956
51259174012
51259181032
51259189637
51259196718
51259205507
51259211976
51259221498
51259231080
51259240297
51259247621
51259257081
51259264894
51259276612
51259285096
51259292970
51259300843
51259309876
51259317323
51259327027
51259334046
51259342408
51259348512
51259358338
51259366334
51259373658
51259378968
51259387391
51259394471
51259401612
51259408570
51259417237
51259424012
51259430970
51259438111
51259445374
51259452759
51259459717
51259467713
51259477906
51259486084
51259492920
51259500306
51259508423
51259516663
51259523987
51259532349
51259541993
51259549988
51259557251
51259564148
51259571472
51259579468
51259586487
51259595642
51259603211
51259611145
51259617432
51259624451
51259632080
51259638977
51259646790
51259654785
51259662903
51259671082
51259681335
51259687988
51259697876
51259704468
51259713745
51259720764
51259730591
51259738769
51259746460
51259750976
51259760437
51259769043
51259776916
51259783386
51259789612
51259796814
51259801574
51259805175
51259812927
51259819702
51259825317
51259830627
51259836303
51259841613
51259847351
51259853759
51259858093
51259866455
51259870971
51259877441
51259882018
51259889038
51259894103
51259899475
51259903991
51259911620
51259915405
51259921874
51259927795
51259933044
51259936645
51259942992
51259949645
51259955260
51259962157
51259967651
51259972045
51259977233
51259983337
51259987304
51259994384
51260000365
51260005859
51260010375
51260016479
51260020934
51260026122
51260030211
51260037475
51260040832
51260047606
51260052672
51260057677
51260063598
51260068786
51260073852
51260079223
51260084227
51260089354
51260094298
51260098510
51260104247
51260108214
51260115844
51260121642
51260125670
51260130736
51260135619
51260140929
51260146117
51260152404
51260157164
51260163390
51260169676
51260175963
51260180663
51260186339
51260191222
51260197264
51260202696
51260207701
51260213194
51260218932
51260225035
51260230589
51260235777
51260241026
51260247435
51260251769
51260258360
51260261290
51260269530
51260275267
51260278929
51260285765
51260289915
51260295531
51260299742
51260307249
51260311705
51260316954
51260322996
51260327025
51260333616
51260337828
51260344908
51260348021
51260355528
51260360838
51260366392
51260371031
51260375242
51260382261
51260387449
51260392515
51260398253
51260403257
51260408506
51260414122
51260420835
51260425230
51260431578
51260437132
51260442137
51260446775
51260452207
51260457762
51260462400
51260468626
51260473692
51260479978
51260485411
51260489134
51260496946
51260501280
51260507200
51260510557
51260518553
51260523618
51260528501
51260534177
51260539976
51260545347
51260549680
51260556516
51260562070
51260566953
51260572813
51260578367
51260583616
51260587949
51260593381
51260597715
51260603818
51260609251
51260614561
51260620969
51260626279
51260631040
51260637021
51260642331
51260645444
51260652463
51260659238
51260663022
51260669065
51260675229
51260680112
51260685544
51260690976
51260696836
51260701963
51260707944
51260713193
51260717893
51260724240
51260729428
51260735105
51260740049
51260746152
51260750058
51260756284
51260760495
51260767758
51260771176
51260777951
51260784238
51260788144
51260794003
51260799558
51260805844
51260810788
51260815793
51260822202
51260827329
51260833005
51260838498
51260843320
51260847775
51260853940
51260859860
51260865109
51260870541
51260875912
51260881284
51260885556
51260892331
51260898129
51260903439
51260909482
51260914548
51260921139
51260925412
51260931027
51260937558
51260942807
51260949338
51260954526
51260960141
51260964840
51260971982
51260976803
51260981869
51260987057
51260992489
51260998166
51261004574
51261009640
51261014706
51261019833
51261024960
51261030331
51261036740
51261043148
51261048397
51261053158
51261058102
51261064205
51261069576
51261075985
51261080258
51261085812
51261091000
51261096066
51261102474
51261106442
51261113155
51261117428
51261123104
51261127255
51261133724
51261139401
51261144283
51261150143
51261155697
51261161617
51261165829
51261171017
51261175350
51261182735
51261187374
51261192806
51261200374
51261204647
51261211239
51261214229
51261220699
51261226742
51261231685
51261238033
51261242183
51261247860
51261253841
51261258724
51261263790
51261270626
51261275387
51261280697
51261285396
51261290462
51261297786
51261300716
51261307674
51261314144
51261318294
51261324703
51261328914
51261335750
51261338497
51261346126
51261351131
51261356258
51261361568
51261367061
51261372005
51261378230
51261385066
51261390010
51261394954
51261400386
51261405818
51261411067
51261415462
51261422908
51261427974
51261433040
51261438228
51261443721
51261448299
51261453670
51261459712
51261464168
51261471309
51261475764
51261481135
51261486690
51261492122
51261498469
51261503596
51261508418
51261513606
51261518672
51261524898
51261530391
51261536983
51261541926
51261546992
51261552546
51261557429
51261562617
51261567317
51261572810
51261578669
51261584651
51261589473
51261595332
51261601374
51261606196
51261611079
51261616450
51261622615
51261627131
51261635188
51261639888
51261645381
51261651118
51261656306
51261661921
51261667231
51261673213
51261678523
51261683894
51261689692
51261694758
51261700495
51261705988
51261711115
51261715205
51261721552
51261724787
51261733027
51261737971
51261743159
51261748774
51261752985
51261758906
51261765070
51261770136
51261775996
51261781000
51261786127
51261791437
51261797358
51261801386
51261807490
51261812983
51261818049
51261823664
51261829218
51261834345
51261838556
51261846003
51261850947
51261855951
51261862055
51261865839
51261872309
51261876520
51261883417
51261886591
51261894342
51261899225
51261904047
51261909174
51261914606
51261920710
51261924921
51261931391
51261936518
51261941461
51261947382
51261952814
51261958307
51261963922
51261970392
51261976129
51261981012
51261985895
51261991022
51261997919
51262002252
51262008417
51262012628
51262018793
51262023859
51262030267
51262035944
51262041376
51262046259
51262050409
51262056268
51262060663
51262067255
51262074152
51262080011
51262084405
51262089899
51262095209
51262101190
51262106073
51262110040
51262116754
51262122919
51262128412
51262133356
51262137445
51262143670
51262149103
51262155816
51262160394
51262165887
51262170709
51262176080
51262181878
51262187982
51262193292
51262199517
51262205072
51262209771
51262214105
51262219964
51262224176
51262231927
51262237054
51262241998
51262247552
51262253106
51262258050
51262262322
51262268975
51262274529
51262279534
51262285577
51262291131
51262295281
51262300836
51262307549
51262312859
51262317742
51262321465
51262327752
51262333001
51262337945
51262344476
51262349053
51262355462
51262361199
51262366204
51262370904
51262375909
51262382561
51262386895
51262392693
51262397088
51262403008
51262408745
51262413872
51262420159
51262425896
51262431756
51262435845
51262441216
51262445733
51262452446
51262458062
51262462945
51262468560
51262473687
51262480339
51262484673
51262490593
51262494866
51262502556
51262507561
51262512932
51262519097
51262524529
51262529290
51262533501
51262541802
51262547051
51262552300
51262557793
51262561638
51262568291
51262573906
51262578728
51262584404
51262590386
51262595268
51262600578
51262605583
51262611199
51262617241
51262622429
51262628410
51262633843
51262639519
51262643913
51262650322
51262653313
51262660210
51262666618
51262670402
51262676689
51262682182
51262687736
51262692192
51262698723
51262704826
51262709770
51262715568
51262721245
51262725700
51262730095
51262737175
51262743034
51262748161
51262752922
51262758232
51262763542
51262767814
51262774284
51262779716
51262785820
51262790580
51262796074
51262801506
51262805717
51262812431
51262817924
51262824333
51262828849
51262833854
51262839286
51262845085
51262851676
51262856498
51262861564
51262868156
51262872001
51262878288
51262883842
51262889701
51262894889
51262899894
51262905082
51262911369
51262916557
51262922050
51262928458
51262933524
51262939079
51262944816
51262949699
51262954276
51262959098
51262966117
51262970512
51262976310
51262980643
51262986808
51262992545
51262997611
51263003959
51263009574
51263015128
51263019279
51263025260
51263030448
51263035453
51263041129
51263048148
51263052787
51263058219
51263063102
51263067496
51263074576
51263080252
51263085379
51263090995
51263096366
51263101126
51263107108
51263112052
51263117179
51263123526
51263127860
51263133780
51263139823
51263144217
51263149832
51263156851
51263162467
51263167655
51263172659
51263178458
51263183890
51263189505
51263193900
51263200675
51263206290
51263211295
51263216788
51263222220
51263227957
51263232169
51263239249
51263244559
51263249564
51263256094
51263259940
51263266043
51263270315
51263277335
51263282522
51263287588
51263292593
51263297476
51263303641
51263309012
51263315481
51263320547
51263325491
51263331289
51263336355
51263341604
51263347098
51263353140
51263358999
51263364370
51263370962
51263376699
51263381521
51263385855
51263392202
51263398550
51263403860
51263408743
51263413809
51263418875
51263425222
51263430349
51263435781
51263440908
51263446096
51263452383
51263458059
51263462271
51263467459
51263473684
51263478262
51263484365
51263489065
51263494558
51263499319
51263504080
51263509695
51263514822
51263521108
51263524770
51263530447
51263535513
51263540762
51263544790
51263551504
51263554861
51263561391
51263566091
51263571279
51263577261
51263582082
51263586843
51263593862
51263598745
51263603933
51263608022
51263613149
51263618337
51263623586
51263630422
51263635732
51263640493
51263645253
51263651235
51263655446
51263660390
51263666127
51263671682
51263677114
51263683339
51263688771
51263694081
51263698842
51263705983
51263711110
51263716970
51263722036
51263727285
51263733205
51263738210
51263743459
51263748464
51263754872
51263758595
51263764455
51263769643
51263774281
51263779530
51263785756
51263790456
51263796559
51263802419
51263807362
51263811391
51263817433
51263822377
51263827321
51263833669
51263837697
51263843251
51263848500
51263853322
51263857289
51263864369
51263867848
51263874135
51263879323
51263884267
51263889638
51263894459
51263900136
51263905507
51263911244
51263915333
51263920460
51263925770
51263930531
51263934559
51263941578
51263947621
51263952504
51263955983
51263963002
51263967701
51263972401
51263978810
51263983143
51263988331
51263993519
51263997914
51264003163
51264008290
51264012196
51264020069
51264023548
51264029652
51264035450
51264040272
51264044605
51264049549
51264056324
51264061695
51264067127
51264071278
51264077259
51264081410
51264086537
51264090504
51264098011
51264101368
51264108082
51264114002
51264118885
51264124195
51264127857
51264135120
51264140430
51264145740
51264149769
51264154957
51264160145
51264165455
51264169544
51264175587
51264181629
51264196705
51264201343
51264206165
51264212513
51264218067
51264222584
51264227649
51264232227
51264237415
51264242908
51264246937
51264254139
51264259571
51264264515
51264269031
51264273792
51264279285
51264284107
51264289844
51264295703
51264301380
51264306263
51264313587
51264318958
51264324756
51264330432
51264334888
51264340930
51264345325
51264351856
51264356800
51264363391
51264368213
51264373279
51264378894
51264383777
51264389026
51264394397
51264400134
51264404285
51264411670
51264415088
51264421558
51264424304
51264430896
51264435901
51264442004
51264446216
51264452686
51264457080
51264462512
51264468310
51264472400
51264477771
51264481738
51264488940
51264494800
51264499682
51264502978
51264509692
51264514697
51264519458
51264524829
51264530200
51264535876
51264539966
51264546069
51264550036
51264555591
51264559558
51264566211
51264571338
51264577258
51264582202
51264586963
51264592334
51264595935
51264602771
51264608264
51264613085
51264617053
51264623278
51264627185
51264633349
51264638476
51264643725
51264648669
51264653552
51264658679
51264663561
51264669726
51264673266
51264680224
51264684680
51264690966
51264695117
51264700427
51264704455
51264711291
51264716479
51264721545
51264727038
51264731982
51264737231
51264742541
51264747240
51264752367
51264758715
51264763720
51264768236
51264772143
51264778246
51264783617
51264788439
51264793566
51264798815
51264804735
51264810045
51264815111
51264820482
51264825548
51264829394
51264835863
51264840685
51264846117
51264851000
51264855700
51264860888
51264865709
51264869494
51264875536
51264882311
51264886034
51264891710
51264897020
51264901781
51264907030
51264912645
51264917101
51264922716
51264926622
51264933336
51264938036
51264942797
51264948534
51264953417
51264960253
51264964403
51264970323
51264974352
51264980211
51264984361
51264990831
51264993944
51265000597
51265005724
51265010484
51265015550
51265021593
51265027696
51265033006
51265039049
51265043138
51265048570
51265052476
51265058397
51265062364
51265069383
51265075792
51265081468
51265086534
51265090135
51265096666
51265100084
51265107652
51265111986
51265118211
51265123399
51265128282
51265133531
51265138231
51265144090
51265149583
51265155259
51265159471
51265165452
51265169603
51265175279
51265179307
51265186753
51265191941
51265196641
51265202256
51265205979
51265211961
51265217210
51265223008
51265227647
51265232835
51265236802
51265242478
51265246629
51265252976
51265258470
51265263658
51265268846
51265273728
51265278916
51265284104
51265288865
51265294114
51265300218
51265305405
51265310777
51265315415
51265320237
51265325486
51265330430
51265335679
51265340745
51265347153
51265350877
51265356431
51265361802
51265366318
51265371812
51265379014
51265384080
51265389084
51265393601
51265399705
51265404465
51265409409
51265414719
51265419663
51265426621
51265431870
51265436326
51265441636
51265446213
51265450242
51265457749
51265463120
51265468003
51265472824
51265477768
51265482529
51265487595
51265493149
51265498032
51265504624
51265508408
51265514817
51265518906
51265524643
51265528672
51265536423
51265541611
51265546433
51265551071
51265557236
51265561997
51265566940
51265571884
51265578476
51265584458
51265589523
51265596298
51265601852
51265607834
51265612778
51265618149
51265624496
51265630173
51265635544
51265638596
51265645554
51265652145
51265658066
51265663315
51265666916
51265673324
51265677353
51265683212
51265687668
51265694870
51265697983
51265704147
51265708725
51265714462
51265719711
51265724472
51265729965
51265735092
51265740219
51265745651
51265750412
51265755600
51265761032
51265764999
51265771591
51265777023
51265781784
51265786789
51265791610
51265796920
51265801742
51265806503
51265813339
51265817977
51265823165
51265827560
51265832870
51265837997
51265842269
51265848922
51265852157
51265858749
51265864364
51265869430
51265874435
51265879196
51265885909
51265890243
51265895980
51265900680
51265907272
51265913619
51265918929
51265925277
51265929305
51265935653
51265940719
51265944625
51265949935
51265955367
51265959334
51265965560
51265970077
51265975997
51265980880
51265985641
51265991500
51265996383
51266002120
51266007247
51266012679
51266018050
51266023665
51266027816
51266032699
51266037948
51266044417
51266049727
51266053756
51266058760
51266064803
51266068770
51266073592
51266080184
51266085677
51266091353
51266096114
51266102767
51266108992
51266114180
51266119429
51266124861
51266130965
51266136031
51266141341
51266145369
51266150557
51266154585
51266161910
51266167342
51266172225
51266177962
51266182662
51266187727
51266191451
51266197737
51266203352
51266209090
51266215743
51266221297
51266226729
51266232222
51266237593
51266242781
51266248946
51266254072
51266258833
51266261580
51266268294
51266273848
51266280501
51266285689
51266289717
51266294783
51266299910
51266305098
51266309248
51266316145
51266319380
51266325911
51266331587
51266336470
51266342024
51266346907
51266351606
51266358259
51266363020
51266368330
51266372786
51266376814
51266382734
51266386824
51266394148
51266397261
51266403730
51266408918
51266413801
51266419050
51266423933
51266429548
51266434431
51266440473
51266445844
51266451338
51266455305
51266460920
51266465070
51266472578
51266477583
51266482282
51266487409
51266492292
51266497663
51266501447
51266508039
51266513349
51266518964
51266523054
51266529279
51266533979
51266540083
51266543928
51266551252
51266556379
51266561628
51266566267
51266571516
51266576093
51266581403
51266588178
51266591291
51266597394
51266603254
51266608075
51266613752
51266618451
51266624616
51266630292
51266635358
51266640485
51266645307
51266649457
51266655622
51266659833
51266665815
51266671186
51266676191
51266682233
51266687055
51266691144
51266696149
51266702497
51266708173
51266713117
51266717206
51266723249
51266727399
51266733197
51266737409
51266743573
51266748944
51266754071
51266759381
51266764142
51266768781
51266773724
51266780805
51266785382
51266791669
51266796674
51266803204
51266809796
51266815472
51266820050
51266825665
51266831525
51266836102
51266842938
51266846173
51266854169
51266858807
51266863873
51266870709
51266874493
51266880841
51266886151
51266891522
51266895489
51266901715
51266906842
51266912823
51266915631
51266922101
51266927838
51266932721
51266938092
51266943463
51266948407
51266953717
51266958477
51266962872
51266968182
51266974224
51266980206
51266983441
51266989849
51266992596
51266999920
51267002728
51267009808
51267015789
51267021282
51267027081
51267031475
51267038494
51267044659
51267050030
51267056439
51267062115
51267067181
51267071331
51267077129
51267081158
51267087566
51267090557
51267099224
51267103497
51267109417
51267113689
51267118633
51267123577
51267128521
51267134869
51267140240
51267145794
51267150494
51267157635
51267163555
51267168682
51267174480
51267178387
51267184673
51267190716
51267195415
51267199383
51267205303
51267210857
51267216167
51267221599
51267226482
51267231670
51267237041
51267242595
51267246624
51267254192
51267257732
51267265361
51267269939
51267276165
51267280681
51267285564
51267290813
51267296306
51267302288
51267306865
51267314739
51267320964
51267324810
51267331523
51267337322
51267341777
51267347392
51267352397
51267356914
51267363750
51267368144
51267375469
51267381145
51267386150
51267390361
51267395305
51267400554
51267405498
51267411479
51267416850
51267423198
51267427287
51267433086
51267437846
51267443156
51267449077
51267454082
51267460307
51267464091
51267469951
51267473979
51267483745
51267489238
51267497783
51267505656
51267513591
51267519816
51267528605
51267534953
51267543620
51267552958
51267560405
51267566508
51267575541
51267582377
51267589518
51267596537
51267603678
51267613932
51267620402
51267628764
51267634867
51267640177
51267645182
51267650553
51267656718
51267662272
51267667460
51267672770
51267677287
51267682536
51267687296
51267692179
51267698588
51267703654
51267708659
51267713602
51267719157
51267724284
51267729105
51267734354
51267739848
51267745341
51267749613
51267755961
51267759989
51267765787
51267770731
51267777262
51267782389
51267787150
51267791788
51267796732
51267801737
51267806742
51267813090
51267817728
51267824076
51267828714
51267833353
51267837381
51267843790
51267846598
51267854593
51267859354
51267864298
51267869547
51267874613
51267880289
51267883951
51267890482
51267895121
51267900858
51267905130
51267910746
51267914774
51267920877
51267926676
51267933084
51267937784
51267942606
51267948221
51267953592
51267958475
51267962564
51267968973
51267974100
51267979105
51267983804
51267988870
51267993814
51267999796
51268004617
51268009988
51268016092
51268021585
51268026590
51268030679
51268036478
51268040628
51268046670
51268051309
51268058206
51268061136
51268067728
51268072915
51268077737
51268083230
51268088540
51268094888
51268098428
51268104349
51268109598
51268114175
51268119546
51268126321
51268131570
51268136575
51268139505
51268146096
51268151529
51268156411
51268161966
51268167154
51268172464
51268177652
51268183328
51268187295
51268192910
51268196939
51268204751
51268208169
51268214700
51268219461
51268224282
51268230142
51268234963
51268240151
51268245645
51268250039
51268255288
51268260781
51268264810
51268270913
51268275002
51268282388
51268286965
51268292031
51268297524
51268302285
51268307412
51268312417
51268318826
51268323159
51268329262
51268334878
51268339699
51268345620
51268350930
51268355874
51268362160
51268366921
51268372170
51268377175
51268382363
51268387795
51268393349
51268398781
51268403237
51268408547
51268414162
51268418252
51268423745
51268427956
51268434304
51268440163
51268445107
51268448769
51268454873
51268459999
51268464882
51268470681
51268475624
51268482399
51268486672
51268491494
51268497231
51268501503
51268505532
51268512062
51268518044
51268522988
51268528237
51268533180
51268537636
51268542519
51268548927
51268554360
51268559548
51268563637
51268569801
51268573830
51268579689
51268585487
51268590431
51268596474
51268600624
51268606850
51268610512
51268615822
51268620644
51268627480
51268631935
51268637672
51268641640
51268647316
51268651283
51268658058
51268660927
51268668068
51268673866
51268679359
51268684364
51268687965
51268693336
51268698646
51268704933
51268708046
51268714699
51268717506
51268724952
51268727943
51268734596
51268740394
51268745460
51268751320
51268756446
51268760292
51268765541
51268771339
51268775734
51268782447
51268787635
51268792701
51268797828
51268802711
51268807899
51268812721
51268818519
51268823890
51268828956
51268834266
51268838478
51268843604
51268848182
51268853675
51268859901
51268864906
51268869666
51268874976
51268879859
51268884925
51268889930
51268895484
51268900245
51268906776
51268912086
51268915992
51268921058
51268925941
51268932105
51268937293
51268942725
51268947486
51268952552
51268957557
51268962501
51268967505
51268974097
51268979285
51268985023
51268989112
51268995337
51268999244
51269005042
51269009314
51269015723
51269022193
51269026160
51269031836
51269036841
51269043128
51269046851
51269053931
51269059302
51269064307
51269068396
51269075354
51269080054
51269085547
51269091101
51269096656
51269101905
51269106848
51269112158
51269117102
51269122107
51269126990
51269133338
51269138648
51269143653
51269149695
51269154761
51269159461
51269164221
51269169775
51269175147
51269179968
51269185400
51269190283
51269195471
51269200293
51269204626
51269212195
51269215308
51269221350
51269226965
51269231970
51269237402
51269242102
51269246191
51269252905
51269257178
51269262610
51269268286
51269272253
51269277258
51269281347
51269288855
51269292151
51269298071
51269303747
51269308508
51269313879
51269318762
51269324011
51269329748
51269335302
51269339331
51269344702
51269349340
51269355566
51269359777
51269365942
51269371801
51269376745
51269382116
51269387121
51269391760
51269396521
51269401464
51269408178
51269413610
51269418188
51269425817
51269430944
51269436132
51269443762
51269448461
51269454992
51269459264
51269466161
51269471533
51269476965
51269479955
51269487280
51269492651
51269497533
51269502538
51269508215
51269513647
51269518774
51269525060
51269529577
51269534887
51269538915
51269546422
51269551610
51269556982
51269564001
51269568334
51269574376
51269580358
51269585180
51269590429
51269595128
51269602819
51269607274
51269613012
51269618261
51269623204
51269628209
51269633092
51269638707
51269643956
51269650060
51269653600
51269659887
51269664098
51269670201
51269674291
51269680455
51269686010
51269690892
51269696446
51269701329
51269706517
51269711522
51269716527
51269721532
51269729100
51269733312
51269738683
51269742894
51269749303
51269754186
51269759557
51269765111
51269769994
51269774999
51269779942
51269784886
51269789708
51269795445
51269800999
51269807469
51269811559
51269817174
51269821873
51269827306
51269832371
51269837315
51269842808
51269847691
51269852696
51269857640
51269863682
51269867406
51269874364
51269878758
51269885594
51269890477
51269895360
51269900425
51269905308
51269910435
51269916844
51269922154
51269925755
51269931065
51269935887
51269941929
51269946141
51269953404
51269957737
51269963353
51269968479
51269973484
51269978733
51269983677
51269989048
51269993992
51269999363
51270005162
51270010227
51270013828
51270019932
51270023594
51270030552
51270035008
51270040379
51270044773
51270050999
51270056309
51270061375
51270067051
51270072178
51270077671
51270082554
51270087376
51270092258
51270098301
51270102329
51270109287
51270114475
51270119358
51270124790
51270129612
51270134678
51270139439
51270144871
51270150059
51270156406
51270161594
51270166050
51270171238
51270176243
51270180332
51270186802
51270190037
51270196201
51270202121
51270207126
51270211765
51270216587
51270221714
51270226719
51270232517
51270237888
51270242710
51270247898
51270252292
51270256321
51270263645
51270266880
51270273410
51270278537
51270283298
51270288730
51270293735
51270298618
51270303562
51270309848
51270315158
51270319736
51270323764
51270329685
51270333774
51270340488
51270346225
51270351047
51270355808
51270360629
51270365512
51270370273
51270376071
51270381503
51270386020
51270391391
51270396030
51270401218
51270405795
51270409885
51270418491
51270423434
51270428256
51270433261
51270438205
51270443210
51270447970
51270453830
51270459018
51270465426
51270470614
51270475802
51270481418
51270486667
51270493930
51270498752
51270505099
51270509982
51270514865
51270519931
51270525180
51270531283
51270535800
51270542575
51270547580
51270552584
51270555636
51270562838
51270567721
51270573825
51270579745
51270584567
51270589572
51270593356
51270599887
51270603488
51270611422
51270615817
51270620883
51270626681
51270631442
51270634432
51270641146
51270646456
51270651644
51270657809
51270661593
51270667880
51270673312
51270677218
51270682345
51270689425
51270693697
51270699129
51270703280
51270710177
51270715487
51270720370
51270725069
51270729952
51270736544
51270740511
51270746187
51270751559
51270756197
51270761385
51270767855
51270771151
51270777743
51270783114
51270788057
51270793368
51270798311
51270803866
51270808870
51270815157
51270819246
51270825594
51270829622
51270834566
51270839510
51270847445
51270853060
51270858004
51270863069
51270866671
51270872469
51270877657
51270882967
51270888582
51270893770
51270898592
51270905611
51270911897
51270917513
51270923738
51270927828
51270934541
51270939485
51270944307
51270947115
51270953523
51270959871
51270965059
51270970369
51270976045
51270981294
51270986665
51270991304
51270996736
51271002657
51271008028
51271012849
51271015657
51271023408
51271027742
51271032686
51271039155
51271044160
51271050935
51271055086
51271060945
51271064973
51271071016
51271075105
51271081331
51271086580
51271091279
51271096650
51271101472
51271106538
51271111299
51271117280
51271122651
51271128755
51271133699
51271140596
51271145478
51271151033
51271156892
51271162141
51271169038
51271173310
51271179414
51271185700
51271190950
51271196321
51271201631
51271206391
51271211213
51271217561
51271221223
51271227204
51271230988
51271238374
51271243012
51271249055
51271254060
51271259004
51271264314
51271269257
51271274140
51271279023
51271285798
51271289826
51271296357
51271300385
51271306306
51271310334
51271316865
51271321320
51271327363
51271333100
51271337922
51271342744
51271347626
51271352570
51271359223
51271363801
51271369111
51271374543
51271378510
51271383637
51271387848
51271395234
51271399506
51271405549
51271410553
51271415497
51271421051
51271425934
51271431672
51271436432
51271442597
51271447907
51271452546
51271457795
51271462921
51271467011
51271474396
51271480439
51271485321
51271488068
51271495453
51271500641
51271505585
51271511688
51271517060
51271522736
51271527374
51271533234
51271537995
51271543121
51271549225
51271554230
51271559845
51271565216
51271569977
51271575165
51271580048
51271585419
51271592438
51271598053
51271602875
51271607880
51271612762
51271617340
51271622101
51271628387
51271633942
51271638641
51271643768
51271648407
51271653717
51271659088
51271662994
51271671844
51271677093
51271680816
51271686676
51271691681
51271696930
51271702179
51271707367
51271712005
51271718292
51271722259
51271727630
51271731659
51271738861
51271744293
51271749298
51271754608
51271759491
51271765838
51271769561
51271775970
51271780059
51271786224
51271790801
51271796356
51271801055
51271806793
51271809539
51271815887
51271821563
51271826690
51271833160
51271836944
51271843353
51271847442
51271852325
51271857574
51271864288
51271869292
51271874175
51271879119
51271883880
51271888702
51271894622
51271899566
51271904449
51271909820
51271915191
51271920135
51271925750
51271931060
51271935027
51271943206
51271947234
51271953216
51271955169
51271963042
51271968474
51271973296
51271979522
51271983489
51271990142
51271995452
51272000274
51272006133
51272011077
51272016326
51272021758
51272027190
51272032500
51272037749
51272041961
51272048491
51272053435
51272058745
51272064238
51272069121
51272074248
51272079192
51272084441
51272089324
51272095976
51272100554
51272106658
51272110991
51272118987
51272124297
51272130156
51272136382
51272140471
51272147978
51272152312
51272157073
51272162810
51272167693
51272173369
51272178801
51272184538
51272189787
51272194975
51272199187
51272205778
51272208525
51272216399
51272221220
51272225920
51272231291
51272236052
51272242399
51272246245
51272253203
51272256376
51272263212
51272268278
51272273161
51272278959
51272283842
51272288847
51272294218
51272300016
51272303984
51272310026
51272314787
51272319975
51272325102
51272329985
51272336088
51272341276
51272345610
51272350920
51272355986
51272361174
51272368437
51272373808
51272378569
51272381315
51272387907
51272393095
51272398039
51272401823
51272408171
51272414274
51272419523
51272424711
51272429960
51272434599
51272440031
51272447172
51272451200
51272456449
51272461759
51272466642
51272471952
51272476713
51272482328
51272488859
51272493314
51272499113
51272504179
51272508512
51272514310
51272520658
51272525907
51272531583
51272536283
51272541349
51272546598
51272551725
51272556913
51272563932
51272569303
51272574186
51272579130
51272583951
51272589444
51272594327
51272599210
51272604337
51272611112
51272615018
51272620877
51272625028
51272630704
51272634732
51272642423
51272646573
51272652616
51272657498
51272662259
51272667020
51272671842
51272678556
51272682706
51272688077
51272692227
51272698026
51272702115
51272709134
51272714383
51272719693
51272725858
51272730557
51272735318
51272740628
51272745450
51272750760
51272756131
51272760770
51272767178
51272771756
51272777737
51272783536
51272788663
51272793484
51272798489
51272804715
51272810513
51272816556
51272821744
51272826626
51272832486
51272837857
51272843289
51272849270
51272853848
51272857937
51272864041
51272868802
51272875149
51272879483
51272884305
51272889798
51272894558
51272899807
51272904934
51272912075
51272916897
51272922207
51272928067
51272932827
51272938626
51272944180
51272949612
51272953884
51272961209
51272966030
51272970852
51272976284
51272981106
51272986660
51272992031
51272998013
51273002468
51273010769
51273016873
51273022427
51273028591
51273032986
51273039394
51273044338
51273050564
51273056057
51273061306
51273066677
51273071621
51273077053
51273082363
51273087185
51273092373
51273097378
51273101467
51273109219
51273112575
51273119289
51273124416
51273129177
51273132656
51273138882
51273144253
51273149196
51273155178
51273160488
51273165432
51273169399
51273174770
51273180019
51273186367
51273189785
51273196315
51273201626
51273206508
51273211452
51273216274
51273221889
51273226711
51273232448
51273237575
51273242580
51273247951
51273253322
51273257228
51273264492
51273270046
51273274990
51273280117
51273285060
51273289943
51273295070
51273299465
51273305995
51273310512
51273315822
51273321254
51273325282
51273330104
51273335475
51273343105
51273348903
51273353786
51273357936
51273363979
51273368556
51273373439
51273379298
51273384608
51273390041
51273394374
51273401393
51273404384
51273411830
51273414577
51273423366
51273427760
51273432460
51273439113
51273443202
51273448878
51273452846
51273460170
51273465297
51273470424
51273475734
51273480555
51273485804
51273490809
51273497096
51273502406
51273508204
51273512172
51273517848
51273521876
51273527919
51273533839
51273538966
51273544886
51273549708
51273554713
51273559901
51273564479
51273569789
51273576319
51273579493
51273586329
51273591578
51273596461
51273601405
51273606227
51273612269
51273617274
51273621913
51273626856
51273632472
51273637660
51273642237
51273647608
51273652918
51273657435
51273663294
51273667506
51273673426
51273678187
51273683558
51273689722
51273694544
51273700465
51273705775
51273710169
51273715418
51273721094
51273725001
51273731714
51273734827
51273742518
51273747339
51273752161
51273756922
51273761805
51273766871
51273771753
51273777979
51273781641
51273787745
51273791712
51273797571
51273801477
51273809351
51273812525
51273819483
51273823694
51273828455
51273833887
51273838709
51273843225
51273849695
51273854883
51273858545
51273864527
51273869715
51273874475
51273878443
51273886682
51273890528
51273896021
51273902063
51273906702
51273911463
51273916345
51273922449
51273927942
51273933008
51273937708
51273945703
51273950891
51273956079
51273962061
51273967676
51273972742
51273978418
51273984521
51273989038
51273995019
51273999414
51274006494
51274011987
51274016748
51274020898
51274026941
51274031030
51274035852
51274041711
51274046716
51274053247
51274057824
51274065759
51274070703
51274077112
51274079004
51274087243
51274093957
51274099511
51274103906
51274109582
51274115686
51274120202
51274126001
51274132165
51274136987
51274139856
51274147241
51274151757
51274156457
51274161523
51274168298
51274172998
51274176965
51274183068
51274187219
51274193017
51274197106
51274203759
51274207177
51274214745
51274219262
51274224572
51274230248
51274235009
51274241235
51274246362
51274252526
51274257775
51274262841
51274268151
51274273156
51274278344
51274283837
51274289208
51274294457
51274299035
51274303002
51274310204
51274314355
51274320946
51274326440
51274331261
51274337243
51274342187
51274346764
51274351525
51274356713
51274362145
51274367455
51274372704
51274378441
51274382775
51274387841
51274391808
51274400292
51274404870
51274409874
51274415978
51274419579
51274425011
51274430138
51274436180
51274442345
51274446556
51274451073
51274456505
51274460717
51274467369
51274470299
51274478417
51274483849
51274489037
51274493981
51274497521
51274502892
51274508202
51274515465
51274518517
51274524803
51274529381
51274534508
51274539147
51274545250
51274550438
51274555382
51274560997
51274566124
51274571190
51274576439
51274580772
51274586082
51274591820
51274596336
51274604576
51274609703
51274614403
51274619591
51274624901
51274631431
51274636009
51274641990
51274647301
51274652244
51274657493
51274662376
51274667137
51274673790
51274679527
51274684349
51274691246
51274696556
51274701744
51274708091
51274713585
51274719688
51274725181
51274730369
51274735984
51274741294
51274745079
51274750999
51274757225
51274762107
51274767051
51274772666
51274778221
51274782249
51274789268
51274794334
51274798911
51274804649
51274809532
51274814536
51274819358
51274824790
51274829734
51274835838
51274841209
51274845603
51274850791
51274855613
51274860984
51274867698
51274871360
51274877769
51274883323
51274888450
51274893699
51274898582
51274903586
51274910178
51274915732
51274919883
51274925071
51274930259
51274935081
51274939109
51274946128
51274951377
51274957053
51274962180
51274966819
51274971946
51274976890
51274983054
51274988059
51274993735
51274999045
51275003989
51275008139
51275013755
51275019126
51275025229
51275028464
51275035422
51275040427
51275045371
51275051474
51275055075
51275061545
51275068137
51275073325
51275077536
51275083335
51275087485
51275093649
51275098532
51275103476
51275108664
51275114646
51275119101
51275123984
51275129111
51275133933
51275139426
51275144980
51275151633
51275156760
51275162192
51275168906
51275174155
51275180319
51275185995
51275192221
51275198019
51275202963
51275208700
51275213766
51275220358
51275224509
51275230490
51275236838
51275241903
51275248739
51275253012
51275260275
51275266073
51275271139
51275276754
51275281454
51275287252
51275292990
51275298361
51275304892
51275309347
51275314230
51275319723
51275323690
51275330893
51275336569
51275341879
51275347860
51275352926
51275358724
51275366354
51275371420
51275376791
51275383444
51275389303
51275394735
51275401205
51275406942
51275412863
51275418051
51275424276
51275428304
51275431661
51275436849
51275440756
51275443502
51275448263
51275451315
51275455648
51275461263
51275464986
51275468465
51275473714
51275476095
51275482015
51275485555
51275489767
51275494039
51275499166
51275502218
51275506307
51275511800
51275516622
51275520345
51275525228
51275529073
51275533163
51275537191
51275541036
51275545308
51275549825
51275553426
51275557515
51275561361
51275566671
51275571981
51275576192
51275580648
51275583516
51275589254
51275590719
51275597615
51275601949
51275606160
51275610128
51275614156
51275618367
51275622029
51275626241
51275631795
51275635823
51275639852
51275643880
51275649861
51275653585
51275659444
51275663655
51275667867
51275671834
51275674642
51275679952
51275683919
51275686543
51275692281
51275695577
51275699727
51275705281
51275709981
51275714131
51275718770
51275724080
51275728230
51275734517
51275739400
51275743062
51275747517
51275751668
51275756123
51275758321
51275765340
51275768575
51275772542
51275778584
51275783833
51275789387
51275794087
51275798360
51275802571
51275807088
51275810872
51275815449
51275820882
51275824788
51275829121
51275834065
51275837422
51275842305
51275847371
51275851155
51275857014
51275861470
51275865681
51275870381
51275872822
51275878682
51275882527
51275887593
51275892170
51275896138
51275900410
51275904072
51275907368
51275913350
51275916584
51275920369
51275925801
51275929646
51275933857
51275937947
51275942707
51275946430
51275950581
51275954792
51275960285
51275964558
51275968952
51275972126
51275976521
51275979817
51275985676
51275989033
51275993366
51275998249
51276002155
51276006184
51276011677
51276016071
51276020466
51276024189
51276027119
51276032185
51276038288
51276041401
51276045857
51276050251
51276054401
51276058186
51276062763
51276066425
51276071613
51276075825
51276080402
51276084736
51276087788
51276093098
51276098225
51276103840
51276108234
51276111591
51276116291
51276120991
51276126484
51276130512
51276136188
51276140278
51276143818
51276146747
51276153766
51276158405
51276161762
51276166462
51276171039
51276175556
51276181476
51276184833
51276190204
51276194477
51276197223
51276201923
51276205829
51276210346
51276214862
51276218341
51276223713
51276228473
51276231342
51276237506
51276242145
51276246479
51276250324
51276253559
51276259479
51276263507
51276267841
51276271442
51276276874
51276282794
51276287921
51276293353
51276296283
51276300617
51276304889
51276309955
51276313556
51276317279
51276322650
51276327533
51276330951
51276335346
51276340289
51276344257
51276348285
51276351825
51276355731
51276360370
51276364886
51276369037
51276373920
51276378131
51276383319
51276387714
51276391559
51276396686
51276400653
51276406879
51276412128
51276415240
51276422442
51276427203
51276433734
51276445941
51276453204
51276460223
51276467059
51276475421
51276481280
51276487872
51276494220
51276499041
51276510333
51276516314
51276525225
51276532305
51276538836
51276544329
51276551959
51276558245
51276567279
51276576190
51276584185
51276590472
51276594744
51276604022
51276609026
51276617938
51276624712
51276630755
51276637164
51276646441
51276653826
51276664019
51276670550
51276673235
51276685137
51276688006
51276699358
51276707415
51276714861
51276722185
51276728533
51276734514
51276737505
51276748614
51276751604
51276763323
51276769487
51276777910
51276782610
51276791521
51276795610
51276803728
51276809771
51276814836
51276825457
51276831316
51276840105
51276847978
51276853533
51276860369
51276866655
51276873613
51276876360
51276887102
51276893022
51276901323
51276908281
51276916277
51276922990
51276925737
51276936784
51276941179
51276949968
51276957231
51276965105
51276971635
51276980119
51276987077
51276991289
51277000688
51277007524
51277012529
51277023942
51277029741
51277037797
51277046159
51277048967
51277059892
51277065019
51277073808
51277080583
51277083329
51277094682
51277100358
51277108171
51277114640
51277117570
51277128739
51277135820
51277143083
51277149552
51277158280
51277165238
51277170793
51277180375
51277187882
51277192765
51277201371
51277207780
51277214616
51277222123
51277229936
51277237016
51277239945
51277250993
51277256120
51277264970
51277271378
51277279740
51277286637
51277291520
51277303483
51277308304
51277317521
51277324845
51277331498
51277338334
51277346451
51277352860
51277359391
51277362504
51277376175
51277381852
51277390152
51277397782
51277404801
51277411393
51277414505
51277425125
51277432328
51277440384
51277447464
51277455948
51277462296
51277467362
51277475723
51277482681
51277490921
51277497452
51277502640
51277514542
51277522415
51277528519
51277535294
51277541763
51277551041
51277556107
51277563553
51277570145
51277578262
51277584976
51277590652
51277600479
51277608047
51277613968
51277620498
51277629165
51277635940
51277640213
51277648880
51277658340
51277661514
51277671219
51277678482
51277686660
51277693008
51277700149
51277706863
51277711868
51277721756
51277729568
51277736709
51277743301
51277749710
51277757705
51277762100
51277770950
51277779861
51277782730
51277793899
51277801833
51277807876
51277814285
51277822036
51277828567
51277833755
51277842788
51277849197
51277857436
51277864761
51277870803
51277880447
51277884902
51277893264
51277899673
51277904738
51277914077
51277921706
51277929152
51277936721
51277939406
51277951308
51277956313
51277963149
51277972182
51277975051
51277985671
51277991042
51278000380
51278005202
51278011306
51278020400
51278028640
51278035292
51278039626
51278047805
51278054579
51278059828
51278072280
51278077712
51278084364
51278091261
51278100173
51278106825
51278111952
51278120314
51278126662
51278134840
51278143813
51278146864
51278158522
51278164076
51278172316
51278178664
51278186171
51278192885
51278197951
51278208082
51278216444
51278223402
51278230238
51278236525
51278242994
51278248549
51278257826
51278264540
51278273939
51278283278
51278286573
51278296583
51278304274
51278310804
51278317091
51278321974
51278331373
51278338453
51278346388
51278353346
51278361402
51278367140
51278374647
51278380811
51278387403
51278393812
51278399549
51278410108
51278416273
51278421522
51278430494
51278437330
51278444349
51278450025
51278456007
51278462537
51278469984
51278476881
51278484144
51278491590
51278497327
51278503919
51278509656
51278516492
51278522107
51278529798
51278532850
51278543104
51278548658
51278557081
51278563916
51278569776
51278575818
51278580396
51278589856
51278594800
51278601758
51278608411
51278616773
51278623792
51278628614
51278636426
51278643140
51278649182
51278655103
51278659863
51278671094
51278678418
51278684461
51278691358
51278698132
51278704297
51278706860
51278716992
51278721753
51278730359
51278737927
51278744397
51278750195
51278756055
51278762341
51278768994
51278771863
51278780408
51278785535
51278795788
51278801648
51278808545
51278814404
51278822522
51278828564
51278832959
51278840649
51278846753
51278856213
51278862195
51278871045
51278877636
51278883068
51278892102
51278899182
51278907666
51278914746
51278920666
51278928540
51278936108
51278942883
51278948010
51278957714
51278961804
51278969372
51278978100
51278980786
51278991345
51278998058
51279006115
51279013378
51279020214
51279026012
51279030834
51279037792
51279043530
51279046154
51279058910
51279064098
51279071117
51279076610
51279084484
51279090649
51279094982
51279102978
51279109508
51279117138
51279123485
51279130260
51279136181
51279142894
51279149425
51279155285
51279157848
51279166820
51279173473
51279184337
51279192028
51279198253
51279203929
51279208385
51279217174
51279223522
51279228343
51279235118
51279241344
51279252025
51279257274
51279265453
51279269298
51279276927
51279283031
51279287425
51279294750
51279301036
51279311534
51279317699
51279322765
51279333141
51279339549
51279347118
51279354076
51279362254
51279369456
51279375255
51279384410
51279391856
51279398448
51279403209
51279411143
51279417552
51279420421
51279432750
51279437938
51279446483
51279453013
51279460948
51279466807
51279472178
51279479319
51279486033
51279490794
51279496592
51279501109
51279511485
51279516734
51279525035
51279528697
51279537059
51279542918
51279547679
51279554576
51279560374
51279568797
51279575877
51279583140
51279591502
51279594798
51279606944
51279612071
51279621165
51279627512
51279636546
51279642954
51279646128
51279658579
51279663828
51279672800
51279680308
51279688059
51279694346
51279702646
51279709299
51279715281
51279723398
51279730906
51279737131
51279744089
51279749338
51279759226
51279763498
51279773752
51279780222
51279786631
51279794748
51279799204
51279806833
51279810862
51279818369
51279825937
51279831858
51279837900
51279845957
51279853708
51279859751
51279866098
51279871835
51279876718
51279883188
51279889108
51279895395
51279907053
51279913156
51279920663
51279927133
51279933298
51279939218
51279946298
51279954294
51279958749
51279966745
51279973642
51279981149
51279986764
51279992990
51279998727
51280005563
51280012765
51280018625
51280029245
51280035775
51280042917
51280050851
51280055795
51280061960
51280067880
51280075692
51280081796
51280086251
51280097238
51280104684
51280111459
51280117623
51280120309
51280129342
51280137094
51280142892
51280149423
51280157052
51280163217
51280168649
51280177316
51280183785
51280190377
51280196908
51280199654
51280208627
51280217721
51280225350
51280233041
51280239938
51280245614
51280250191
51280258797
51280265023
51280272835
51280279000
51280281747
51280292916
51280300973
51280308236
51280313485
51280322457
51280330147
51280338387
51280345711
51280352486
51280362008
51280364998
51280375618
51280382637
51280388619
51280395455
51280402779
51280409493
51280416695
51280424507
51280432320
51280439400
51280445809
51280450875
51280459664
51280463875
51280472115
51280479012
51280483894
51280495003
51280503182
51280508308
51280517220
51280520088
51280529243
51280536751
51280543526
51280550117
51280557869
51280564400
51280572456
51280579231
51280586128
51280592720
51280599373
51280607063
51280613228
51280619880
51280629158
51280636604
51280642341
51280650886
51280658394
51280665901
51280672371
51280677497
51280687690
51280691963
51280704414
51280711250
51280714180
51280725227
51280730354
51280738777
51280745490
51280753486
51280760017
51280765205
51280776008
51280781135
51280789924
51280796455
51280801643
51280811347
51280818549
51280825568
51280832526
51280839362
51280848640
51280856330
51280862678
51280869086
51280875983
51280882941
51280890204
51280897162
51280903937
51280911994
51280919623
51280925544
51280935676
51280943061
51280946051
51280958686
51280963752
51280970954
51280977790
51280987677
51280995368
51281001288
51281010627
51281015876
51281026496
51281031989
51281043219
51281048041
51281056647
51281066290
51281073493
51281080634
51281088141
51281094306
51281100897
51281105658
51281113165
51281119818
51281128241
51281135016
51281140814
51281149786
51281156927
51281166083
51281171637
51281179571
51281185980
51281194830
51281201117
51281206305
51281216620
51281223883
51281230536
51281236944
51281244452
51281251532
51281255804
51281265814
51281273138
51281280828
51281287298
51281292425
51281301092
51281307562
51281315618
51281322210
51281327398
51281338384
51281345831
51281353582
51281360296
51281367071
51281373724
51281381353
51281388067
51281394720
51281397710
51281410162
51281415594
51281423284
51281430242
51281437627
51281444707
51281449712
51281458501
51281465459
51281474004
51281483709
51281492132
51281498479
51281503484
51281512639
51281519231
51281522039
51281531682
51281538762
51281547612
51281552434
51281561834
51281568425
51281573369
51281581182
51281587468
51281594670
51281601506
51281606389
51281618779
51281624211
51281630986
51281636724
51281645207
51281650823
51281655705
51281662175
51281668279
51281677861
51281684270
51281693242
51281699284
51281704656
51281715398
51281720464
51281728276
51281735295
51281746464
51281752629
51281761357
51281768010
51281770878
51281782353
51281786931
51281793522
51281799626
51281804753
51281816716
51281822636
51281832646
51281836430
51281843937
51281850041
51281854496
51281862370
51281869084
51281876042
51281882817
51281889836
51281897648
51281902287
51281909672
51281916325
51281921452
51281927433
51281932072
51281945255
51281952519
51281959721
51281965702
51281971867
51281977848
51281982548
51281991337
51281997196
51282004704
51282013248
51282021244
51282025700
51282031986
51282039555
51282045658
51282050419
51282058903
51282062992
51282074039
51282081119
51282087345
51282093326
51282098453
51282104984
51282110904
51282113407
51282124820
51282127445
51282137699
51282145694
51282153019
51282159244
51282165165
51282171085
51282176090
51282182743
51282188785
51282196537
51282203128
51282208805
51282218082
51282225040
51282230411
51282236392
51282241336
51282250736
51282254764
51282265140
51282270023
51282278201
51282284366
51282288944
51282295596
51282302066
51282308170
51282314517
51282321475
51282328616
51282334964
51282342410
51282348209
51282356143
51282361941
51282368594
51282374087
51282379947
51282384585
51282394229
51282402408
51282408816
51282415164
51282422854
51282428775
51282433597
51282440371
51282446292
51282455264
51282461428
51282467532
51282475711
51282482791
51282490115
51282496218
51282502200
51282508425
51282513369
51282525027
51282532839
51282540469
51282546389
51282552676
51282558901
51282565371
51282571414
51282577761
51282580386
51282591128
51282599856
51282606448
51282613039
51282618594
51282624880
51282629336
51282637270
51282644350
51282654909
51282661196
51282668215
51282676638
51282683108
51282689882
51282697024
51282705568
51282712649
51282716372
51282727114
51282730471
51282740847
51282748354
51282753786
51282762209
51282765139
51282775576
51282779726
51282788820
51282795473
51282803163
51282809389
51282814150
51282822573
51282826479
51282834535
51282840700
51282845705
51282855287
51282861391
51282868593
51282874452
51282881593
51282887453
51282892091
51282900148
51282904115
51282911989
51282919984
51282926820
51282933656
51282940065
51282947267
51282953371
51282955873
51282964418
51282971498
51282979555
51282986635
51282993471
51282999330
51283006471
51283012575
51283016969
51283023561
51283029420
51283035402
51283044313
51283049623
51283058961
51283062989
51283071473
51283078431
51283084901
51283090760
51283097535
51283106996
51283114198
51283120240
51283126893
51283133302
51283139222
51283145692
51283152345
51283158692
51283165528
51283171754
51283176759
51283184815
51283190858
51283193482
51283204896
51283209351
51283216676
51283223756
51283233582
51283239991
51283244996
51283256287
51283263856
51283270020
51283278382
51283285523
51283293336
51283302186
51283308838
51283312439
51283323304
51283330689
51283336182
51283342652
51283347779
51283358155
51283363099
51283371582
51283378785
51283386597
51283392762
51283397156
51283404236
51283410828
51283418213
51283423950
51283426514
51283440796
51283446778
51283453980
51283460388
51283463684
51283473145
51283478027
51283486939
51283490906
51283500855
51283507141
51283513123
51283519531
51283526306
51283534302
51283541077
51283543945
51283552002
51283557007
51283569885
51283577209
51283584534
51283590332
51283593017
51283603576
51283608154
51283614135
51283622253
51283625488
51283635559
51283640686
51283648803
51283654602
51283662353
51283668457
51283673523
51283679992
51283685974
51283694091
51283703125
51283709716
51283716613
51283723327
51283729370
51283735351
51283742553
51283748962
51283753539
51283762756
51283769592
51283775024
51283783263
51283786010
51283794616
51283801147
51283807861
51283814147
51283819091
51283828490
51283833678
51283841125
51283847106
51283855285
51283861266
51283865966
51283873961
51283879821
51283888244
51283894164
51283901916
51283908873
51283913573
51283920592
51283926818
51283934752
51283940673
51283945433
51283955382
51283963317
51283970092
51283976073
51283983702
51283990050
51283994628
51284002623
51284008971
51284018065
51284024657
51284031066
51284037474
51284044310
51284051207
51284057372
51284063902
51284069945
51284076781
51284083617
51284090270
51284098387
51284104185
51284108885
51284117552
51284124327
51284129027
51284136900
51284139586
51284154112
51284160033
51284167357
51284173765
51284180296
51284186400
51284191221
51284199095
51284204954
51284213255
51284219542
51284228880
51284236021
51284240843
51284249510
51284258116
51284265013
51284272337
51284278990
51284285887
51284291197
51284301084
51284306089
51284315428
51284322935
51284330381
51284336607
51284339414
51284351255
51284360899
51284368406
51284372556
51284381284
51284388120
51284394102
51284405454
51284421018
51284436338
51284442747
51284451475
51284458982
51284464902
51284471067
51284478513
51284486143
51284488950
51284502805
51284508664
51284516660
51284523618
51284529477
51284535276
51284540830
51284549375
51284553830
51284563291
51284570615
51284576841
51284582761
51284590329
51284596311
51284603147
51284607541
51284615537
51284618283
51284632077
51284638669
51284645505
51284652097
51284658994
51284665219
51284670895
51284676877
51284683408
51284692197
51284696652
51284705624
51284711606
51284717221
51284723263
51284730771
51284737912
51284743893
51284746579
51284759457
51284764828
51284771664
51284777646
51284785519
51284791989
51284796872
51284804806
51284811459
51284817990
51284824521
51284832699
51284838681
51284843502
51284851071
51284857357
51284864254
51284870297
51284875302
51284888424
51284893368
51284900997
51284907162
51284911801
51284921200
51284926205
51284933651
51284939694
51284942440
51284956112
51284962216
51284968502
51284975277
51284981808
51284987911
51284992489
51285001461
51285008114
51285017452
51285024288
51285035030
51285041195
51285045895
51285054073
51285060848
51285067745
51285073543
51285081295
51285090511
51285096554
51285104305
51285111141
51285117977
51285124508
51285127987
51285137081
51285143795
51285151302
51285157894
51285160762
51285172298
51285176815
51285183834
51285190242
51285197200
51285203365
51285208003
51285219051
51285226436
51285234310
51285240291
51285247066
51285252986
51285257564
51285266536
51285270503
51285279598
51285285579
51285291743
51285301814
51285307429
51285316463
51285322993
51285330257
51285336665
51285345943
51285352473
51285359126
51285368770
51285374263
51285383113
51285391414
51285401484
51285406001
51285416072
51285422358
51285427852
51285437861
51285444697
51285450679
51285457454
51285465571
51285472407
51285476680
51285486445
51285492549
51285498957
51285504695
51285509272
51285517939
51285523860
51285531062
51285536921
51285541438
51285549799
51285557734
51285565791
51285571772
51285574397
51285583552
51285590205
51285597285
51285603083
51285605891
51285617548
51285620783
51285630732
51285639460
51285644770
51285650873
51285655634
51285663141
51285669611
51285678461
51285685785
51285693232
51285699457
51285703913
51285711237
51285717341
51285724665
51285730463
51285734980
51285745234
51285751398
51285759394
51285765619
51285771051
51285776911
51285781916
51285790583
51285796503
51285799799
51285811029
51285819635
51285826471
51285832819
51285837579
51285843500
51285848200
51285856134
51285862665
51285871515
51285878717
51285886163
51285892328
51285896783
51285904779
51285911615
51285916620
51285924799
51285927484
51285939935
51285947198
51285952936
51285958734
51285966913
51285972894
51285977899
51285984796
51285990777
51286001153
51286009576
51286012994
51286022760
51286029412
51286034600
51286042657
51286048700
51286054559
51286059137
51286069818
51286074823
51286084100
51286090081
51286092767
51286102654
51286106561
51286115045
51286122857
51286128411
51286140008
51286145867
51286153863
51286160455
51286166680
51286172418
51286179864
51286186089
51286192986
51286200188
51286207330
51286213677
51286219537
51286225518
51286231866
51286238518
51286244927
51286251153
51286257317
51286266289
51286271355
51286278802
51286284600
51286292717
51286298577
51286303338
51286310845
51286317009
51286324700
51286331536
51286336296
51286346672
51286351738
51286361016
51286369072
51286375420
51286382195
51286390618
51286397759
51286403435
51286413079
51286417961
51286426872
51286433647
51286440849
51286447929
51286452873
51286461052
51286468193
51286475700
51286481804
51286488579
51286494438
51286500969
51286507988
51286514214
51286521538
51286528068
51286533256
51286541679
51286548454
51286555351
51286561210
51286563896
51286574455
51286579155
51286587578
51286594352
51286601921
51286608696
51286613701
51286621513
51286625724
51286632805
51286638786
51286643486
51286654533
51286660087
51286665947
51286673881
51286680290
51286686454
51286691459
51286697868
51286705863
51286708976
51286721671
51286726920
51286735404
51286739555
51286746757
51286752799
51286760429
51286766715
51286774406
51286780875
51286787101
51286795341
51286800651
51286807548
51286814323
51286820426
51286823051
51286832450
51286839164
51286849113
51286855765
51286863273
51286869498
51286874076
51286882804
51286887259
51286894889
51286901297
51286906119
51286915702
51286921439
51286928702
51286935538
51286942862
51286948844
51286953666
51286960074
51286966910
51286976859
