51173336403
51173342811
51173348121
51173354530
51173360817
51173366554
51173371864
51173377052
51173384254
51173391151
51173397987
51173404335
51173411476
51173417823
51173424354
51173431800
51173437965
51173444984
51173451881
51173458106
51173465492
51173472511
51173477943
51173485938
51173490882
51173499366
51173506812
51173513892
51173519935
51173527381
51173534766
51173541969
51173550574
51173557655
51173563636
51173569495
51173576514
51173582862
51173590858
51173597877
51173604346
51173610938
51173616858
51173622962
51173632239
51173638099
51173643592
51173651099
51173658240
51173665442
51173672217
51173680518
51173688269
51173696814
51173703894
51173711829
51173718848
51173725745
51173734412
51173741187
51173746985
51173753516
51173761084
51173766638
51173774024
51173781714
51173789099
51173797278
51173802283
51173809485
51173816565
51173823096
51173830420
51173838782
51173844031
51173851904
51173857397
51173865210
51173869910
51173877783
51173884375
51173892309
51173898596
51173905798
51173911230
51173918432
51173924780
51173932043
51173939428
51173947119
51173953344
51173960486
51173966711
51173973669
51173979589
51173987280
51173993444
51174000891
51174008215
51174014624
51174020422
51174027502
51174033239
51174042150
51174047827
51174054113
51174061498
51174068945
51174075659
51174082067
51174090063
51174096655
51174104467
51174110998
51174117590
51174124059
51174131628
51174138036
51174144811
51174153051
51174158178
51174166173
51174173009
51174179174
51174186071
51174194128
51174200841
51174209508
51174215490
51174223607
51174230810
51174237157
51174244909
51174251378
51174259313
51174267858
51174273534
51174281713
51174288610
51174294835
51174302220
51174310460
51174319066
51174325109
51174331761
51174340367
51174348485
51174354466
51174362035
51174369054
51174379186
51174388463
51174393895
51174402562
51174409703
51174416539
51174425145
51174432103
51174440038
51174449376
51174456578
51174463536
51174471593
51174478429
51174485570
51174493199
51174501866
51174511754
51174518895
51174525792
51174532811
51174540623
51174547276
51174556920
51174566319
51174575535
51174582676
51174591587
51174598606
51174605442
51174612278
51174621739
51174629246
51174638279
51174646092
51174653111
51174659092
51174668430
51174673618
51174682896
51174690098
51174700108
51174706394
51174713841
51174722080
51174729527
51174736362
51174744175
51174751865
51174762546
51174770542
51174776707
51174785923
51174791477
51174799961
51174805820
51174815281
51174825351
51174834263
51174840976
51174850376
51174855930
51174865268
51174873813
51174880954
51174889865
51174899387
51174905796
51174915256
51174920688
51174930454
51174937046
51174944980
51174952548
51174960544
51174970920
51174978732
51174986301
51174992343
51174998630
51175007907
51175016391
51175024936
51175031467
51175040561
51175048984
51175054294
51175063205
51175071139
51175078281
51175087558
51175095248
51175103061
51175112338
51175118869
51175125888
51175134921
51175142062
51175148776
51175159152
51175166110
51175174105
51175181857
51175189730
51175197299
51175205294
51175212008
51175221224
51175228305
51175237582
51175247042
51175252291
51175261630
51175267428
51175279147
51175288241
51175294772
51175305392
51175309298
51175318087
51175325838
51175332858
51175340609
51175348421
51175355746
51175362826
51175370211
51175376436
51175383517
51175390536
51175398226
51175405245
51175412264
51175419039
51175426668
51175433321
51175441317
51175448397
51175456087
51175464266
51175471041
51175479708
51175486971
51175492830
51175502047
51175509737
51175517488
51175527681
51175534273
51175541841
51175546541
51175554598
51175562532
51175570589
51175580843
51175588289
51175595369
51175604707
51175611238
51175618929
51175628023
51175635530
51175644685
51175652437
51175661531
51175668733
51175675691
51175684175
51175693208
51175700960
51175708101
51175716035
51175723115
51175731843
51175739229
51175748384
51175755525
51175763581
51175771028
51175777314
51175781709
51175790193
51175796296
51175802278
51175807344
51175814118
51175819734
51175825715
51175830537
51175836518
51175841889
51175846650
51175852448
51175858918
51175863557
51175869477
51175874055
51175879975
51175884492
51175890473
51175896760
51175901154
51175908112
51175912873
51175918061
51175923981
51175929108
51175933991
51175940766
51175945771
51175950959
51175955964
51175962495
51175966462
51175972871
51175977448
51175984101
51175989472
51175994111
51176000519
51176006806
51176011872
51176017914
51176026032
51176030915
51176035737
51176040986
51176046296
51176051056
51176056733
51176062470
51176066376
51176073029
51176077912
51176082611
51176087311
51176093109
51176097687
51176103485
51176109894
51176114716
51176119416
51176124298
51176128998
51176134064
51176140106
51176145294
51176150971
51176156220
51176162079
51176165558
51176171478
51176177094
51176182526
51176187164
51176192535
51176198151
51176203033
51176208221
51176211762
51176219147
51176223724
51176228424
51176233673
51176238373
51176242767
51176248810
51176254913
51176260712
51176266205
51176272247
51176278595
51176283111
51176289581
51176294830
51176300506
51176307037
51176311065
51176318023
51176322357
51176328521
51176333526
51176339508
51176344330
51176349884
51176354705
51176360138
51176364715
51176370208
51176376007
51176379852
51176386138
51176390716
51176395355
51176401214
51176405975
51176411285
51176416046
51176420928
51176426788
51176431915
51176436248
51176441619
51176447112
51176452117
51176457855
51176461700
51176467193
51176472381
51176475860
51176482818
51176487762
51176492645
51176497466
51176503326
51176508575
51176512664
51176517425
51176522735
51176529021
51176534759
51176539764
51176544829
51176550384
51176554107
51176560149
51176563933
51176570586
51176576385
51176581084
51176585174
51176591033
51176595794
51176601653
51176607146
51176612945
51176619231
51176625152
51176629973
51176636809
51176641265
51176646819
51176653716
51176658416
51176664641
51176669646
51176675689
51176680510
51176685332
51176691436
51176697112
51176701384
51176705962
51176711272
51176715666
51176721160
51176728362
51176734038
51176738738
51176743010
51176749053
51176753386
51176757842
51176763091
51176769194
51176773650
51176779082
51176783843
51176789153
51176794341
51176799406
51176805388
51176810942
51176815703
51176820830
51176825407
51176830778
51176835478
51176841276
51176848051
51176858549
51176868498
51176874846
51176879729
51176885283
51176890837
51176897795
51176904509
51176908781
51176914580
51176920500
51176926298
51176932951
51176937895
51176942961
51176948454
51176954252
51176959867
51176967009
51176971891
51176977934
51176984098
51176987638
51176995024
51177000700
51177005888
51177011503
51177017851
51177023039
51177028837
51177034574
51177040434
51177045561
51177051725
51177056303
51177061796
51177067777
51177073148
51177078336
51177084257
51177088957
51177093534
51177100309
51177105924
51177111417
51177117521
51177123197
51177129423
51177134672
51177138456
51177146146
51177150236
51177156705
51177162931
51177168180
51177172941
51177176481
51177182706
51177188138
51177193937
51177199186
51177205167
51177209989
51177213468
51177221158
51177225919
51177231534
51177236844
51177240812
51177245939
51177250455
51177257535
51177262967
51177267850
51177273038
51177278348
51177282254
51177287442
51177295133
51177300382
51177305265
51177310880
51177315885
51177320951
51177326322
51177332974
51177338407
51177343228
51177347989
51177353482
51177357511
51177363370
51177367886
51177374844
51177379849
51177386197
51177391446
51177397000
51177403348
51177409756
51177415189
51177420193
51177425931
51177432034
51177438321
51177444607
51177449246
51177455594
51177459988
51177464932
51177470669
51177477017
51177483243
51177490262
51177495450
51177501004
51177507229
51177511929
51177517056
51177522488
51177527676
51177532864
51177539090
51177544705
51177549160
51177555447
51177561062
51177566861
51177570950
51177576199
51177583279
51177587796
51177593411
51177598233
51177603360
51177609402
51177613674
51177620816
51177625210
51177630337
51177636563
51177641262
51177646877
51177652920
51177657559
51177664089
51177668301
51177674099
51177679958
51177685696
51177691555
51177696804
51177700344
51177707546
51177712246
51177718044
51177724575
51177730251
51177736721
51177740566
51177746609
51177752834
51177759792
51177765102
51177769192
51177775356
51177780971
51177786953
51177791714
51177799160
51177803371
51177808864
51177814663
51177820095
51177826137
51177831020
51177837307
51177843471
51177847927
51177853420
51177859829
51177863552
51177869960
51177875331
51177879604
51177886684
51177892238
51177898159
51177903652
51177908351
51177915309
51177920070
51177925685
51177932338
51177937892
51177944545
51177950649
51177956813
51177963161
51177970424
51177975002
51177980800
51177985805
51177992519
51177996913
51178002528
51178008083
51178013148
51178019008
51178025355
51178030238
51178035670
51178039577
51178045009
51178052516
51178057643
51178064052
51178070033
51178074245
51178079982
51178084682
51178090541
51178097316
51178103053
51178107997
51178113612
51178119594
51178124904
51178130641
51178134730
51178140223
51178147242
51178152064
51178158290
51178163234
51178169703
51178174220
51178180140
51178185511
51178191737
51178195765
51178202174
51178207850
51178215296
51178220118
51178225367
51178232081
51178238001
51178243373
51178248133
51178254420
51178259730
51178265894
51178271571
51178276576
51178282374
51178288355
51178293787
51178298243
51178303980
51178310084
51178315394
51178321192
51178326807
51178332423
51178338160
51178343043
51178348414
51178354151
51178359156
51178364344
51178370142
51178375147
51178381373
51178386316
51178391871
51178397730
51178402125
51178408289
51178414209
51178417750
51178424769
51178429712
51178435450
51178440699
51178444727
51178452112
51178456629
51178463343
51178468653
51178472925
51178478540
51178484949
51178489588
51178495203
51178499414
51178505213
51178511927
51178516077
51178521997
51178527551
51178532678
51178538782
51178543421
51178549158
51178555383
51178560510
51178566187
51178571008
51178575342
51178582605
51178588953
51178594934
51178599329
51178604822
51178609949
51178615381
51178620935
51178627710
51178632165
51178637842
51178643213
51178648523
51178654809
51178660119
51178665857
51178672021
51178676599
51178682641
51178687219
51178692529
51178699853
51178704309
51178710534
51178716455
51178721582
51178725915
51178730920
51178736596
51178742151
51178747339
51178753320
51178757959
51178765771
51178770898
51178774438
51178781152
51178786706
51178791772
51178796899
51178801660
51178807946
51178813623
51178818688
51178823693
51178828027
51178835778
51178840905
51178846337
51178850854
51178856957
51178862389
51178868127
51178873193
51178879418
51178883324
51178888879
51178894250
51178900109
51178906152
51178910790
51178915917
51178921716
51178926232
51178931969
51178937829
51178941613
51178947716
51178952782
51178958275
51178964623
51178969323
51178974755
51178979333
51178984459
51178989586
51178995934
51179001183
51179006005
51179009728
51179017113
51179023156
51179027550
51179033593
51179038414
51179044518
51179051659
51179057152
51179061791
51179068016
51179072716
51179078759
51179084862
51179090538
51179095543
51179100609
51179107018
51179110985
51179116539
51179124535
51179129479
51179135155
51179139916
51179144493
51179151146
51179157311
51179162377
51179167503
51179172203
51179177940
51179184105
51179187645
51179196068
51179201683
51179207054
51179210838
51179216392
51179222130
51179226402
51179234276
51179238060
51179243919
51179248436
51179254051
51179258018
51179263328
51179270531
51179275474
51179280235
51179285606
51179290916
51179295250
51179300804
51179306968
51179312767
51179318199
51179323753
51179329002
51179334556
51179338768
51179344688
51179349388
51179354576
51179360435
51179364769
51179369102
51179373863
51179381187
51179385215
51179390403
51179395286
51179401023
51179407188
51179411521
51179417259
51179422508
51179428001
51179432395
51179437278
51179443076
51179447776
51179453636
51179459190
51179466209
51179472190
51179478233
51179483543
51179489036
51179494407
51179499900
51179505820
51179511375
51179516502
51179522117
51179527793
51179534507
51179539817
51179544883
51179551230
51179556785
51179561790
51179566916
51179573630
51179577781
51179583335
51179588828
51179595725
51179601645
51179606345
51179611350
51179617515
51179621970
51179627646
51179632407
51179638877
51179644614
51179649802
51179655417
51179661277
51179667319
51179673239
51179679465
51179684470
51179690146
51179697043
51179701255
51179707846
51179713278
51179717429
51179725241
51179731406
51179737631
51179742758
51179748129
51179754172
51179760031
51179765830
51179771323
51179776267
51179782065
51179788474
51179792624
51179800375
51179805380
51179810263
51179816550
51179820822
51179826620
51179833578
51179838095
51179844015
51179849814
51179855734
51179860556
51179865744
51179871115
51179876242
51179881552
51179887594
51179892111
51179897604
51179903647
51179908346
51179914084
51179919821
51179924948
51179930502
51179933981
51179941061
51179946493
51179952902
51179957724
51179962667
51179968222
51179972799
51179977987
51179983663
51179990011
51179995321
51180000387
51180003866
51180010641
51180015646
51180021444
51180027242
51180030782
51180036764
51180041281
51180047384
51180052999
51180059164
51180064718
51180069723
51180073568
51180079855
51180085897
51180092001
51180096090
51180103597
51180109701
51180114645
51180120199
51180126791
51180131856
51180137411
51180142721
51180148336
51180154134
51180157979
51180163412
51180170675
51180175496
51180180929
51180186788
51180191121
51180197164
51180203145
51180208333
51180214376
51180218587
51180223775
51180229573
51180235250
51180241597
51180246236
51180252889
51180257283
51180262288
51180267903
51180273458
51180280171
51180284627
51180289937
51180295125
51180300740
51180306356
51180312154
51180317525
51180322774
51180328816
51180333394
51180339436
51180346028
51180350240
51180355916
51180361348
51180367085
51180373250
51180378743
51180384908
51180390645
51180394673
51180400227
51180407429
51180411824
51180417683
51180423543
51180430257
51180436909
51180442097
51180447224
51180453450
51180458211
51180463765
51180469380
51180473225
51180479878
51180485676
51180490010
51180496663
51180500569
51180506306
51180513142
51180519185
51180524922
51180529805
51180536152
51180540791
51180546894
51180552937
51180558430
51180563801
51180569661
51180575520
51180581379
51180587910
51180593220
51180597553
51180604084
51180609394
51180615071
51180620991
51180627461
51180632160
51180637348
51180643086
51180649372
51180654011
51180660236
51180664448
51180670551
51180675495
51180679585
51180686604
51180692585
51180697712
51180704304
51180708454
51180714008
51180720112
51180724995
51180730549
51180736713
51180742573
51180748249
51180752704
51180758137
51180763569
51180769611
51180774372
51180778950
51180784565
51180790363
51180796406
51180802326
51180807636
51180813373
51180818439
51180823444
51180829548
51180834369
51180839923
51180846271
51180850666
51180856464
51180861835
51180867450
51180873493
51180878498
51180884723
51180889728
51180894611
51180899860
51180904804
51180909992
51180916034
51180921649
51180925861
51180932636
51180938495
51180943561
51180948810
51180954303
51180959796
51180965961
51180969928
51180977130
51180982074
51180987811
51180991901
51180997089
51181003314
51181009479
51181015460
51181019794
51181025348
51181030780
51181034198
51181040240
51181045001
51181051105
51181057025
51181061664
51181066241
51181070148
51181077167
51181082477
51181088397
51181092486
51181098102
51181103473
51181106952
51181113055
51181117267
51181123797
51181128070
51181133685
51181138507
51181144000
51181149615
51181154071
51181160296
51181167437
51181172259
51181177142
51181182330
51181186785
51181192523
51181198443
51181203265
51181210162
51181216876
51181221636
51181227618
51181232867
51181237933
51181244891
51181251605
51181257952
51181263018
51181268816
51181274554
51181280657
51181285113
51181291277
51181296893
51181302996
51181307330
51181313677
51181319475
51181323748
51181329058
51181334734
51181340838
51181346697
51181352007
51181357866
51181362566
51181366900
51181374224
51181378740
51181384722
51181389727
51181395403
51181401568
51181406084
51181412066
51181417498
51181421648
51181426714
51181432268
51181436113
51181442705
51181448137
51181453264
51181459856
51181464861
51181470720
51181478105
51181483599
51181489946
51181496538
51181500871
51181506609
51181512712
51181518572
51181524370
51181529192
51181535356
51181539995
51181545854
51181551836
51181557329
51181563371
51181567705
51181572893
51181578935
51181582353
51181590166
51181595964
51181600420
51181606035
51181610002
51181615556
51181619035
51181626482
51181631975
51181637468
51181642106
51181646806
51181652788
51181658708
51181664567
51181668413
51181674089
51181679033
51181684282
51181690019
51181694413
51181700090
51181705644
51181711442
51181717119
51181720536
51181726213
51181731096
51181737016
51181743119
51181748185
51181753190
51181756669
51181762773
51181768388
51181772966
51181779313
51181784989
51181789933
51181794877
51181800309
51181804582
51181810197
51181816361
51181820390
51181826859
51181830583
51181835587
51181841142
51181847855
51181853471
51181859208
51181864335
51181869157
51181875443
51181880143
51181885209
51181890519
51181896683
51181902299
51181908036
51181913956
51181919999
51181925126
51181930497
51181936845
51181942460
51181946122
51181953263
51181957718
51181963639
51181969376
51181973038
51181980240
51181986771
51181991776
51181997818
51182002335
51182008439
51182014664
51182018631
51182025711
51182030289
51182035599
51182042008
51182045975
51182052140
51182059525
51182065628
51182070755
51182077286
51182080887
51182086930
51182093704
51182099076
51182104691
51182109207
51182115128
51182119644
51182125565
51182131241
51182136490
51182142593
51182148453
51182153702
51182159378
51182164261
51182170670
51182175980
51182181961
51182187698
51182193497
51182199234
51182204239
51182208939
51182214554
51182220108
51182224930
51182229141
51182235489
51182240616
51182245987
51182251968
51182257095
51182261246
51182267227
51182271438
51182277786
51182283462
51182289077
51182292740
51182298294
51182304397
51182308975
51182314590
51182320205
51182325271
51182330520
51182334060
51182340042
51182344619
51182350235
51182356948
51182360549
51182366348
51182371963
51182376419
51182381057
51182386672
51182392410
51182397720
51182401016
51182406204
51182412307
51182417983
51182422378
51182427627
51182432937
51182438491
51182442642
51182449477
51182455276
51182460891
51182466079
51182471816
51182478225
51182484084
51182489272
51182495742
51182501662
51182505752
51182510696
51182516067
51182522658
51182527785
51182533706
51182540420
51182544814
51182551223
51182557631
51182563308
51182568007
51182573867
51182579604
51182584304
51182589797
51182595046
51182602187
51182607314
51182612929
51182618056
51182623183
51182629653
51182632155
51182641005
51182646987
51182652785
51182659072
51182664077
51182669936
51182677016
51182679946
51182686904
51182693251
51182697951
51182704787
51182710524
51182716445
51182722182
51182727797
51182733595
51182738783
51182744093
51182750624
51182756484
51182761671
51182766982
51182772170
51182776808
51182783034
51182786879
51182793715
51182798964
51182804762
51182809340
51182815077
51182821059
51182825941
51182832716
51182837355
51182843336
51182849318
51182854689
51182858290
51182865187
51182869826
51182875013
51182881361
51182886000
51182893629
51182897413
51182903151
51182909254
51182914320
51182920057
51182925428
51182930006
51182937086
51182941725
51182947523
51182953199
51182957716
51182964003
51182969435
51182973829
51182980116
51182985914
51182991896
51182997633
51183001966
51183007337
51183013197
51183017652
51183022291
51183027540
51183033704
51183037977
51183043775
51183049268
51183054517
51183060011
51183067579
51183072706
51183078626
51183083692
51183088392
51183093275
51183099134
51183104932
51183111341
51183115919
51183120801
51183125989
51183131849
51183137769
51183144239
51183149305
51183154249
51183158582
51183163831
51183169141
51183174451
51183179944
51183184766
51183189222
51183194532
51183199842
51183204908
51183210523
51183217115
51183222303
51183225904
51183231092
51183237195
51183242078
51183247571
51183252942
51183256604
51183262952
51183267102
51183272473
51183279065
51183283399
51183289563
51183293714
51183299146
51183304334
51183308850
51183315076
51183320752
51183325269
51183330029
51183335950
51183340955
51183346082
51183352734
51183358472
51183363965
51183368176
51183374280
51183379834
51183385999
51183390576
51183395886
51183400830
51183406201
51183411145
51183416821
51183421338
51183427075
51183433972
51183440320
51183445935
51183451550
51183455884
51183462109
51183467663
51183473767
51183478344
51183484082
51183489514
51183494885
51183500195
51183506298
51183511792
51183515210
51183522168
51183527600
51183532055
51183538220
51183545300
51183550671
51183554516
51183559765
51183566967
51183571057
51183576733
51183581799
51183586926
51183593395
51183598461
51183604565
51183610180
51183614880
51183620617
51183625317
51183631054
51183635998
51183642284
51183647045
51183652844
51183658703
51183663708
51183668896
51183674938
51183679089
51183685741
51183690258
51183696423
51183702099
51183707653
51183713207
51183719250
51183724010
51183730236
51183734997
51183741039
51183746715
51183752514
51183757580
51183763195
51183766979
51183773266
51183780346
51183784557
51183791576
51183796215
51183801464
51183807079
51183811779
51183817272
51183823436
51183829662
51183834423
51183840404
51183844249
51183851146
51183855114
51183860668
51183866893
51183871837
51183877941
51183883312
51183888439
51183895214
51183899608
51183906200
51183910228
51183915843
51183921886
51183927379
51183932811
51183938487
51183943675
51183949352
51183955333
51183961253
51183967662
51183972728
51183977977
51183983287
51183988902
51183996043
51184001048
51184006236
51184011424
51184015636
51184021922
51184029429
51184034129
51184039989
51184045299
51184050975
51184056346
51184061961
51184067454
51184071971
51184077464
51184083873
51184088633
51184094188
51184101024
51184107188
51184112681
51184118907
51184125438
51184131053
51184138133
51184141856
51184148265
51184153819
51184159495
51184164317
51184168711
51184174632
51184180674
51184185862
51184190684
51184195323
51184201670
51184208750
51184213816
51184219737
51184223643
51184229563
51184235850
51184240916
51184246470
51184253062
51184257945
51184262888
51184268626
51184274180
51184279429
51184284922
51184289805
51184296397
51184300913
51184307322
51184313242
51184318491
51184324106
51184329355
51184334788
51184339060
51184345041
51184350168
51184356394
51184361643
51184366587
51184371409
51184376658
51184381418
51184386667
51184393198
51184399729
51184404245
51184408701
51184414988
51184418955
51184425119
51184430796
51184436228
51184441416
51184447336
51184452158
51184459055
51184464365
51184469370
51184476023
51184480783
51184486093
51184490671
51184496897
51184502451
51184508249
51184512338
51184517160
51184522470
51184529306
51184535288
51184539743
51184545602
51184549692
51184556162
51184560007
51184565622
51184571603
51184577035
51184581857
51184586435
51184591135
51184596506
51184602243
51184607431
51184613107
51184617685
51184622385
51184627756
51184633005
51184638376
51184643625
51184649118
51184654733
51184659372
51184664316
51184668954
51184674569
51184679635
51184684823
51184690744
51184695443
51184699777
51184705575
51184711068
51184715158
51184720651
51184725778
51184730844
51184735238
51184740548
51184746163
51184751779
51184756906
51184761666
51184766732
51184771859
51184775521
51184782357
51184787362
51184793832
51184798165
51184803658
51184809274
51184815926
51184821420
51184826974
51184832650
51184836739
51184843331
51184849862
51184855355
51184860787
51184866891
51184871590
51184876473
51184881661
51184886971
51184892709
51184898141
51184902901
51184908333
51184914010
51184918160
51184924142
51184929513
51184934701
51184940133
51184945687
51184950203
51184955514
51184962472
51184966866
51184972909
51184978158
51184984993
51184990426
51184996041
51185000618
51185006478
51185012581
51185018807
51185023690
51185029244
51185035042
51185041756
51185047371
51185052742
51185056282
51185064705
51185068672
51185075020
51185080879
51185086617
51185090706
51185098274
51185102791
51185108650
51185113228
51185118965
51185125252
51185130928
51185136543
51185141609
51185146980
51185152596
51185157173
51185163399
51185170601
51185176216
51185182136
51185187263
51185193001
51185198799
51185202034
51185209053
51185213875
51185221260
51185225838
51185230049
51185235725
51185241707
51185246895
51185251961
51185258064
51185262153
51185269111
51185273628
51185279365
51185284248
51185290291
51185296089
51185301399
51185306099
51185313545
51185318184
51185324348
51185329963
51185335945
51185341316
51185347297
51185353340
51185358772
51185363471
51185369575
51185374946
51185379463
51185385383
51185391059
51185396003
51185401924
51185407539
51185412177
51185417426
51185424384
51185429694
51185435066
51185439643
51185444709
51185450446
51185456550
51185461250
51185467292
51185473090
51185478339
51185485358
51185491035
51185497565
51185501899
51185507453
51185513190
51185518622
51185522285
51185530280
51185535041
51185540595
51185545539
51185549384
51185555854
51185559272
51185566169
51185570990
51185577094
51185581611
51185586615
51185591315
51185597663
51185602912
51185609137
51185614264
51185620307
51185623786
51185630805
51185636237
51185641974
51185648749
51185653632
51185658698
51185662543
51185668036
51185673651
51185678961
51185685004
51185689765
51185694830
51185700385
51185705939
51185710516
51185715643
51185721442
51185725287
51185730719
51185734808
51185739935
51185746039
51185749823
51185755682
51185759100
51185766486
51185770880
51185776312
51185781439
51185786627
51185789862
51185796332
51185802252
51185806891
51185812628
51185818182
51185823492
51185829046
51185834662
51185841009
51185846502
51185852301
51185857611
51185862921
51185870062
51185875311
51185880072
51185885504
51185890448
51185896612
51185902166
51185906927
51185912237
51185916815
51185922125
51185926275
51185931646
51185938604
51185943426
51185948065
51185953070
51185958685
51185963384
51185968145
51185973333
51185979559
51185984564
51185990301
51185997503
51186002386
51186008611
51186014288
51186019964
51186024786
51186030767
51186035955
51186041753
51186047063
51186052862
51186058294
51186062261
51186069158
51186073675
51186078191
51186082647
51186088445
51186092840
51186099004
51186104558
51186108709
51186113958
51186119268
51186124517
51186128362
51186135503
51186139654
51186145940
51186151128
51186155828
51186161138
51186165838
51186170598
51186176519
51186181707
51186186101
51186190923
51186196477
51186200933
51186206243
51186211980
51186217656
51186222234
51186226323
51186231633
51186237371
51186242253
51186246282
51186253179
51186257817
51186263677
51186268254
51186273625
51186278142
51186283696
51186290044
51186293889
51186299993
51186303777
51186310002
51186313664
51186320073
51186325200
51186329961
51186335576
51186340276
51186346196
51186350346
51186354497
51186360295
51186366215
51186372075
51186378911
51186383427
51186390080
51186395451
51186401494
51186406621
51186413640
51186418156
51186423649
51186428410
51186433354
51186439274
51186444462
51186450078
51186455815
51186461979
51186468083
51186473149
51186479374
51186484562
51186490361
51186495243
51186501225
51186505070
51186510991
51186515751
51186521672
51186527043
51186532109
51186538029
51186542973
51186547734
51186551396
51186557804
51186563236
51186569340
51186574833
51186580387
51186584782
51186590336
51186594669
51186600346
51186606022
51186610294
51186616703
51186620976
51186626713
51186631229
51186635929
51186640385
51186647770
51186652287
51186657597
51186661320
51186666813
51186671696
51186677372
51186683781
51186688663
51186693241
51186698978
51186703556
51186709110
51186713444
51186719181
51186724979
51186729252
51186734501
51186739750
51186744755
51186749698
51186755008
51186760502
51186766117
51186770755
51186775577
51186781498
51186785831
51186791752
51186797184
51186803104
51186808048
51186813724
51186820255
51186825931
51186831974
51186836734
51186844059
51186849063
51186855106
51186859928
51186864810
51186870853
51186875186
51186880191
51186886051
51186891727
51186895938
51186901248
51186906314
51186911746
51186916934
51186922733
51186927371
51186932864
51186937564
51186941898
51186947757
51186953494
51186959109
51186963565
51186969730
51186975833
51186981387
51186987674
51186993106
51186998904
51187003604
51187009402
51187013125
51187020206
51187025516
51187031314
51187037723
51187042300
51187048160
51187052310
51187058169
51187062747
51187068240
51187074588
51187078677
51187084658
51187089724
51187094180
51187099429
51187104251
51187109988
51187116275
51187120730
51187126590
51187131350
51187135745
51187141299
51187146609
51187151065
51187156619
51187161868
51187167849
51187172915
51187177737
51187182437
51187189028
51187194583
51187198550
51187205019
51187210574
51187214236
51187220095
51187225954
51187230776
51187236819
51187241396
51187247073
51187252383
51187255923
51187261477
51187268191
51187273745
51187278506
51187283022
51187287722
51187293703
51187298464
51187303042
51187308962
51187314882
51187319155
51187324587
51187330080
51187334414
51187339907
51187345339
51187350832
51187355410
51187360415
51187364992
51187370607
51187375307
51187380251
51187386416
51187389833
51187395693
51187401247
51187405581
51187409975
51187415529
51187421755
51187427126
51187432070
51187437380
51187442140
51187447206
51187451845
51187457704
51187463442
51187469362
51187473024
51187479128
51187484194
51187488710
51187494447
51187499269
51187505190
51187509950
51187514833
51187519472
51187524355
51187530275
51187535646
51187541200
51187547304
51187551149
51187558412
51187563661
51187570009
51187575807
51187581789
51187586061
51187592042
51187597475
51187603334
51187607728
51187613527
51187619081
51187624513
51187629091
51187634157
51187638612
51187642213
51187648988
51187654786
51187659547
51187664064
51187669862
51187674440
51187680299
51187684510
51187689820
51187695314
51187699891
51187706056
51187709718
51187715394
51187718934
51187726136
51187731568
51187737672
51187742066
51187746766
51187752564
51187756959
51187762696
51187766969
51187772462
51187778382
51187783387
51187788270
51187792420
51187797913
51187803529
51187808900
51187813844
51187819215
51187824952
51187829408
51187833924
51187838685
51187844544
51187848634
51187854737
51187859620
51187864930
51187869019
51187874390
51187878907
51187884522
51187891358
51187896851
51187901551
51187905640
51187911439
51187916688
51187920838
51187926087
51187931824
51187937745
51187944397
51187949463
51187955140
51187960022
51187966553
51187971253
51187976380
51187982117
51187987061
51187992737
51187997437
51188003357
51188010132
51188013977
51188019287
51188025086
51188029602
51188034912
51188039429
51188044251
51188050720
51188056214
51188062073
51188066895
51188072266
51188077576
51188082703
51188088196
51188093506
51188099365
51188103455
51188109192
51188112732
51188118591
51188123108
51188129272
51188134094
51188139587
51188143921
51188149353
51188153992
51188159668
51188166443
51188171265
51188175903
51188181396
51188187317
51188191223
51188196899
51188200561
51188207641
51188212280
51188217773
51188221924
51188227478
51188231933
51188237365
51188243652
51188249023
51188253967
51188259033
51188263672
51188268615
51188274292
51188279174
51188284912
51188289795
51188295227
51188300415
51188305297
51188310669
51188314392
51188320556
51188326171
51188330749
51188335021
51188340881
51188344787
51188351440
51188356201
51188361755
51188367736
51188371459
51188376953
51188381957
51188386901
51188391906
51188397888
51188402221
51188408202
51188412414
51188418151
51188422118
51188428039
51188434203
51188438781
51188445007
51188450866
51188456786
51188461974
51188468322
51188473266
51188479064
51188484984
51188490050
51188494628
51188499938
51188504455
51188510924
51188517028
51188521667
51188526916
51188531554
51188537108
51188540832
51188546142
51188552001
51188557494
51188562133
51188567626
51188572142
51188576964
51188582824
51188587462
51188593749
51188597838
51188603514
51188608031
51188613463
51188618224
51188623656
51188630431
51188634459
51188640074
51188646178
51188651122
51188655944
51188661864
51188668028
51188672728
51188678771
51188684203
51188690123
51188694579
51188700499
51188705199
51188712401
51188716063
51188721373
51188727232
51188732787
51188737242
51188741331
51188748717
51188753783
51188759520
51188764036
51188769286
51188773924
51188779234
51188784178
51188790037
51188794188
51188799498
51188804442
51188809569
51188815245
51188819578
51188825804
51188829832
51188835631
51188841063
51188845335
51188849669
51188855589
51188861937
51188866026
51188871397
51188877317
51188882078
51188887815
51188892576
51188897520
51188903440
51188907957
51188913877
51188918333
51188923582
51188928282
51188933836
51188939878
51188945677
51188950193
51188955076
51188960935
51188963499
51188970823
51188976438
51188981992
51188987241
51188991636
51188996580
51189001768
51189006468
51189012022
51189018430
51189022337
51189028013
51189033018
51189037778
51189042356
51189048154
51189053220
51189059202
51189063962
51189069517
51189074827
51189080198
51189084043
51189089658
51189095518
51189101316
51189106016
51189111265
51189115903
51189121091
51189125974
51189131284
51189138791
51189142759
51189148191
51189155393
51189160825
51189165891
51189172727
51189178464
51189182492
51189187803
51189194638
51189199765
51189204343
51189210141
51189215940
51189220395
51189226438
51189233335
51189238095
51189244443
51189249265
51189255734
51189260068
51189266538
51189270444
51189276608
51189281613
51189287167
51189292966
51189298703
51189303342
51189308225
51189312802
51189318112
51189322812
51189329160
51189333981
51189338986
51189344968
51189349118
51189354916
51189359799
51189365292
51189370053
51189375912
51189379574
51189385190
51189390866
51189396298
51189400693
51189404538
51189412045
51189416379
51189422116
51189426205
51189431943
51189436764
51189441037
51189446652
51189451962
51189457455
51189463498
51189469418
51189473751
51189479123
51189485104
51189489071
51189495663
51189500790
51189505551
51189510922
51189515621
51189520382
51189526181
51189531063
51189536373
51189542660
51189546200
51189552853
51189557491
51189563168
51189567745
51189573116
51189578854
51189583614
51189588436
51189592159
51189599362
51189603268
51189608578
51189613522
51189619381
51189623531
51189629330
51189633663
51189639462
51189643429
51189649227
51189653194
51189658993
51189663692
51189669125
51189674435
51189679989
51189683956
51189689449
51189693844
51189699154
51189704037
51189709163
51189715023
51189720638
51189725277
51189729915
51189735775
51189739681
51189745479
51189750972
51189756221
51189760982
51189766292
51189771297
51189776302
51189779964
51189785457
51189790828
51189794490
51189800289
51189805904
51189810665
51189816158
51189822444
51189827816
51189833675
51189837764
51189843379
51189848934
51189854366
51189859737
51189863460
51189870479
51189875789
51189880306
51189884578
51189890376
51189894832
51189900691
51189905635
51189911556
51189917720
51189923030
51189929378
51189934077
51189940425
51189945979
51189951228
51189957027
51189960628
51189967280
51189972102
51189976802
51189982051
51189988032
51189992976
51189998286
51190002742
51190008235
51190014400
51190018367
51190025508
51190030208
51190046260
51190050471
51190056270
51190061152
51190066829
51190072322
51190078242
51190084407
51190090510
51190095149
51190100703
51190106257
51190110774
51190116511
51190122370
51190127497
51190132136
51190135737
51190143427
51190148005
51190153926
51190158076
51190163996
51190167964
51190173823
51190179804
51190185481
51190190974
51190197260
51190202021
51190207026
51190212824
51190218317
51190224116
51190229914
51190234919
51190239863
51190244257
51190247736
51190250849
51190255976
51190259272
51190263239
51190266718
51190270624
51190274103
51190277949
51190282892
51190287287
51190290888
51190294733
51190297907
51190301264
51190304682
51190309015
51190312861
51190317194
51190321283
51190325129
51190329035
51190333796
51190338007
51190342402
51190347651
51190350763
51190355402
51190358881
51190362360
51190365351
51190370905
51190374262
51190378962
51190382441
51190386591
51190390497
51190393671
51190397638
51190402338
51190406427
51190410211
51190414240
51190417047
51190421991
51190424860
51190430170
51190434381
51190438532
51190442255
51190446710
51190449213
51190453729
51190457758
51190462030
51190465997
51190470575
51190473566
51190477838
51190480890
51190485040
51190489862
51190494501
51190498407
51190501154
51190505670
51190509515
51190513116
51190517450
51190522089
51190525507
51190530756
51190534174
51190538873
51190542657
51190545892
51190551813
51190556573
51190560480
51190564447
51190568292
51190572687
51190576959
51190580438
51190586053
51190588861
51190593988
51190597345
51190600885
51190606012
51190610162
51190614923
51190620721
51190624994
51190629327
51190634637
51190638971
51190643182
51190646844
51190651361
51190656915
51190660943
51190665887
51190670221
51190675103
51190679315
51190683221
51190687677
51190694268
51190698846
51190702447
51190708490
51190713189
51190718255
51190722711
51190727410
51190730035
51190740716
51190746514
51190752130
51190756402
51190760369
51190765679
51190770623
51190775750
51190779900
51190786492
51190789056
51190795281
51190799615
51190805108
51190809258
51190818536
51190823968
51190827447
51190831658
51190836175
51190840874
51190845269
51190850030
51190856255
51190860589
51190865838
51190869378
51190874749
51190878960
51190884637
51190890435
51190896477
51190900139
51190904717
51190909600
51190914239
51190918755
51190923089
51190925896
51190932610
51190936821
51190943352
51190946953
51190951287
51190954827
51190960686
51190964714
51190970269
51190975212
51190979973
51190984490
51190988518
51190992852
51190998101
51191003777
51191007683
51191013970
51191018730
51191023979
51191028435
51191033013
51191038262
51191042656
51191047905
51191053032
51191057854
51191062004
51191066582
51191071343
51191077385
51191082390
51191086357
51191090019
51191094414
51191100456
51191104424
51191108330
51191114128
51191117973
51191123650
51191128838
51191134514
51191139336
51191143974
51191149834
51191155632
51191159538
51191165337
51191169670
51191175102
51191179802
51191186088
51191191032
51191195488
51191201347
51191204338
51191209709
51191212883
51191218620
51191224724
51191230278
51191234550
51191240287
51191245353
51191249260
51191256401
51191259697
51191266960
51191272697
51191278129
51191282524
51191286613
51191292533
51191298637
51191304496
51191309074
51191314567
51191320365
51191325431
51191331352
51191338127
51191342155
51191346671
51191351676
51191357292
51191361320
51191367118
51191373771
51191379203
51191385612
51191389579
51191395072
51191399284
51191403739
51191409843
51191415702
51191419242
51191424491
51191429557
51191433829
51191437675
51191442069
51191448600
51191454703
51191458671
51191463554
51191467826
51191472526
51191474906
51191482535
51191487479
51191493888
51191497855
51191504508
51191513114
51191517142
51191524833
51191528861
51191538260
51191545157
51191550101
51191556693
51191563041
51191570243
51191574088
51191580558
51191587271
51191593192
51191601554
51191609305
51191614676
51191620474
51191627677
51191634207
51191640006
51191645804
51191651724
51191660758
51191667044
51191673880
51191678702
51191685294
51191692496
51191698294
51191705069
51191710074
51191718863
51191728506
51191736075
51191741934
51191748038
51191755850
51191760855
51191767996
51191773611
51191779837
51191788748
51191796499
51191802969
51191808462
51191814383
51191820120
51191826956
51191833548
51191841299
51191845388
51191854422
51191861746
51191867971
51191875051
51191881704
51191887136
51191893423
51191899038
51191905874
51191915884
51191921621
51191928518
51191933645
51191942495
51191948782
51191953604
51191957388
51191967275
51191972891
51191979421
51191987417
51191992544
51192000356
51192006216
51192010793
51192017934
51192024831
51192030263
51192036550
51192045766
51192052053
51192057485
51192064870
51192071828
51192077688
51192083486
51192088613
51192096059
51192100088
51192110158
51192117971
51192123464
51192130239
51192135183
51192142934
51192146840
51192154348
51192161306
51192169179
51192176870
51192183644
51192189016
51192194875
51192203847
51192210378
51192215810
51192221852
51192227529
51192236318
51192243398
51192250905
51192255971
51192263234
51192268666
51192274770
51192280507
51192287953
51192292165
51192301747
51192309987
51192315968
51192322255
51192328725
51192333546
51192340260
51192344716
51192353383
51192361378
51192369435
51192374623
51192380238
51192386159
51192393422
51192400075
51192405690
51192411366
51192417286
51192424122
51192434254
51192440175
51192445424
51192451710
51192459156
51192465443
51192470326
51192477101
51192481800
51192492359
51192499989
51192504872
51192511830
51192517201
51192524708
51192528858
51192534352
51192542957
51192550953
51192556873
51192565235
51192571095
51192576771
51192581898
51192588917
51192594288
51192601673
51192608204
51192616993
51192624927
51192629932
51192637745
51192642078
51192651050
51192657032
51192661243
51192668751
51192677540
51192683216
51192689808
51192697315
51192703907
51192708423
51192716114
51192722217
51192726795
51192733997
51192744495
51192751880
51192757862
51192765491
51192769886
51192780139
51192786914
51192792896
51192802295
51192809070
51192817066
51192823535
51192828845
51192834644
51192841419
51192848194
51192853504
51192859180
51192865039
51192875232
51192882556
51192889392
51192894092
51192900195
51192905322
51192913806
51192917834
51192925464
51192929187
51192938220
51192947742
51192953784
51192960620
51192967151
51192972400
51192978259
51192984363
51192990893
51192996203
51193004260
51193011706
51193016650
51193023669
51193028674
51193036120
51193043017
51193047656
51193054614
51193062121
51193069445
51193076709
51193082080
51193087878
51193093432
51193100146
51193106677
51193112414
51193118151
51193125720
51193133044
51193139941
51193146777
51193153491
51193159228
51193165331
51193169299
51193176867
51193180590
51193190844
51193197314
51193205065
51193210863
51193215258
51193222704
51193228625
51193234484
51193241320
51193248400
51193255785
51193263354
51193269152
51193274950
51193280932
51193287584
51193291735
51193301623
51193305529
51193313280
51193321642
51193328905
51193334154
51193338244
51193346117
51193354967
51193358446
51193365953
51193369860
51193380663
51193387865
51193394640
51193401354
51193406359
51193413866
51193417833
51193423937
51193430589
51193438280
51193445726
51193453295
51193459642
51193465379
51193470384
51193477525
51193484117
51193489916
51193496263
51193508043
51193514330
51193520128
51193527757
51193531786
51193539842
51193545946
51193552659
51193559495
51193565843
51193573778
51193578172
51193585130
51193593736
51193598985
51193604783
51193610521
51193616197
51193623399
51193630845
51193640184
51193647691
51193654100
51193659898
51193666856
51193673936
51193680101
51193685594
51193691636
51193699327
51193707078
51193709092
51193719834
51193726060
51193730882
51193737596
51193743516
51193751145
51193754868
51193765855
51193774339
51193779282
51193786240
51193788255
51193798875
51193802964
51193811448
51193818040
51193826279
51193835007
51193839524
51193848618
51193854478
51193859299
51193866746
51193873765
51193879197
51193885117
51193892075
51193902085
51193907944
51193913193
51193919968
51193925522
51193931443
51193937302
51193944565
51193948716
51193959702
51193966477
51193972336
51193979782
51193986191
51193991806
51193997910
51194004502
51194011399
51194017685
51194025925
51194033249
51194040085
51194046860
51194054733
51194061386
51194068588
51194076157
51194078659
51194090439
51194097946
51194103256
51194108932
51194115524
51194122055
51194127548
51194133774
51194139450
51194147201
51194154465
51194159958
51194167404
51194171371
51194177719
51194186691
51194192367
51194199142
51194205185
51194213180
51194220504
51194226364
51194232223
51194238937
51194243942
51194249923
51194255722
51194262436
51194269455
51194280258
51194284164
51194291976
51194298873
51194303756
51194310409
51194316146
51194323471
51194328109
51194335922
51194342880
51194350326
51194356918
51194361800
51194369369
51194375106
51194380721
51194387313
51194394271
51194403121
51194411727
51194417342
51194423934
51194432784
51194438949
51194446822
51194454513
51194457198
51194467574
51194472762
51194483077
51194489669
51194495406
51194503524
51194507857
51194516646
51194523238
51194525740
51194539534
51194546492
51194552047
51194558150
51194562911
51194571700
51194577376
51194582686
51194588729
51194596114
51194605513
51194611434
51194616683
51194623458
51194628829
51194636702
51194641219
51194648177
51194652754
51194663252
51194671126
51194676070
51194683028
51194688033
51194695723
51194699690
51194706221
51194713179
51194725508
51194731856
51194736250
51194745833
51194751997
51194757246
51194763960
51194769819
51194775252
51194782454
51194790327
51194800459
51194806868
51194812056
51194819197
51194824690
51194831038
51194836409
51194844221
51194848738
51194859053
51194865950
51194872602
51194879194
51194885054
51194892805
51194899519
51194904951
51194910993
51194918623
51194926435
51194932661
51194938093
51194945234
51194950849
51194957441
51194963911
51194969709
51194975385
51194984785
51194990888
51194997114
51195002119
51195007978
51195016157
51195022260
51195026227
51195033796
51195037885
51195045515
51195053449
51195062238
51195067121
51195073774
51195081525
51195085370
51195092267
51195099347
51195101545
51195114301
51195119062
51195126813
51195133832
51195139508
51195145002
51195152753
51195157758
51195164472
51195171308
51195177533
51195184613
51195193769
51195198285
51195208722
51195214948
51195221967
51195229779
51195237592
51195247113
51195253278
51195259747
51195266034
51195272992
51195280743
51195284772
51195295026
51195302045
51195309674
51195319073
51195325421
51195332257
51195336224
51195344586
51195350751
51195354962
51195362347
51195366253
51195378338
51195385174
51195390729
51195397503
51195402569
51195411114
51195417462
51195423321
51195429120
51195440167
51195445355
51195449566
51195459881
51195465924
51195471844
51195476788
51195484783
51195490155
51195496319
51195502362
51195511639
51195515850
51195523236
51195529461
51195533917
51195542584
51195547039
51195554424
51195562176
51195571270
51195576397
51195585430
51195591656
51195595745
51195603863
51195607708
51195616924
51195623028
51195630291
51195637554
51195645061
51195649883
51195655987
51195663921
51195669658
51195675274
51195682964
51195687359
51195695904
51195702373
51195709331
51195716045
51195720928
51195728252
51195734722
51195739238
51195746135
51195751812
51195761455
51195768657
51195777263
51195782146
51195792278
51195798442
51195806072
51195813274
51195815654
51195827373
51195834148
51195839885
51195847331
51195851848
51195858928
51195862651
51195870219
51195876567
51195884685
51195891704
51195897197
51195905009
51195908733
51195916179
51195923442
51195928752
51195936198
51195940715
51195948955
51195955730
51195963237
51195969829
51195975261
51195981181
51195986979
51195993937
51196000956
51196007670
51196013408
51196020060
51196027201
51196034221
51196039958
51196047343
51196051677
51196059306
51196065165
51196071269
51196080058
51196086466
51196094279
51196098124
51196104777
51196111552
51196116801
51196124613
51196130900
51196140849
51196147135
51196155070
51196159831
51196167216
51196172953
51196178751
51196183085
51196191080
51196195170
51196205851
51196210184
51196220011
51196225992
51196230753
51196239542
51196243449
51196249674
51196258402
51196266092
51196273356
51196280192
51196285746
51196291910
51196297159
51196303934
51196307840
51196316507
51196322245
51196333719
51196340128
51196346109
51196353128
51196357157
51196366129
51196372110
51196377542
51196384134
51196391580
51196397623
51196405802
51196411112
51196418009
51196423685
51196431131
51196437967
51196443399
51196449503
51196459940
51196467447
51196474710
51196482278
51196486246
51196492593
51196499734
51196505899
51196513223
51196517313
51196524637
51196534585
51196539651
51196546365
51196552286
51196559976
51196566995
51196571512
51196578592
51196583291
51196593911
51196599099
51196607705
51196613992
51196620706
51196625650
51196629800
51196636758
51196644265
51196652810
51196660257
51196667031
51196672647
51196678689
51196684365
51196691506
51196697854
51196703469
51196709878
51196716165
51196725808
51196730996
51196737649
51196744607
51196750283
51196756204
51196762002
51196768838
51196773293
51196783120
51196790261
51196795205
51196802041
51196807473
51196814736
51196820595
51196828957
51196835793
51196844399
51196850564
51196856545
51196863625
51196869484
51196875039
51196881203
51196887124
51196894021
51196898720
51196907570
51196914895
51196921425
51196928566
51196934792
51196942543
51196946511
51196952736
51196961403
51196963967
51196973427
51196982216
51196988137
51196994545
51197002114
51197009255
51197017189
51197024880
51197034401
51197043312
51197048317
51197055641
51197062355
51197070107
51197074806
51197078590
51197088112
51197094032
51197100929
51197108864
51197115578
51197121132
51197127052
51197132973
51197141579
51197145485
51197153297
51197157020
51197168922
51197175392
51197181495
51197188270
51197194923
51197200172
51197206031
51197211769
51197218910
51197223915
51197234901
51197239296
51197247413
51197254249
51197259620
51197267066
51197273231
51197277870
51197286415
51197294776
51197302101
51197307655
51197313209
51197319312
51197325416
51197332313
51197339393
51197344764
51197351356
51197360145
51197367713
51197376319
51197381751
51197388526
51197396583
51197403846
51197410133
51197416541
51197423499
51197431251
51197437659
51197443641
51197450721
51197458594
51197464576
51197470008
51197477210
51197485511
51197493140
51197499183
51197504676
51197511634
51197521033
51197527320
51197533057
51197543494
51197548804
51197557166
51197563452
51197571204
51197578101
51197584021
51197588538
51197596350
51197603369
51197612952
51197620520
51197627905
51197633887
51197641150
51197646033
51197653540
51197658972
51197667944
51197675513
51197681982
51197688452
51197695715
51197702978
51197710120
51197715430
51197723242
51197729407
51197736243
51197743506
51197751440
51197758093
51197766272
51197772864
51197778296
51197785620
51197792883
51197801306
51197805700
51197814611
51197822302
51197830969
51197836218
51197842749
51197851843
51197858435
51197863378
51197872290
51197876562
51197889440
51197896826
51197903173
51197908666
51197916540
51197922888
51197929601
51197936071
51197944555
51197949682
51197962316
51197969823
51197975927
51197981359
51197989050
51197997167
51198003698
51198007970
51198016149
51198023351
51198029882
51198036901
51198045751
51198053686
51198059179
51198065404
51198072423
51198079259
51198087011
51198093358
51198102758
51198109960
51198115148
51198123021
51198130040
51198136144
51198143224
51198149144
51198156713
51198161534
51198173497
51198177953
51198188756
51198196141
51198204015
51198211949
51198220372
51198228551
51198237279
51198246495
51198253636
51198260228
51198267979
51198273717
51198281956
51198286595
51198294225
51198301854
51198308873
51198317357
51198322240
51198328953
51198338780
51198343480
51198351658
51198355931
51198366307
51198372654
51198377965
51198386876
51198393223
51198399815
51198406041
51198413731
51198421666
51198423863
51198434849
51198441746
51198449742
51198455662
51198462681
51198468846
51198475498
51198483311
51198490879
51198497349
51198503941
51198510716
51198518467
51198526524
51198533360
51198541538
51198545994
51198552525
51198560032
51198567295
51198573826
51198580235
51198587925
51198598179
51198605503
51198611179
51198617832
51198626621
51198633335
51198637974
51198646457
51198650974
51198661899
51198669224
51198673069
51198681492
51198686191
51198693149
51198704197
51198709263
51198717685
51198722568
51198733127
51198740207
51198747531
51198755161
51198761814
51198768405
51198774875
51198783176
51198789035
51198793613
51198806613
51198811374
51198819187
51198826755
51198832919
51198841769
51198850009
51198855319
51198863071
51198870456
51198880038
51198887729
51198892917
51198900729
51198908420
51198913791
51198920383
51198927096
51198934543
51198945041
51198952853
51198959994
51198966281
51198973117
51198980746
51198988437
51198993564
51199002047
51199008944
51199017855
51199023532
51199027865
51199038485
51199045077
51199051730
51199059542
51199064364
51199072848
51199080050
51199089022
51199097201
51199104586
51199110507
51199117648
51199122897
51199130953
51199136385
51199145052
51199152499
51199160616
51199168002
51199175204
51199183016
51199188937
51199194064
51199201937
51199207552
51199215914
51199225741
51199232210
51199238802
51199247103
51199256380
51199264376
51199272738
51199280306
51199289034
51199294283
51199301485
51199309725
51199318331
51199323824
51199328218
51199338411
51199344759
51199349642
51199358187
51199362642
51199372835
51199379610
51199387300
51199392488
51199396761
51199407564
51199413912
51199420137
51199427828
51199433626
51199442293
51199449312
51199454439
51199462190
51199469453
51199475801
51199482210
51199488863
51199496187
51199502534
51199509004
51199515413
51199524385
51199531953
51199538667
51199545137
51199551729
51199559236
51199564851
51199574006
51199580171
51199586946
51199593416
51199600984
51199607454
51199616059
51199620637
51199629548
51199637422
51199644075
51199650300
51199656709
51199663728
51199671418
51199676911
51199685395
51199689790
51199698457
51199705964
51199713777
51199723237
51199728059
51199738007
51199744538
51199749482
51199757905
51199762177
51199769196
51199776887
51199784577
51199792817
51199797883
51199807770
51199814850
51199819062
51199827485
51199832001
51199838959
51199847748
51199855073
51199863068
51199871979
51199878205
51199885041
51199892792
51199898224
51199902680
51199911774
51199921479
51199927399
51199935517
51199941925
51199950775
51199955292
51199962982
51199970734
51199975067
51199985199
51199992584
51199999359
51200007599
51200014984
51200021454
51200032135
51200038544
51200045075
51200049469
51200058014
51200067291
51200074188
51200080841
51200089020
51200094635
51200101471
51200109711
51200116485
51200120941
51200129364
51200134003
51200145965
51200151153
51200160553
51200165924
51200172760
51200181244
51200187835
51200193817
51200201385
51200207977
51200216827
51200222137
51200230438
51200238128
51200244598
51200250762
51200257476
51200265411
51200270904
51200279632
51200286163
51200293853
51200300628
51200308318
51200313567
51200321746
51200328887
51200334502
51200341888
51200348418
51200357269
51200361907
51200370818
51200377776
51200383575
51200389739
51200396697
51200402679
51200410186
51200417022
51200425139
51200430327
51200439910
51200446685
51200451751
51200461028
51200467742
51200472991
51200480620
51200488982
51200495452
51200503753
51200509978
51200516387
51200524199
51200529937
51200536650
51200545195
51200552153
51200559783
51200567961
51200574187
51200580657
51200587065
51200594390
51200602324
51200609465
51200615508
51200622771
51200630095
51200637907
51200644804
51200651091
51200657622
51200663847
51200671416
51200678618
51200685210
51200692046
51200701445
51200709502
51200715422
51200723784
51200728178
51200735686
51200743193
51200749968
51200756254
51200762968
51200773222
51200780790
51200785490
51200794035
51200801115
51200807280
51200814116
51200821745
51200827238
51200838407
51200844877
51200851957
51200859770
51200867643
51200873991
51200880216
51200887174
51200894499
51200902189
51200909208
51200915556
51200922636
51200930753
51200936918
51200941129
51200949369
51200955534
51200962247
51200969755
51200977811
51200984220
51200990812
51201000394
51201007535
51201017301
51201024747
51201033231
51201041349
51201048185
51201055143
51201062650
51201068265
51201075834
51201081876
51201090238
51201096952
51201103116
51201110624
51201117337
51201125760
51201131131
51201138211
51201145780
51201151029
51201159207
51201165738
51201172391
51201180264
51201182584
51201193814
51201198514
51201205777
51201213529
51201220792
51201229276
51201233548
51201241483
51201249356
51201257047
51201265286
51201271146
51201276456
51201286099
51201292447
51201298184
51201302457
51201313016
51201320157
51201327237
51201335415
51201342679
51201348843
51201355435
51201362515
51201370144
51201375882
51201382168
51201388699
51201395901
51201405667
51201411343
51201419705
51201424099
51201430630
51201440457
51201446682
51201453030
51201460049
51201466946
51201475247
51201483792
51201489346
51201497585
51201503933
51201510708
51201516567
51201525173
51201530056
51201541409
51201546291
51201553432
51201561367
51201568569
51201574795
51201581509
51201589687
51201595425
51201604946
51201611721
51201618984
51201624416
51201632351
51201640346
51201646328
51201652920
51201658901
51201666347
51201671596
51201684536
51201688869
51201700161
51201705715
51201714138
51201724392
51201730068
51201739101
51201743923
51201753261
51201760280
51201767421
51201774684
51201780788
51201787074
51201793910
51201802089
51201807460
51201812221
51201824672
51201831691
51201837672
51201845424
51201851405
51201860011
51201866725
51201872218
51201879848
51201887294
51201896205
51201901515
51201908534
51201916163
51201923182
51201929835
51201936366
51201942714
51201950526
51201960536
51201966273
51201974086
51201983363
51201988795
51201999842
51202006739
51202013514
51202021815
51202026820
51202038356
51202043238
51202050929
51202058192
51202062464
51202071131
51202077723
51202084254
51202091700
51202096522
51202105799
51202112879
51202120265
51202127650
51202133997
51202141932
51202146204
51202153651
51202160853
51202168055
51202174036
51202181238
51202187647
51202194788
51202202112
51202208155
51202214991
51202219629
51202226343
51202233912
51202241358
51202248072
51202253443
51202259241
51202265650
51202272364
51202277979
51202285364
51202292078
51202297693
51202307337
51202311304
51202318628
51202324793
51202331812
51202337854
51202342066
51202349451
51202353906
51202364466
51202371546
51202376612
51202383631
51202389368
51202396997
51202400964
51202407068
51202413843
51202423120
51202430566
51202435999
51202443689
51202449426
51202454126
51202461023
51202468408
51202474145
51202480066
51202485620
51202494775
51202499597
51202507287
51202511499
51202517480
51202526086
51202530847
51202538171
51202542199
51202554345
51202561425
51202568628
51202575280
51202577295
51202587854
51202592004
51202598962
51202607629
51202615136
51202623376
51202628564
51202636254
51202641442
51202647302
51202654077
51202659387
51202667382
51202673730
51202682153
51202691735
51202697167
51202704003
51202708032
51202717431
51202723168
51202729333
51202734216
51202741967
51202749902
51202758385
51202763940
51202770715
51202775597
51202783044
51202786889
51202796288
51202802025
51202810815
51202818383
51202820641
51202830590
51202836632
51202842309
51202849450
51202855797
51202861657
51202867699
51202880333
51202887108
51202894493
51202901390
51202905907
51202913353
51202917809
51202923851
51202930565
51202935265
51202944847
51202949669
51202960655
51202966942
51202974632
51202981529
51202987999
51202995445
51203003563
51203012169
51203017052
51203025597
51203031639
51203039024
51203046165
51203054405
51203062218
51203064293
51203073204
51203082054
51203089744
51203095787
51203101829
51203109093
51203112938
51203120262
51203126243
51203134117
51203141746
51203149254
51203154319
51203160118
51203165611
51203174644
51203180076
51203184959
51203191673
51203199180
51203206260
51203212669
51203219322
51203224998
51203232749
51203237083
51203245017
51203249839
51203256736
51203265159
51203270530
51203277000
51203284019
51203289695
51203297202
